0.0,0.0,0.0,-1.4417698366742115e-05,5.5379452533088624e-05
0.0,0.0,0.0,-1.417677958670538e-05,5.53986756131053e-05
0.0,0.0,0.0,-1.3776574633084238e-05,5.538396362680942e-05
0.0,0.0,0.0,-1.3525402209779713e-05,5.564986713579856e-05
0.0,0.0,0.0,-1.3134441360307392e-05,5.550976493395865e-05
0.0,0.0,0.0,-1.3342761121748481e-05,5.557173062697984e-05
0.0,0.0,0.0,-1.3658703210239764e-05,5.579482240136713e-05
0.0,0.0,0.0,-1.33564681163989e-05,5.5881249863887206e-05
0.0,0.0,0.0,-1.3240071893960703e-05,5.632859028992243e-05
0.0,0.0,0.0,-1.3299240890773945e-05,5.63593530387152e-05
0.0,0.0,0.0,-1.3026447959418874e-05,5.624604455078952e-05
0.0,0.0,0.0,-1.3148540347174276e-05,5.620194860966876e-05
0.0,0.0,0.0,-1.3204114111431409e-05,5.658318696077913e-05
0.0,0.0,0.0,-1.3468974429997616e-05,5.7162673329003155e-05
0.0,0.0,0.0,-1.3256198144517839e-05,5.7329642004333436e-05
0.0,0.0,0.0,-1.3251965356175788e-05,5.6622709962539375e-05
0.0,0.0,0.0,-1.351077025901759e-05,5.62691711820662e-05
0.0,0.0,0.0,-1.3778659194940701e-05,5.608794526779093e-05
0.0,0.0,0.0,-1.3561839296016842e-05,5.593894456978887e-05
0.0,0.0,0.0,-1.3135900189809036e-05,5.5771797633497044e-05
0.0,0.0,0.0,-1.3057556316198315e-05,5.568308552028611e-05
0.0,0.0,0.0,-1.3182756447349675e-05,5.576568219112232e-05
0.0,0.0,0.0,-1.3432810192171019e-05,5.563626837101765e-05
0.0,0.0,0.0,-1.3769511497230269e-05,5.545542808249593e-05
0.0,0.0,0.0,-1.3762182788923383e-05,5.533321018447168e-05
0.0,0.0,0.0,-1.3761369700659998e-05,5.5460885050706565e-05
0.0,0.0,0.0,-1.3768990356766153e-05,5.5641867220401764e-05
0.0,0.0,0.0,-1.3755789041169919e-05,5.5222611990757287e-05
0.0,0.0,0.0,-1.3773447790299542e-05,5.546650572796352e-05
0.0,0.0,0.0,-1.3752352970186621e-05,5.565210813074373e-05
0.0,0.0,0.0,-1.4031197679287288e-05,5.4943226132309064e-05
0.0,0.0,0.0,-1.436208731320221e-05,5.542290091398172e-05
0.0,0.0,0.0,-1.4216217095963657e-05,5.485421570483595e-05
0.0,0.0,0.0,-1.3836356629326474e-05,5.471798067446798e-05
0.0,0.0,0.0,-1.3777721505903173e-05,5.472893826663494e-05
0.0,0.0,0.0,-1.3750175639870577e-05,5.470110409078188e-05
0.0,0.0,0.0,-1.3967733138997573e-05,5.4934254876570776e-05
0.0,0.0,0.0,-1.3918008335167542e-05,5.485608198796399e-05
0.0,0.0,0.0,-1.358712324872613e-05,5.473436613101512e-05
0.0,0.0,0.0,-1.3587055946118198e-05,5.48569587408565e-05
0.0,0.0,0.0,-1.3766109077550936e-05,5.58262036065571e-05
0.0,0.0,0.0,-1.3761038644588552e-05,5.6277785915881395e-05
0.0,0.0,0.0,-1.376620821247343e-05,5.591168155660853e-05
0.0,0.0,0.0,-1.3644243153976277e-05,5.599618816631846e-05
0.0,0.0,0.0,-1.333577893092297e-05,5.612387030851096e-05
0.0,0.0,0.0,-1.3095418580633122e-05,5.6003162171691656e-05
0.0,0.0,0.0,-1.3089339518046472e-05,5.6115983170457184e-05
0.0,0.0,0.0,-1.324384629697306e-05,5.608620631392114e-05
0.0,0.0,0.0,-1.3582774954556953e-05,5.6544853578088805e-05
0.0,0.0,0.0,-1.3195144674682524e-05,5.6939425121527165e-05
0.0,0.0,0.0,-1.2919759683427401e-05,5.6831097026588395e-05
0.0,0.0,0.0,-1.2628586773644201e-05,5.668129597324878e-05
0.0,0.0,0.0,-1.2937009159941226e-05,5.7100354752037674e-05
0.0,0.0,0.0,-1.3844739441992715e-05,5.704369323211722e-05
0.0,0.0,0.0,-1.2837826034228783e-05,5.737479659728706e-05
0.0,0.0,0.0,-1.2959387277078349e-05,5.660275201080367e-05
0.0,0.0,0.0,-1.3196355212130584e-05,5.652369509334676e-05
0.0,0.0,0.0,-1.3001355000596959e-05,5.6886838137870654e-05
0.0,0.0,0.0,-1.3170854799682274e-05,5.6113956816261634e-05
0.0,0.0,0.0,-1.3024965483054984e-05,5.634839544654824e-05
0.0,0.0,0.0,-1.3595752534456551e-05,5.637895446852781e-05
0.0,0.0,0.0,-1.3758653949480504e-05,5.598575444309972e-05
0.0,0.0,0.0,-1.376715772494208e-05,5.588243220699951e-05
0.0,0.0,0.0,-1.357005112367915e-05,5.611228698398918e-05
0.0,0.0,0.0,-1.3417648915492464e-05,5.5660268117208034e-05
0.0,0.0,0.0,-1.3777651474811137e-05,5.557493568630889e-05
0.0,0.0,0.0,-1.378081833536271e-05,5.556172618526034e-05
0.0,0.0,0.0,-1.3426143596007023e-05,5.598578354693018e-05
0.0,0.0,0.0,-1.356603934254963e-05,5.617413262370974e-05
0.0,0.0,0.0,-1.3887692148273345e-05,5.528789552045055e-05
0.0,0.0,0.0,-1.3975156434753444e-05,5.492528362083249e-05
0.0,0.0,0.0,-1.399618668074254e-05,5.484694702317938e-05
0.0,0.0,0.0,-1.428998166375095e-05,5.511700874194503e-05
0.0,0.0,0.0,-1.4076632396609057e-05,5.531420174520463e-05
0.0,0.0,0.0,-1.380569847242441e-05,5.514414078788832e-05
0.0,0.0,0.0,-1.4102271961746737e-05,5.535121454158798e-05
0.0,0.0,0.0,-1.4043281225895043e-05,5.537088873097673e-05
0.0,0.0,0.0,-1.384089955536183e-05,5.505756780621596e-05
0.0,0.0,0.0,-1.4002437637827825e-05,5.511566632776521e-05
0.0,0.0,0.0,-1.3857262274541426e-05,5.5629945563850924e-05
0.0,0.0,0.0,-1.3684987607121002e-05,5.549526758841239e-05
0.0,0.0,0.0,-1.3541571206587832e-05,5.558938573813066e-05
0.0,0.0,0.0,-1.3610532732855063e-05,5.5839620472397655e-05
0.0,0.0,0.0,-1.3877558558306191e-05,5.536707249120809e-05
0.0,0.0,0.0,-1.3671852684637997e-05,5.543027145904489e-05
0.0,0.0,0.0,-1.3591066817753017e-05,5.5850239732535556e-05
0.0,0.0,0.0,-1.3111644875607453e-05,5.613699249806814e-05
0.0,0.0,0.0,-1.3130033039487898e-05,5.600384247372858e-05
0.0,0.0,0.0,-1.3493311598722357e-05,5.6104010582203045e-05
0.0,0.0,0.0,-1.3609990674012806e-05,5.6436874729115516e-05
0.0,0.0,0.0,-1.3572438547271304e-05,5.658793088514358e-05
0.0,0.0,0.0,-1.3805442904413212e-05,5.653563857777044e-05
0.0,0.0,0.0,-1.3737849258177448e-05,5.676848377333954e-05
0.0,0.0,0.0,-1.3456735359795857e-05,5.6711873185122386e-05
0.0,0.0,0.0,-1.3237960956757888e-05,5.733765283366665e-05
0.0,0.0,0.0,-1.3556946214521304e-05,5.737732499255799e-05
0.0,0.0,0.0,-1.339293066848768e-05,5.655055429087952e-05
0.0,0.0,0.0,-1.3114365174260456e-05,5.6708820920903236e-05
0.0,0.0,0.0,-1.3623216545965988e-05,5.6535020121373236e-05
0.0,0.0,0.0,-1.3369488442549482e-05,5.598989446298219e-05
0.0,0.0,0.0,-1.3256169950182084e-05,5.5718606745358557e-05
0.0,0.0,0.0,-1.3643812962982338e-05,5.581157893175259e-05
0.0,0.0,0.0,-1.349816102447221e-05,5.6022352509899065e-05
0.0,0.0,0.0,-1.3415972716757096e-05,5.604584657703526e-05
0.0,0.0,0.0,-1.3748856872553006e-05,5.568037158809602e-05
0.0,0.0,0.0,-1.3468184079101775e-05,5.5462562158936635e-05
0.0,0.0,0.0,-1.3720663446292747e-05,5.562966543948278e-05
0.0,0.0,0.0,-1.3797720384900458e-05,5.549717752728611e-05
0.0,0.0,0.0,-1.3737062545260414e-05,5.5586388043593615e-05
0.0,0.0,0.0,-1.3783946087642107e-05,5.556674295803532e-05
0.0,0.0,0.0,-1.401436747983098e-05,5.498973769135773e-05
0.0,0.0,0.0,-1.3889489309804048e-05,5.4874650231795385e-05
0.0,0.0,0.0,-1.3696188943868037e-05,5.4873777116881683e-05
0.0,0.0,0.0,-1.405210787197575e-05,5.515178054338321e-05
0.0,0.0,0.0,-1.4303900570666883e-05,5.475673606269993e-05
0.0,0.0,0.0,-1.425668870069785e-05,5.475197031046264e-05
0.0,0.0,0.0,-1.3853282325726468e-05,5.4901982366573066e-05
0.0,0.0,0.0,-1.3783062968286686e-05,5.5075746786314994e-05
0.0,0.0,0.0,-1.3750279322266579e-05,5.522715218830854e-05
0.0,0.0,0.0,-1.3771962585451547e-05,5.522511855815537e-05
0.0,0.0,0.0,-1.3440380826068576e-05,5.521521597984247e-05
0.0,0.0,0.0,-1.3090673746773973e-05,5.5976055591600016e-05
0.0,0.0,0.0,-1.3095497706672177e-05,5.632819375023246e-05
0.0,0.0,0.0,-1.3343043974600732e-05,5.585274993791245e-05
0.0,0.0,0.0,-1.3517405022867024e-05,5.606114791589789e-05
0.0,0.0,0.0,-1.3232280252850614e-05,5.594877075054683e-05
0.0,0.0,0.0,-1.3288675290823448e-05,5.584910468314774e-05
0.0,0.0,0.0,-1.3317643606569618e-05,5.601348675554618e-05
0.0,0.0,0.0,-1.3673267858393956e-05,5.610812877421267e-05
0.0,0.0,0.0,-1.3775825209449977e-05,5.614507244899869e-05
0.0,0.0,0.0,-1.3340265468286816e-05,5.67171628063079e-05
0.0,0.0,0.0,-1.3151558050594758e-05,5.674350177287124e-05
0.0,0.0,0.0,-1.3043989383731969e-05,5.672690167557448e-05
0.0,0.0,0.0,-1.3151979146641679e-05,5.673583291354589e-05
0.0,0.0,0.0,-1.3356147974263877e-05,5.673275518347509e-05
0.0,0.0,0.0,-1.3198670785641298e-05,5.730584962293506e-05
0.0,0.0,0.0,-1.300559779338073e-05,5.7489207392791286e-05
0.0,0.0,0.0,-1.3161294191377237e-05,5.733262514695525e-05
0.0,0.0,0.0,-1.2783486454281956e-05,5.771942232968286e-05
0.0,0.0,0.0,-1.3254522855277173e-05,5.7967288739746436e-05
0.0,0.0,0.0,-1.3247443348518573e-05,5.764809247921221e-05
0.0,0.0,0.0,-1.3464771654980723e-05,5.7324628869537264e-05
0.0,0.0,0.0,-1.344663633062737e-05,5.7467506849206984e-05
0.0,0.0,0.0,-1.2963092558493372e-05,5.735642116633244e-05
0.0,0.0,0.0,-1.3392830624070484e-05,5.743902875110507e-05
0.0,0.0,0.0,-1.3529048374039121e-05,5.720092303818092e-05
0.0,0.0,0.0,-1.3836604921380058e-05,5.707320451620035e-05
0.0,0.0,0.0,-1.3705381206818856e-05,5.7071745686698705e-05
0.0,0.0,0.0,-1.3808677977067418e-05,5.750610580435023e-05
0.0,0.0,0.0,-1.3868636415281799e-05,5.7531087804818526e-05
0.0,0.0,0.0,-1.398915355821373e-05,5.661432078341022e-05
0.0,0.0,0.0,-1.3763430615654215e-05,5.628615690511651e-05
0.0,0.0,0.0,-1.3970357031212188e-05,5.6064069212879986e-05
0.0,0.0,0.0,-1.431975033483468e-05,5.60638727620244e-05
0.0,0.0,0.0,-1.4043891496839933e-05,5.6055676395772025e-05
0.0,0.0,0.0,-1.3840522115060594e-05,5.60705411771778e-05
0.0,0.0,0.0,-1.4129986084299162e-05,5.6050572311505675e-05
0.0,0.0,0.0,-1.4386976545210928e-05,5.6074241001624614e-05
0.0,0.0,0.0,-1.407932722941041e-05,5.6048120313789696e-05
0.0,0.0,0.0,-1.3784613656753208e-05,5.6075590691762045e-05
0.0,0.0,0.0,-1.3741078873863444e-05,5.6090262660291046e-05
0.0,0.0,0.0,-1.378710203425726e-05,5.666273136739619e-05
0.0,0.0,0.0,-1.3739865607931279e-05,5.6216940720332786e-05
0.0,0.0,0.0,-1.3787198440695647e-05,5.5931988754309714e-05
0.0,0.0,0.0,-1.3740735994360875e-05,5.616840280708857e-05
0.0,0.0,0.0,-1.3785504052066244e-05,5.597523340838961e-05
0.0,0.0,0.0,-1.3253914403321687e-05,5.6374705309281126e-05
0.0,0.0,0.0,-1.3523500456358306e-05,5.61384586035274e-05
0.0,0.0,0.0,-1.3395061614573933e-05,5.649972808896564e-05
0.0,0.0,0.0,-1.2986592992092483e-05,5.67873939871788e-05
0.0,0.0,0.0,-1.3379759366216604e-05,5.6683351431274787e-05
0.0,0.0,0.0,-1.3183389455662109e-05,5.696943844668567e-05
0.0,0.0,0.0,-1.3121111805958208e-05,5.703970236936584e-05
0.0,0.0,0.0,-1.3072611181996763e-05,5.7095126976491883e-05
0.0,0.0,0.0,-1.2944536138093099e-05,5.688560122507624e-05
0.0,0.0,0.0,-1.2601108210219536e-05,5.719925684388727e-05
0.0,0.0,0.0,-1.2561944458866492e-05,5.702548514818773e-05
0.0,0.0,0.0,-1.3008278074266855e-05,5.610934749711305e-05
0.0,0.0,0.0,-1.3292654330143705e-05,5.6019700423348695e-05
0.0,0.0,0.0,-1.312373478867812e-05,5.5991731642279774e-05
0.0,0.0,0.0,-1.3061900062893983e-05,5.5710115702822804e-05
0.0,0.0,0.0,-1.3206104085838888e-05,5.565395622397773e-05
0.0,0.0,0.0,-1.3453480278258212e-05,5.540178608498536e-05
0.0,0.0,0.0,-1.3781836969428696e-05,5.531567876460031e-05
0.0,0.0,0.0,-1.3640584256791044e-05,5.514648000826128e-05
0.0,0.0,0.0,-1.3213717465987429e-05,5.523930667550303e-05
0.0,0.0,0.0,-1.3357118405110668e-05,5.481415428221226e-05
0.0,0.0,0.0,-1.3811722965328954e-05,5.431361205410212e-05
0.0,0.0,0.0,-1.3724387827096507e-05,5.444134512799792e-05
0.0,0.0,0.0,-1.3794790902466048e-05,5.433515616459772e-05
0.0,0.0,0.0,-1.3739849237026647e-05,5.359253555070609e-05
0.0,0.0,0.0,-1.404665454174392e-05,5.349782441044226e-05
0.0,0.0,0.0,-1.4122566426522098e-05,5.4119656851980835e-05
0.0,0.0,0.0,-1.3831975593348034e-05,5.34655773662962e-05
0.0,0.0,0.0,-1.3758025488641579e-05,5.386051634559408e-05
0.0,0.0,0.0,-1.3765255971520673e-05,5.364200842450373e-05
0.0,0.0,0.0,-1.3978149581816979e-05,5.329335908754729e-05
0.0,0.0,0.0,-1.3910401321481913e-05,5.405646516010165e-05
0.0,0.0,0.0,-1.37414672281011e-05,5.4360607464332134e-05
0.0,0.0,0.0,-1.3959352145320736e-05,5.4224845371209085e-05
0.0,0.0,0.0,-1.3928394764661789e-05,5.418768705567345e-05
0.0,0.0,0.0,-1.3596504686574917e-05,5.4415384511230513e-05
0.0,0.0,0.0,-1.3287581168697216e-05,5.509870607056655e-05
0.0,0.0,0.0,-1.3360227058001328e-05,5.538557888939977e-05
0.0,0.0,0.0,-1.363535466225585e-05,5.452536788652651e-05
0.0,0.0,0.0,-1.3317979210114572e-05,5.469595271279104e-05
0.0,0.0,0.0,-1.3100242540531326e-05,5.4740256018703803e-05
0.0,0.0,0.0,-1.3083474186714739e-05,5.479453466250561e-05
0.0,0.0,0.0,-1.3101415788696613e-05,5.522479477804154e-05
0.0,0.0,0.0,-1.3082965779176448e-05,5.568032429437153e-05
0.0,0.0,0.0,-1.3101351214572787e-05,5.5766431614756584e-05
0.0,0.0,0.0,-1.3030342415731866e-05,5.5637014156673104e-05
0.0,0.0,0.0,-1.2839195733249653e-05,5.5538705055369064e-05
0.0,0.0,0.0,-1.305430669162888e-05,5.593653258983977e-05
0.0,0.0,0.0,-1.3427327758108731e-05,5.616799899144098e-05
0.0,0.0,0.0,-1.3117345588398166e-05,5.597231938736513e-05
0.0,0.0,0.0,-1.364427043881733e-05,5.5848453484941274e-05
0.0,0.0,0.0,-1.3312501323525794e-05,5.534823503694497e-05
0.0,0.0,0.0,-1.3462397873809095e-05,5.570044231717475e-05
0.0,0.0,0.0,-1.3967376617074478e-05,5.5471657105954364e-05
0.0,0.0,0.0,-1.359535690426128e-05,5.5843600421212614e-05
0.0,0.0,0.0,-1.3900148587708827e-05,5.568308915826492e-05
0.0,0.0,0.0,-1.343209260085132e-05,5.5263419199036434e-05
0.0,0.0,0.0,-1.3489956472767517e-05,5.5285458074649796e-05
0.0,0.0,0.0,-1.338429228781024e-05,5.514814256457612e-05
0.0,0.0,0.0,-1.3647131709149107e-05,5.530305134016089e-05
0.0,0.0,0.0,-1.394144055666402e-05,5.477781451190822e-05
0.0,0.0,0.0,-1.4100786756898742e-05,5.4787411500001326e-05
0.0,0.0,0.0,-1.3947535990155302e-05,5.4666186770191416e-05
0.0,0.0,0.0,-1.3896134078095201e-05,5.53530226170551e-05
0.0,0.0,0.0,-1.4257305338105652e-05,5.533576404559426e-05
0.0,0.0,0.0,-1.4278181879490148e-05,5.456135477288626e-05
0.0,0.0,0.0,-1.4256567737902515e-05,5.443819463835098e-05
0.0,0.0,0.0,-1.4382625522557646e-05,5.389337457017973e-05
0.0,0.0,0.0,-1.4293666936282534e-05,5.3553485486190766e-05
0.0,0.0,0.0,-1.3753825442108791e-05,5.401635280577466e-05
0.0,0.0,0.0,-1.3775581464869902e-05,5.43029309483245e-05
0.0,0.0,0.0,-1.3878000572731253e-05,5.494607466971502e-05
0.0,0.0,0.0,-1.4285275028669275e-05,5.515148222912103e-05
0.0,0.0,0.0,-1.3862331798009109e-05,5.4926098528085276e-05
0.0,0.0,0.0,-1.3681966265721712e-05,5.482957567437552e-05
0.0,0.0,0.0,-1.3830336683895439e-05,5.466592847369611e-05
0.0,0.0,0.0,-1.371003054373432e-05,5.538770346902311e-05
0.0,0.0,0.0,-1.3805879461870063e-05,5.568019696511328e-05
0.0,0.0,0.0,-1.3731189937971067e-05,5.6040327763184905e-05
0.0,0.0,0.0,-1.3787722309643868e-05,5.6068809499265626e-05
0.0,0.0,0.0,-1.374662224407075e-05,5.5798816902097315e-05
0.0,0.0,0.0,-1.3285547538544051e-05,5.570286521106027e-05
0.0,0.0,0.0,-1.3264350855024531e-05,5.597736162599176e-05
0.0,0.0,0.0,-1.3277686775836628e-05,5.60737717023585e-05
0.0,0.0,0.0,-1.343903841188876e-05,5.60490989300888e-05
0.0,0.0,0.0,-1.3860679246135987e-05,5.647863508784212e-05
0.0,0.0,0.0,-1.3687781574844848e-05,5.6749013310763985e-05
0.0,0.0,0.0,-1.3820973435940687e-05,5.6722270528553054e-05
0.0,0.0,0.0,-1.3382044926402159e-05,5.6398937886115164e-05
0.0,0.0,0.0,-1.311060714215273e-05,5.636931746266782e-05
0.0,0.0,0.0,-1.3083641533739865e-05,5.733712896471843e-05
0.0,0.0,0.0,-1.3369262887863442e-05,5.7511428167345e-05
0.0,0.0,0.0,-1.3758884961134754e-05,5.650582897942513e-05
0.0,0.0,0.0,-1.3761972695647273e-05,5.605774640571326e-05
0.0,0.0,0.0,-1.3770411896985024e-05,5.5955653806449845e-05
0.0,0.0,0.0,-1.3561495507019572e-05,5.574388342211023e-05
0.0,0.0,0.0,-1.3143218893674202e-05,5.579291610047221e-05
0.0,0.0,0.0,-1.3044715160503983e-05,5.60576118004974e-05
0.0,0.0,0.0,-1.3263631444715429e-05,5.593523019342683e-05
0.0,0.0,0.0,-1.366655487800017e-05,5.544861778616905e-05
0.0,0.0,0.0,-1.384800452797208e-05,5.533869261853397e-05
0.0,0.0,0.0,-1.3691254025616217e-05,5.54353573534172e-05
0.0,0.0,0.0,-1.3803529327560682e-05,5.53512254555244e-05
0.0,0.0,0.0,-1.3419137758319266e-05,5.5423570302082226e-05
0.0,0.0,0.0,-1.3720653441851027e-05,5.4787975386716425e-05
0.0,0.0,0.0,-1.380217418045504e-05,5.4659747547702864e-05
0.0,0.0,0.0,-1.3994949767948128e-05,5.476895603351295e-05
0.0,0.0,0.0,-1.4164775166136678e-05,5.467680603032932e-05
0.0,0.0,0.0,-1.4042814655113034e-05,5.475372381624766e-05
0.0,0.0,0.0,-1.4147825822874438e-05,5.492430864251219e-05
0.0,0.0,0.0,-1.4058061424293555e-05,5.5101940233726054e-05
0.0,0.0,0.0,-1.3921451682108454e-05,5.5016203987179324e-05
0.0,0.0,0.0,-1.3716753528569825e-05,5.528697511181235e-05
0.0,0.0,0.0,-1.3802311514155008e-05,5.557284384849481e-05
0.0,0.0,0.0,-1.3551483789342456e-05,5.592323577729985e-05
0.0,0.0,0.0,-1.3615099305752665e-05,5.60580228921026e-05
0.0,0.0,0.0,-1.3436357221507933e-05,5.606250851997174e-05
0.0,0.0,0.0,-1.3393088920565788e-05,5.66585804335773e-05
0.0,0.0,0.0,-1.3481298083206639e-05,5.6839940953068435e-05
0.0,0.0,0.0,-1.2979930943401996e-05,5.6095756008289754e-05
0.0,0.0,0.0,-1.2869285455963109e-05,5.6029355619102716e-05
0.0,0.0,0.0,-1.3189847777539399e-05,5.619828880298883e-05
0.0,0.0,0.0,-1.3324736755748745e-05,5.644954217132181e-05
0.0,0.0,0.0,-1.3117068192514125e-05,5.675344800692983e-05
0.0,0.0,0.0,-1.3071308785583824e-05,5.678865636582486e-05
0.0,0.0,0.0,-1.3109674910083413e-05,5.6996777857420966e-05
0.0,0.0,0.0,-1.3077933544991538e-05,5.676777436747216e-05
0.0,0.0,0.0,-1.314630571869202e-05,5.678938396158628e-05
0.0,0.0,0.0,-1.3319788195076399e-05,5.722973219235428e-05
0.0,0.0,0.0,-1.2870549653598573e-05,5.6299537391169e-05
0.0,0.0,0.0,-1.2661079381359741e-05,5.6483171647414565e-05
0.0,0.0,0.0,-1.3409566236077808e-05,5.723047797800973e-05
0.0,0.0,0.0,-1.316984707955271e-05,5.693543062079698e-05
0.0,0.0,0.0,-1.3567997484642547e-05,5.691056503565051e-05
0.0,0.0,0.0,-1.3371392924454994e-05,5.6103370297933e-05
0.0,0.0,0.0,-1.3174016203265637e-05,5.609248546534218e-05
0.0,0.0,0.0,-1.3358128853724338e-05,5.604357284028083e-05
0.0,0.0,0.0,-1.2708886060863733e-05,5.606872582575306e-05
0.0,0.0,0.0,-1.3503609807230532e-05,5.585120743489824e-05
0.0,0.0,0.0,-1.373133000015514e-05,5.5900112784001976e-05
0.0,0.0,0.0,-1.3976075024402235e-05,5.610736116068438e-05
0.0,0.0,0.0,-1.391851492371643e-05,5.5835393141023815e-05
0.0,0.0,0.0,-1.3749449863098562e-05,5.576263720286079e-05
0.0,0.0,0.0,-1.3622031474369578e-05,5.552968286792748e-05
0.0,0.0,0.0,-1.3554800716519821e-05,5.572294685407542e-05
0.0,0.0,0.0,-1.3785228475171607e-05,5.5608492402825505e-05
0.0,0.0,0.0,-1.3740967006015126e-05,5.498014797922224e-05
0.0,0.0,0.0,-1.3786821909889113e-05,5.479501487570815e-05
0.0,0.0,0.0,-1.3740441318077501e-05,5.497420715983026e-05
0.0,0.0,0.0,-1.3786412637273315e-05,5.4996726248646155e-05
0.0,0.0,0.0,-1.3741657312493771e-05,5.567966218222864e-05
0.0,0.0,0.0,-1.3710069652006496e-05,5.583847814705223e-05
0.0,0.0,0.0,-1.3497550753527321e-05,5.58777064725291e-05
0.0,0.0,0.0,-1.3731416402151808e-05,5.554717063205317e-05
0.0,0.0,0.0,-1.3789827789878473e-05,5.556491669267416e-05
0.0,0.0,0.0,-1.37426468427293e-05,5.5555814469698817e-05
0.0,0.0,0.0,-1.3758914064965211e-05,5.559819328482263e-05
0.0,0.0,0.0,-1.3457074601319619e-05,5.614220935967751e-05
0.0,0.0,0.0,-1.368921402900014e-05,5.599825453828089e-05
0.0,0.0,0.0,-1.3550861694966443e-05,5.611002416117117e-05
0.0,0.0,0.0,-1.3602229046227876e-05,5.629216320812702e-05
0.0,0.0,0.0,-1.3363805010158103e-05,5.671118196914904e-05
0.0,0.0,0.0,-1.2694478755292948e-05,5.6720793509157375e-05
0.0,0.0,0.0,-1.3087662409816403e-05,5.673734995070845e-05
0.0,0.0,0.0,-1.2593596693477593e-05,5.6958589993882924e-05
0.0,0.0,0.0,-1.2841593161283527e-05,5.686974327545613e-05
0.0,0.0,0.0,-1.2935863196616992e-05,5.67092138226144e-05
0.0,0.0,0.0,-1.2698047612502705e-05,5.693889397662133e-05
0.0,0.0,0.0,-1.2810549378627911e-05,5.689257159247063e-05
0.0,0.0,0.0,-1.253680147783598e-05,5.6886285165091977e-05
0.0,0.0,0.0,-1.2621044334082399e-05,5.6932545703602955e-05
0.0,0.0,0.0,-1.2869273632531986e-05,5.715503357350826e-05
0.0,0.0,0.0,-1.3261736967251636e-05,5.7342916989000514e-05
0.0,0.0,0.0,-1.326646361121675e-05,5.673275518347509e-05
0.0,0.0,0.0,-1.3014434443903156e-05,5.6499848142266273e-05
0.0,0.0,0.0,-1.2733878975268453e-05,5.608482024399564e-05
0.0,0.0,0.0,-1.2872293154941872e-05,5.5945936765056103e-05
0.0,0.0,0.0,-1.3141179806552827e-05,5.584703467320651e-05
0.0,0.0,0.0,-1.336240802629618e-05,5.593414607574232e-05
0.0,0.0,0.0,-1.3110285181028303e-05,5.579674689215608e-05
0.0,0.0,0.0,-1.3076383766019717e-05,5.5718832300044596e-05
0.0,0.0,0.0,-1.3191272955737077e-05,5.603805766440928e-05
0.0,0.0,0.0,-1.3680781194125302e-05,5.571388464886695e-05
0.0,0.0,0.0,-1.3834334822604433e-05,5.541136488318443e-05
0.0,0.0,0.0,-1.370391055388609e-05,5.53727186343167e-05
0.0,0.0,0.0,-1.3813513760396745e-05,5.5404671002179384e-05
0.0,0.0,0.0,-1.3999074326420669e-05,5.5655025789747015e-05
0.0,0.0,0.0,-1.4170338545227423e-05,5.5507258366560563e-05
0.0,0.0,0.0,-1.4041500435268972e-05,5.506161323864944e-05
0.0,0.0,0.0,-1.4145466593618039e-05,5.5328404414467514e-05
0.0,0.0,0.0,-1.4063543858355843e-05,5.5395226809196174e-05
0.0,0.0,0.0,-1.367940058116801e-05,5.516098826774396e-05
0.0,0.0,0.0,-1.3579465303337201e-05,5.546539250644855e-05
0.0,0.0,0.0,-1.3626586223836057e-05,5.577213960350491e-05
0.0,0.0,0.0,-1.3555182704294566e-05,5.5497963330708444e-05
0.0,0.0,0.0,-1.346146109426627e-05,5.5768705351511016e-05
0.0,0.0,0.0,-1.3033019968133885e-05,5.6065935496008024e-05
0.0,0.0,0.0,-1.313463053520536e-05,5.637477806885727e-05
0.0,0.0,0.0,-1.3064401173323859e-05,5.718933243770152e-05
0.0,0.0,0.0,-1.3245894479041453e-05,5.7447778090136126e-05
0.0,0.0,0.0,-1.3290014067024458e-05,5.696732478099875e-05
0.0,0.0,0.0,-1.2984961358597502e-05,5.671742474078201e-05
0.0,0.0,0.0,-1.2874018466391135e-05,5.674787098541856e-05
0.0,0.0,0.0,-1.3060242963547353e-05,5.691056503565051e-05
0.0,0.0,0.0,-1.3126239537086803e-05,5.7379966165171936e-05
0.0,0.0,0.0,-1.3057221622148063e-05,5.7424560509389266e-05
0.0,0.0,0.0,-1.306361718889093e-05,5.738812978961505e-05
0.0,0.0,0.0,-1.2803739991795737e-05,5.741742643294856e-05
0.0,0.0,0.0,-1.3069376109342556e-05,5.735177910537459e-05
0.0,0.0,0.0,-1.3108065104461275e-05,5.7079774705925956e-05
0.0,0.0,0.0,-1.3082213627058081e-05,5.677869194187224e-05
0.0,0.0,0.0,-1.3097581359033938e-05,5.731676719733514e-05
0.0,0.0,0.0,-1.3090601896692533e-05,5.719262480852194e-05
0.0,0.0,0.0,-1.2814539331884589e-05,5.6687167671043426e-05
0.0,0.0,0.0,-1.2987926311325282e-05,5.625145786325447e-05
0.0,0.0,0.0,-1.2898261047666892e-05,5.620714364340529e-05
0.0,0.0,0.0,-1.2920987501274794e-05,5.627378050121479e-05
0.0,0.0,0.0,-1.3184402632759884e-05,5.593581954599358e-05
0.0,0.0,0.0,-1.3018549907428678e-05,5.616221824311651e-05
0.0,0.0,0.0,-1.3575147022493184e-05,5.598357165581547e-05
0.0,0.0,0.0,-1.3755873624177184e-05,5.611982851405628e-05
0.0,0.0,0.0,-1.3765443327429239e-05,5.5638050980633125e-05
0.0,0.0,0.0,-1.3766636584477965e-05,5.503186184796505e-05
0.0,0.0,0.0,-1.375686679239152e-05,5.504915679921396e-05
0.0,0.0,0.0,-1.377326680085389e-05,5.5239488574443385e-05
0.0,0.0,0.0,-1.3751956430496648e-05,5.5501765018561855e-05
0.0,0.0,0.0,-1.391492423863383e-05,5.5630946008022875e-05
0.0,0.0,0.0,-1.4207776075636502e-05,5.509384936885908e-05
0.0,0.0,0.0,-1.432812769053271e-05,5.512852658284828e-05
0.0,0.0,0.0,-1.399458142259391e-05,5.531725400942378e-05
0.0,0.0,0.0,-1.3779031178273726e-05,5.512939242180437e-05
0.0,0.0,0.0,-1.3919450793764554e-05,5.539633639273234e-05
0.0,0.0,0.0,-1.4404122339328751e-05,5.53787722310517e-05
0.0,0.0,0.0,-1.4397050108527765e-05,5.534197771339677e-05
0.0,0.0,0.0,-1.4000194823893253e-05,5.5064774642232805e-05
0.0,0.0,0.0,-1.352772414975334e-05,5.509302718564868e-05
0.0,0.0,0.0,-1.3680094525625464e-05,5.541798600461334e-05
0.0,0.0,0.0,-1.3812574252369814e-05,5.601887096418068e-05
0.0,0.0,0.0,-1.3411564395937603e-05,5.609479921986349e-05
0.0,0.0,0.0,-1.3440142538456712e-05,5.603661702480167e-05
0.0,0.0,0.0,-1.3142772331775632e-05,5.607989805866964e-05
0.0,0.0,0.0,-1.3326033695193473e-05,5.604896432487294e-05
0.0,0.0,0.0,-1.3235444384918083e-05,5.6069824495352805e-05
0.0,0.0,0.0,-1.325231551163597e-05,5.6301629228983074e-05
0.0,0.0,0.0,-1.3292516086949036e-05,5.66609924135264e-05
0.0,0.0,0.0,-1.2986418369109742e-05,5.628786311717704e-05
0.0,0.0,0.0,-1.317838814429706e-05,5.6229062465718016e-05
0.0,0.0,0.0,-1.3023762221564539e-05,5.6656233937246725e-05
0.0,0.0,0.0,-1.3144962395017501e-05,5.669984602718614e-05
0.0,0.0,0.0,-1.3234255675342865e-05,5.676030195900239e-05
0.0,0.0,0.0,-1.3292207768245135e-05,5.688150486093946e-05
0.0,0.0,0.0,-1.306537160417065e-05,5.693031562259421e-05
0.0,0.0,0.0,-1.3107690392644145e-05,5.7014192861970514e-05
0.0,0.0,0.0,-1.3363052858039737e-05,5.6996530474862084e-05
0.0,0.0,0.0,-1.3750325706496369e-05,5.6283915910171345e-05
0.0,0.0,0.0,-1.354853611701401e-05,5.605377737083472e-05
0.0,0.0,0.0,-1.3305821994435973e-05,5.607259663520381e-05
0.0,0.0,0.0,-1.3738591405854095e-05,5.604814941762015e-05
0.0,0.0,0.0,-1.3779023902316112e-05,5.607718412647955e-05
0.0,0.0,0.0,-1.3756355656369124e-05,5.604455145657994e-05
0.0,0.0,0.0,-1.376423824694939e-05,5.595223046839237e-05
0.0,0.0,0.0,-1.3768431017524563e-05,5.542863073060289e-05
0.0,0.0,0.0,-1.375461488350993e-05,5.5275726481340826e-05
0.0,0.0,0.0,-1.3775851584796328e-05,5.4874864872545004e-05
0.0,0.0,0.0,-1.3791695891995914e-05,5.5238324421225116e-05
0.0,0.0,0.0,-1.4367138646775857e-05,5.5514898122055456e-05
0.0,0.0,0.0,-1.4489335626421962e-05,5.528992915060371e-05
0.0,0.0,0.0,-1.3839517123415135e-05,5.546901957131922e-05
0.0,0.0,0.0,-1.3986348676553462e-05,5.479868923430331e-05
0.0,0.0,0.0,-1.4428318536374718e-05,5.46932642464526e-05
0.0,0.0,0.0,-1.3912917893321719e-05,5.499186954693869e-05
0.0,0.0,0.0,-1.3970899999549147e-05,5.5286036513280123e-05
0.0,0.0,0.0,-1.3921855497756042e-05,5.542289363802411e-05
0.0,0.0,0.0,-1.3917941032559611e-05,5.5569977121194825e-05
0.0,0.0,0.0,-1.3962449884274974e-05,5.577641059062444e-05
0.0,0.0,0.0,-1.3888086868973915e-05,5.587092528003268e-05
0.0,0.0,0.0,-1.3983061762701254e-05,5.593431706074625e-05
0.0,0.0,0.0,-1.370518839394208e-05,5.567093103309162e-05
0.0,0.0,0.0,-1.3808446965413168e-05,5.5773311032680795e-05
0.0,0.0,0.0,-1.3432871128316037e-05,5.643030453938991e-05
0.0,0.0,0.0,-1.3395749192568474e-05,5.70124939258676e-05
0.0,0.0,0.0,-1.3479389963322319e-05,5.652435356751084e-05
0.0,0.0,0.0,-1.3130051229381934e-05,5.6487293477403e-05
0.0,0.0,0.0,-1.306401736655971e-05,5.64187066629529e-05
0.0,0.0,0.0,-1.3112272426951677e-05,5.708184471586719e-05
0.0,0.0,0.0,-1.3079131349513773e-05,5.737521132687107e-05
0.0,0.0,0.0,-1.3099578609399032e-05,5.6965243857121095e-05
0.0,0.0,0.0,-1.3089639651298057e-05,5.678614252246916e-05
0.0,0.0,0.0,-1.3091033906675875e-05,5.668503581546247e-05
0.0,0.0,0.0,-1.3096429938741494e-05,5.6776258134050295e-05
0.0,0.0,0.0,-1.3053894690528978e-05,5.6694334489293396e-05
0.0,0.0,0.0,-1.2845734090660699e-05,5.676751607097685e-05
0.0,0.0,0.0,-1.3302289517014287e-05,5.6702545407461e-05
0.0,0.0,0.0,-1.3823120752931572e-05,5.675981810782105e-05
0.0,0.0,0.0,-1.3436466360872146e-05,5.615673944703303e-05
0.0,0.0,0.0,-1.3698491784452926e-05,5.600617078016512e-05
0.0,0.0,0.0,-1.353952848148765e-05,5.610764492303133e-05
0.0,0.0,0.0,-1.3370042324822862e-05,5.602412420557812e-05
0.0,0.0,0.0,-1.3476827007252723e-05,5.585767576121725e-05
0.0,0.0,0.0,-1.3387066246650647e-05,5.567810876527801e-05
0.0,0.0,0.0,-1.367440836474998e-05,5.555114694288932e-05
0.0,0.0,0.0,-1.3551903975894675e-05,5.534326919587329e-05
0.0,0.0,0.0,-1.3420682989817578e-05,5.561792568187229e-05
0.0,0.0,0.0,-1.343465282843681e-05,5.5348704336211085e-05
0.0,0.0,0.0,-1.359201269224286e-05,5.504833097802475e-05
0.0,0.0,0.0,-1.3614068848255556e-05,5.490341936820187e-05
0.0,0.0,0.0,-1.3567329915531445e-05,5.545203748624772e-05
0.0,0.0,0.0,-1.3769010365649592e-05,5.584588507190347e-05
0.0,0.0,0.0,-1.3760061847278848e-05,5.5201471695909277e-05
0.0,0.0,0.0,-1.3765594303549733e-05,5.513117866939865e-05
0.0,0.0,0.0,-1.3763122296950314e-05,5.487074304255657e-05
0.0,0.0,0.0,-1.376288946630666e-05,5.509588299901225e-05
0.0,0.0,0.0,-1.3765476069238503e-05,5.524778680410236e-05
0.0,0.0,0.0,-1.3760879483015742e-05,5.4962925787549466e-05
0.0,0.0,0.0,-1.3703343938686885e-05,5.5631859140703455e-05
0.0,0.0,0.0,-1.3505633432941977e-05,5.5806183809181675e-05
0.0,0.0,0.0,-1.3711926840187516e-05,5.570095163420774e-05
0.0,0.0,0.0,-1.3774373655905947e-05,5.6082320952555165e-05
0.0,0.0,0.0,-1.345328928437084e-05,5.60886473977007e-05
0.0,0.0,0.0,-1.3716308785660658e-05,5.666014476446435e-05
0.0,0.0,0.0,-1.3805581147607882e-05,5.622289245366119e-05
0.0,0.0,0.0,-1.3173741535865702e-05,5.592342495219782e-05
0.0,0.0,0.0,-1.3048867913312279e-05,5.6710647186264396e-05
0.0,0.0,0.0,-1.312753011006862e-05,5.6703669542912394e-05
0.0,0.0,0.0,-1.2819517905882094e-05,5.6756707635940984e-05
0.0,0.0,0.0,-1.321848321822472e-05,5.671445615007542e-05
0.0,0.0,0.0,-1.3483741895470303e-05,5.697046799468808e-05
0.0,0.0,0.0,-1.3379840311245061e-05,5.686705117113888e-05
0.0,0.0,0.0,-1.3064787708572112e-05,5.7108496548607945e-05
0.0,0.0,0.0,-1.3075942661089357e-05,5.7267348893219605e-05
0.0,0.0,0.0,-1.3321886399353389e-05,5.683067502104677e-05
0.0,0.0,0.0,-1.3023730389249977e-05,5.6772878451738507e-05
0.0,0.0,0.0,-1.3146576748113148e-05,5.6700351706240326e-05
0.0,0.0,0.0,-1.3199442037148401e-05,5.720597255276516e-05
0.0,0.0,0.0,-1.3456343367579393e-05,5.729862823500298e-05
0.0,0.0,0.0,-1.3536905498767737e-05,5.6515396863687783e-05
0.0,0.0,0.0,-1.3765112271357793e-05,5.6048109399853274e-05
0.0,0.0,0.0,-1.3661921911989339e-05,5.596518894890323e-05
0.0,0.0,0.0,-1.3337878044694662e-05,5.5734606576152146e-05
0.0,0.0,0.0,-1.3196659892855678e-05,5.5801807320676744e-05
0.0,0.0,0.0,-1.345852706435835e-05,5.597477502305992e-05
0.0,0.0,0.0,-1.3844510249327868e-05,5.5824082664912567e-05
0.0,0.0,0.0,-1.39985259011155e-05,5.589906868408434e-05
0.0,0.0,0.0,-1.3840199244441465e-05,5.545758540392853e-05
0.0,0.0,0.0,-1.3727039913646877e-05,5.496687299455516e-05
0.0,0.0,0.0,-1.4142760846880265e-05,5.4844254918862134e-05
0.0,0.0,0.0,-1.4372483747138176e-05,5.523961954168044e-05
0.0,0.0,0.0,-1.4489457498712e-05,5.493949356605299e-05
0.0,0.0,0.0,-1.4664789887319785e-05,5.509040056494996e-05
0.0,0.0,0.0,-1.431630334991496e-05,5.534630690817721e-05
0.0,0.0,0.0,-1.3966106052976102e-05,5.484185749082826e-05
0.0,0.0,0.0,-1.3964665413368493e-05,5.5467327911173925e-05
0.0,0.0,0.0,-1.411493394698482e-05,5.5289248848566785e-05
0.0,0.0,0.0,-1.4353659935295582e-05,5.523803338292055e-05
0.0,0.0,0.0,-1.4178345736581832e-05,5.520082049770281e-05
0.0,0.0,0.0,-1.4152588846627623e-05,5.5448814237024635e-05
0.0,0.0,0.0,-1.3642463272844907e-05,5.5356646043946967e-05
0.0,0.0,0.0,-1.385366795148002e-05,5.540273559745401e-05
0.0,0.0,0.0,-1.336061268375488e-05,5.556551695917733e-05
0.0,0.0,0.0,-1.3281618521432392e-05,5.587055784417316e-05
0.0,0.0,0.0,-1.3566653251473326e-05,5.668575977324508e-05
0.0,0.0,0.0,-1.3480127563525457e-05,5.680534377461299e-05
0.0,0.0,0.0,-1.3122436939738691e-05,5.613577377516776e-05
0.0,0.0,0.0,-1.3053288057562895e-05,5.598570351139642e-05
0.0,0.0,0.0,-1.3137837413523812e-05,5.613765461021103e-05
0.0,0.0,0.0,-1.294619323743973e-05,5.5987078667385504e-05
0.0,0.0,0.0,-1.282858556805877e-05,5.6303655583178625e-05
0.0,0.0,0.0,-1.2760149729729164e-05,5.662096737069078e-05
0.0,0.0,0.0,-1.313547636527801e-05,5.683398194378242e-05
0.0,0.0,0.0,-1.3048417713434901e-05,5.664331547450274e-05
0.0,0.0,0.0,-1.3135555491317064e-05,5.676908403984271e-05
0.0,0.0,0.0,-1.311417236138368e-05,5.633307955577038e-05
0.0,0.0,0.0,-1.3726111319556367e-05,5.614861220237799e-05
0.0,0.0,0.0,-1.3792210665997118e-05,5.6300967116840184e-05
0.0,0.0,0.0,-1.3168152690923307e-05,5.6189499446190894e-05
0.0,0.0,0.0,-1.3025318366999272e-05,5.5957105359993875e-05
0.0,0.0,0.0,-1.3416207366390154e-05,5.56131053599529e-05
0.0,0.0,0.0,-1.3157623470760882e-05,5.5768032325431705e-05
0.0,0.0,0.0,-1.3562877029471565e-05,5.598305506282486e-05
0.0,0.0,0.0,-1.3835308891430032e-05,5.556844553211704e-05
0.0,0.0,0.0,-1.3703196600545198e-05,5.562305523199029e-05
0.0,0.0,0.0,-1.3814272278978024e-05,5.528152178158052e-05
0.0,0.0,0.0,-1.412565052305581e-05,5.5264419643208385e-05
0.0,0.0,0.0,-1.4307393939816393e-05,5.480074105435051e-05
0.0,0.0,0.0,-1.3854997632734012e-05,5.474299905472435e-05
0.0,0.0,0.0,-1.3807280993205495e-05,5.471582699101418e-05
0.0,0.0,0.0,-1.3888516150473151e-05,5.470418182085268e-05
0.0,0.0,0.0,-1.4127454051049426e-05,5.534360752790235e-05
0.0,0.0,0.0,-1.4216565432434436e-05,5.5459495342802256e-05
0.0,0.0,0.0,-1.4444629414356314e-05,5.479820538312197e-05
0.0,0.0,0.0,-1.4312915482150856e-05,5.4635776905342937e-05
0.0,0.0,0.0,-1.4219218428479508e-05,5.490998591994867e-05
0.0,0.0,0.0,-1.441072890884243e-05,5.505019726115279e-05
0.0,0.0,0.0,-1.42831841003499e-05,5.546782267629169e-05
0.0,0.0,0.0,-1.3794432561553549e-05,5.5314903875114396e-05
0.0,0.0,0.0,-1.3671241504198406e-05,5.5526008509332314e-05
0.0,0.0,0.0,-1.353599873255007e-05,5.56297272851225e-05
0.0,0.0,0.0,-1.3683527868124656e-05,5.585525286733173e-05
0.0,0.0,0.0,-1.3832534932589624e-05,5.594925460172817e-05
0.0,0.0,0.0,-1.3662592209584545e-05,5.6158962252084166e-05
0.0,0.0,0.0,-1.3225009752204642e-05,5.597882409347221e-05
0.0,0.0,0.0,-1.3268222573969979e-05,5.6130644225049764e-05
0.0,0.0,0.0,-1.328404869127553e-05,5.655872882925905e-05
0.0,0.0,0.0,-1.3212226804171223e-05,5.685224095941521e-05
0.0,0.0,0.0,-1.3580017366621178e-05,5.663771662511863e-05
0.0,0.0,0.0,-1.3551443771575578e-05,5.705123840016313e-05
0.0,0.0,0.0,-1.3884954569221009e-05,5.680860340362415e-05
0.0,0.0,0.0,-1.3448024219542276e-05,5.67218339710962e-05
0.0,0.0,0.0,-1.3260817468108144e-05,5.6326083722524345e-05
0.0,0.0,0.0,-1.3047484571870882e-05,5.6405504437861964e-05
0.0,0.0,0.0,-1.3117956768837757e-05,5.682129631168209e-05
0.0,0.0,0.0,-1.3263538676255848e-05,5.6832122936611995e-05
0.0,0.0,0.0,-1.3261545973364264e-05,5.681164111592807e-05
0.0,0.0,0.0,-1.325614266534103e-05,5.615319969365373e-05
0.0,0.0,0.0,-1.3264598237583414e-05,5.6731238146312535e-05
0.0,0.0,0.0,-1.3394776033237576e-05,5.6777433201204985e-05
0.0,0.0,0.0,-1.3719509297516197e-05,5.589375723502599e-05
0.0,0.0,0.0,-1.3811933968099765e-05,5.533060902962461e-05
0.0,0.0,0.0,-1.371279540762771e-05,5.5548847740283236e-05
0.0,0.0,0.0,-1.3719887647312135e-05,5.547390173887834e-05
0.0,0.0,0.0,-1.3479854715114925e-05,5.522883293451741e-05
0.0,0.0,0.0,-1.3776342711935285e-05,5.529266854864545e-05
0.0,0.0,0.0,-1.3747281627729535e-05,5.540823985938914e-05
0.0,0.0,0.0,-1.3782376299786847e-05,5.501581108546816e-05
0.0,0.0,0.0,-1.3743613635597285e-05,5.504194996319711e-05
0.0,0.0,0.0,-1.3815918464388233e-05,5.473212877404876e-05
0.0,0.0,0.0,-1.4040794667380396e-05,5.474638601299375e-05
0.0,0.0,0.0,-1.4150908100418746e-05,5.532284558285028e-05
0.0,0.0,0.0,-1.4341841961140744e-05,5.51565462956205e-05
0.0,0.0,0.0,-1.423743105988251e-05,5.524902735487558e-05
0.0,0.0,0.0,-1.3996060260978993e-05,5.549218622036278e-05
0.0,0.0,0.0,-1.418391093466198e-05,5.5310414609266445e-05
0.0,0.0,0.0,-1.3787283933197614e-05,5.54504877072759e-05
0.0,0.0,0.0,-1.3787721400149167e-05,5.534724914468825e-05
0.0,0.0,0.0,-1.3748925084655639e-05,5.541823702515103e-05
0.0,0.0,0.0,-1.3770010809821542e-05,5.5587901442777365e-05
0.0,0.0,0.0,-1.3562534149968997e-05,5.5949887610040605e-05
0.0,0.0,0.0,-1.359753696306143e-05,5.606659397017211e-05
0.0,0.0,0.0,-1.3437935194815509e-05,5.5868116760393605e-05
0.0,0.0,0.0,-1.3380727978073992e-05,5.573705129791051e-05
0.0,0.0,0.0,-1.366185551887611e-05,5.586802581092343e-05
0.0,0.0,0.0,-1.3225272596173454e-05,5.6680801208131015e-05
0.0,0.0,0.0,-1.3004378160985652e-05,5.6954573665279895e-05
0.0,0.0,0.0,-1.284448262595106e-05,5.645040437229909e-05
0.0,0.0,0.0,-1.3118734386807773e-05,5.622838216368109e-05
0.0,0.0,0.0,-1.3068878615740687e-05,5.6123848480638117e-05
0.0,0.0,0.0,-1.3112579836160876e-05,5.6194978242274374e-05
0.0,0.0,0.0,-1.2989728929824196e-05,5.666423021466471e-05
0.0,0.0,0.0,-1.2867641089542303e-05,5.6402364862151444e-05
0.0,0.0,0.0,-1.3036160453339107e-05,5.639562732540071e-05
0.0,0.0,0.0,-1.3139090697222855e-05,5.6449785915901884e-05
0.0,0.0,0.0,-1.3053837392362766e-05,5.661844988935627e-05
0.0,0.0,0.0,-1.3122957170708105e-05,5.6155797210521996e-05
0.0,0.0,0.0,-1.3068476619082503e-05,5.59618893021252e-05
0.0,0.0,0.0,-1.3109762221574783e-05,5.583254824159667e-05
0.0,0.0,0.0,-1.3080280950816814e-05,5.5637861805735156e-05
0.0,0.0,0.0,-1.309929029957857e-05,5.579768549068831e-05
0.0,0.0,0.0,-1.3621223843074404e-05,5.5402691941708326e-05
0.0,0.0,0.0,-1.3321104233909864e-05,5.565591709455475e-05
0.0,0.0,0.0,-1.3221251720096916e-05,5.526254608412273e-05
0.0,0.0,0.0,-1.3548001334129367e-05,5.520817649085075e-05
0.0,0.0,0.0,-1.355662152491277e-05,5.5484328186139464e-05
0.0,0.0,0.0,-1.3856933037459385e-05,5.509770926437341e-05
0.0,0.0,0.0,-1.389580484101316e-05,5.469927782542072e-05
0.0,0.0,0.0,-1.416326813341584e-05,5.488854367285967e-05
0.0,0.0,0.0,-1.4236509741749614e-05,5.5117801821324974e-05
0.0,0.0,0.0,-1.4298862879513763e-05,5.4632124374620616e-05
0.0,0.0,0.0,-1.3917682736064307e-05,5.494579818332568e-05
0.0,0.0,0.0,-1.3918588592787273e-05,5.5452241213060915e-05
0.0,0.0,0.0,-1.4241369171941187e-05,5.5536613217554986e-05
0.0,0.0,0.0,-1.4416049452847801e-05,5.4725129302823916e-05
0.0,0.0,0.0,-1.4227254723664373e-05,5.470413452712819e-05
0.0,0.0,0.0,-1.3756088264926802e-05,5.463418347062543e-05
0.0,0.0,0.0,-1.377839180349838e-05,5.42755369679071e-05
0.0,0.0,0.0,-1.3743365343543701e-05,5.408454671851359e-05
0.0,0.0,0.0,-1.3787925126962364e-05,5.408237484516576e-05
0.0,0.0,0.0,-1.3736663277086336e-05,5.4462605476146564e-05
0.0,0.0,0.0,-1.3792136996926274e-05,5.467024675454013e-05
0.0,0.0,0.0,-1.3692078937310725e-05,5.476635124068707e-05
0.0,0.0,0.0,-1.35238051370834e-05,5.4641182941850275e-05
0.0,0.0,0.0,-1.3582417523139156e-05,5.4486532462760806e-05
0.0,0.0,0.0,-1.2672254342760425e-05,5.460340980789624e-05
0.0,0.0,0.0,-1.2494108887040056e-05,5.51066332263872e-05
0.0,0.0,0.0,-1.3253477845864836e-05,5.473243800224736e-05
0.0,0.0,0.0,-1.2947940376761835e-05,5.5252148740692064e-05
0.0,0.0,0.0,-1.2952711585967336e-05,5.545740350498818e-05
0.0,0.0,0.0,-1.2880121175840031e-05,5.5578970204805955e-05
0.0,0.0,0.0,-1.3212756130087655e-05,5.5565797083545476e-05
0.0,0.0,0.0,-1.277827141166199e-05,5.530520138563588e-05
0.0,0.0,0.0,-1.3224954273027834e-05,5.5459546274505556e-05
0.0,0.0,0.0,-1.3238142855698243e-05,5.5334796343231574e-05
0.0,0.0,0.0,-1.3054720511718187e-05,5.543362203752622e-05
0.0,0.0,0.0,-1.3136022062099073e-05,5.517654790310189e-05
0.0,0.0,0.0,-1.3384038538788445e-05,5.524075822904706e-05
0.0,0.0,0.0,-1.3824614143231884e-05,5.5384894949384034e-05
0.0,0.0,0.0,-1.3702539945370518e-05,5.598706047749147e-05
0.0,0.0,0.0,-1.3547419257520232e-05,5.6450211559422314e-05
0.0,0.0,0.0,-1.3044378647464328e-05,5.6075929023791105e-05
0.0,0.0,0.0,-1.3138992471795063e-05,5.593382229562849e-05
0.0,0.0,0.0,-1.3259982551971916e-05,5.5639666243223473e-05
0.0,0.0,0.0,-1.3775501429336146e-05,5.538946425076574e-05
0.0,0.0,0.0,-1.3750231119047385e-05,5.5389933550031856e-05
0.0,0.0,0.0,-1.3777821550320368e-05,5.531686474569142e-05
0.0,0.0,0.0,-1.3813144505547825e-05,5.51421835552901e-05
0.0,0.0,0.0,-1.4137740436126478e-05,5.5235410400200635e-05
0.0,0.0,0.0,-1.4329350051411893e-05,5.486607187776826e-05
0.0,0.0,0.0,-1.3820712410961278e-05,5.4994925449136645e-05
0.0,0.0,0.0,-1.3411953659669962e-05,5.573073940468021e-05
0.0,0.0,0.0,-1.3752596714766696e-05,5.541240534512326e-05
0.0,0.0,0.0,-1.3774311810266227e-05,5.53690770175308e-05
0.0,0.0,0.0,-1.3753095117863268e-05,5.5410248023690656e-05
0.0,0.0,0.0,-1.4040097084944136e-05,5.537156903301366e-05
0.0,0.0,0.0,-1.4123019354883581e-05,5.566273466683924e-05
0.0,0.0,0.0,-1.3837020560458768e-05,5.5496722779935226e-05
0.0,0.0,0.0,-1.3748108358413447e-05,5.581865116255358e-05
0.0,0.0,0.0,-1.4002746866026428e-05,5.61423585168086e-05
0.0,0.0,0.0,-1.3891840353608131e-05,5.599604992312379e-05
0.0,0.0,0.0,-1.3744304851570632e-05,5.611382584902458e-05
0.0,0.0,0.0,-1.3585210581368301e-05,5.65955851925537e-05
0.0,0.0,0.0,-1.3228519492258783e-05,5.713232167181559e-05
0.0,0.0,0.0,-1.3096112525090575e-05,5.7020231906790286e-05
0.0,0.0,0.0,-1.2933319339936133e-05,5.7104069128399715e-05
0.0,0.0,0.0,-1.319758484896738e-05,5.764038360211998e-05
0.0,0.0,0.0,-1.3627455700770952e-05,5.800258077215403e-05
0.0,0.0,0.0,-1.342887117061764e-05,5.755039455834776e-05
0.0,0.0,0.0,-1.3195566680224147e-05,5.7591405493440107e-05
0.0,0.0,0.0,-1.288333169213729e-05,5.745062298956327e-05
0.0,0.0,0.0,-1.2869951206084806e-05,5.735847298637964e-05
0.0,0.0,0.0,-1.2567697922349907e-05,5.753457662649453e-05
0.0,0.0,0.0,-1.2758276170643512e-05,5.7674591516843066e-05
0.0,0.0,0.0,-1.3190385288908146e-05,5.7800432841759175e-05
0.0,0.0,0.0,-1.3425945326162037e-05,5.7632048992672935e-05
0.0,0.0,0.0,-1.373322265862953e-05,5.7485893194098026e-05
0.0,0.0,0.0,-1.3455994121613912e-05,5.733322541345842e-05
0.0,0.0,0.0,-1.3379883057496045e-05,5.750847049057484e-05
0.0,0.0,0.0,-1.3159439731680322e-05,5.793968011857942e-05
0.0,0.0,0.0,-1.2746017091558315e-05,5.7616274716565385e-05
0.0,0.0,0.0,-1.3043386388744693e-05,5.722720015910454e-05
0.0,0.0,0.0,-1.3385960301093291e-05,5.7018482038984075e-05
0.0,0.0,0.0,-1.3184922863729298e-05,5.603633326245472e-05
0.0,0.0,0.0,-1.3538967323256657e-05,5.61486704100389e-05
0.0,0.0,0.0,-1.385551968269283e-05,5.6231277994811535e-05
0.0,0.0,0.0,-1.391020487062633e-05,5.601948578259908e-05
0.0,0.0,0.0,-1.3970791769679636e-05,5.563644299400039e-05
0.0,0.0,0.0,-1.3879793186788447e-05,5.599147334578447e-05
0.0,0.0,0.0,-1.3990780644235201e-05,5.6035398301901296e-05
0.0,0.0,0.0,-1.386861640639836e-05,5.589010106632486e-05
0.0,0.0,0.0,-1.416477061866317e-05,5.5723161494825035e-05
0.0,0.0,0.0,-1.4051532161829527e-05,5.571536166826263e-05
0.0,0.0,0.0,-1.3982790733280126e-05,5.6491917348466814e-05
0.0,0.0,0.0,-1.3885050066164695e-05,5.681077891495079e-05
0.0,0.0,0.0,-1.3971732187201269e-05,5.613016401184723e-05
0.0,0.0,0.0,-1.3781371308141388e-05,5.610816151602194e-05
0.0,0.0,0.0,-1.3739627320319414e-05,5.634988337988034e-05
0.0,0.0,0.0,-1.3792538084089756e-05,5.601730299531482e-05
0.0,0.0,0.0,-1.3731111721426714e-05,5.610772859654389e-05
0.0,0.0,0.0,-1.3798651707475074e-05,5.608955689240247e-05
0.0,0.0,0.0,-1.3727155419474002e-05,5.6481709179934114e-05
0.0,0.0,0.0,-1.369433812214993e-05,5.66816670470871e-05
0.0,0.0,0.0,-1.3119331015332136e-05,5.678116576746106e-05
0.0,0.0,0.0,-1.307392267335672e-05,5.668873927788809e-05
0.0,0.0,0.0,-1.3103257515467703e-05,5.681563925463706e-05
0.0,0.0,0.0,-1.3087196748529095e-05,5.72850949538406e-05
0.0,0.0,0.0,-1.3092504559608642e-05,5.750620402977802e-05
0.0,0.0,0.0,-1.309569415752776e-05,5.731914279749617e-05
0.0,0.0,0.0,-1.3086010767437983e-05,5.720854096580297e-05
0.0,0.0,0.0,-1.2845186574850231e-05,5.672324914485216e-05
0.0,0.0,0.0,-1.296060327149462e-05,5.677347508026287e-05
0.0,0.0,0.0,-1.3623949598695617e-05,5.670437167282216e-05
0.0,0.0,0.0,-1.3311395377968438e-05,5.697447340935469e-05
0.0,0.0,0.0,-1.305506066273665e-05,5.729389522457495e-05
0.0,0.0,0.0,-1.3122911695973016e-05,5.7405173720326275e-05
0.0,0.0,0.0,-1.3067149666312616e-05,5.70278316445183e-05
0.0,0.0,0.0,-1.3112584383634385e-05,5.6336855777772143e-05
0.0,0.0,0.0,-1.3416219189821277e-05,5.625155972666107e-05
0.0,0.0,0.0,-1.378574779664632e-05,5.621922537102364e-05
0.0,0.0,0.0,-1.3746239346801303e-05,5.682702249032445e-05
0.0,0.0,0.0,-1.363879709970206e-05,5.701437476091087e-05
0.0,0.0,0.0,-1.329564747720724e-05,5.612504173768684e-05
0.0,0.0,0.0,-1.3103479432174936e-05,5.600022632279433e-05
0.0,0.0,0.0,-1.3296530596562661e-05,5.6014221627265215e-05
0.0,0.0,0.0,-1.3738992493017577e-05,5.5589614930795506e-05
0.0,0.0,0.0,-1.3785788723907899e-05,5.5448424973292276e-05
0.0,0.0,0.0,-1.3743974704993889e-05,5.5336422519758344e-05
0.0,0.0,0.0,-1.3844662134943064e-05,5.543955194298178e-05
0.0,0.0,0.0,-1.4002688658365514e-05,5.534558658837341e-05
0.0,0.0,0.0,-1.3875011063646525e-05,5.5345139116980135e-05
0.0,0.0,0.0,-1.3974246940051671e-05,5.475413490785286e-05
0.0,0.0,0.0,-1.3880079677619506e-05,5.468966264743358e-05
0.0,0.0,0.0,-1.3667007806361653e-05,5.474284625961445e-05
0.0,0.0,0.0,-1.3842370208294597e-05,5.498639802681282e-05
0.0,0.0,0.0,-1.3424468306766357e-05,5.483504355652258e-05
0.0,0.0,0.0,-1.3704386219615117e-05,5.4633914260193706e-05
0.0,0.0,0.0,-1.3793928701488767e-05,5.5044183682184666e-05
0.0,0.0,0.0,-1.3733588275499642e-05,5.527329267351888e-05
0.0,0.0,0.0,-1.3325192412594333e-05,5.5671564041404054e-05
0.0,0.0,0.0,-1.3461303751682863e-05,5.5489766964456066e-05
0.0,0.0,0.0,-1.387418251397321e-05,5.559008786804043e-05
0.0,0.0,0.0,-1.36690841827658e-05,5.595884067588486e-05
0.0,0.0,0.0,-1.384352071909234e-05,5.6048647820716724e-05
0.0,0.0,0.0,-1.333556883764686e-05,5.57123203179799e-05
0.0,0.0,0.0,-1.313078792009037e-05,5.553333176067099e-05
0.0,0.0,0.0,-1.3221221706771757e-05,5.5913009418873116e-05
0.0,0.0,0.0,-1.3303633750183508e-05,5.6933535233838484e-05
0.0,0.0,0.0,-1.3076610230200458e-05,5.766596950707026e-05
0.0,0.0,0.0,-1.3101877812005114e-05,5.695569416275248e-05
0.0,0.0,0.0,-1.3087836123304442e-05,5.649214654113166e-05
0.0,0.0,0.0,-1.3092133485770319e-05,5.609464642475359e-05
0.0,0.0,0.0,-1.3096185284666717e-05,5.6030308769550174e-05
0.0,0.0,0.0,-1.3170170859666541e-05,5.617638089461252e-05
0.0,0.0,0.0,-1.3490150195138995e-05,5.6421838962705806e-05
0.0,0.0,0.0,-1.368141602142714e-05,5.6752691307337955e-05
0.0,0.0,0.0,-1.3528915587812662e-05,5.666114157065749e-05
0.0,0.0,0.0,-1.3645284525409807e-05,5.6404489441774786e-05
0.0,0.0,0.0,-1.3498391126631759e-05,5.6085049436660483e-05
0.0,0.0,0.0,-1.3042064892943017e-05,5.634582703351043e-05
0.0,0.0,0.0,-1.3135741028236225e-05,5.612818495137617e-05
0.0,0.0,0.0,-1.3342118108994327e-05,5.658078225678764e-05
0.0,0.0,0.0,-1.3500483873940539e-05,5.686016447725706e-05
0.0,0.0,0.0,-1.3101662261760794e-05,5.583091115113348e-05
0.0,0.0,0.0,-1.361763588647591e-05,5.596217670245096e-05
0.0,0.0,0.0,-1.4059824025025591e-05,5.61125525564421e-05
0.0,0.0,0.0,-1.384815823257668e-05,5.601558223133907e-05
0.0,0.0,0.0,-1.397838605043944e-05,5.587967098108493e-05
0.0,0.0,0.0,-1.4126164387562312e-05,5.545528983930126e-05
0.0,0.0,0.0,-1.3876639059162699e-05,5.542238068301231e-05
0.0,0.0,0.0,-1.3764239156444091e-05,5.497962047229521e-05
0.0,0.0,0.0,-1.3765346011496149e-05,5.472010889207013e-05
0.0,0.0,0.0,-1.375997544528218e-05,5.505772787728347e-05
0.0,0.0,0.0,-1.3928444786870386e-05,5.54008329345379e-05
0.0,0.0,0.0,-1.3945094906375743e-05,5.5679494835203514e-05
0.0,0.0,0.0,-1.3772531929134857e-05,5.5787571909604594e-05
0.0,0.0,0.0,-1.375369174638763e-05,5.540026177186519e-05
0.0,0.0,0.0,-1.377432909066556e-05,5.537996912607923e-05
0.0,0.0,0.0,-1.3752479389950167e-05,5.5507080105599016e-05
0.0,0.0,0.0,-1.3775014849670697e-05,5.5699983931845054e-05
0.0,0.0,0.0,-1.3752264749200549e-05,5.57497660338413e-05
0.0,0.0,0.0,-1.3774812941846903e-05,5.577860792982392e-05
0.0,0.0,0.0,-1.375282954541035e-05,5.605618571280502e-05
0.0,0.0,0.0,-1.372076258121524e-05,5.60651533305645e-05
0.0,0.0,0.0,-1.3407685401034541e-05,5.605984551948495e-05
0.0,0.0,0.0,-1.3045538253209088e-05,5.609388608718291e-05
0.0,0.0,0.0,-1.2525241800176445e-05,5.638091897708364e-05
0.0,0.0,0.0,-1.2956583304912783e-05,5.672189945471473e-05
0.0,0.0,0.0,-1.320607952948194e-05,5.703108399757184e-05
0.0,0.0,0.0,-1.2998032616451383e-05,5.709927063435316e-05
0.0,0.0,0.0,-1.316888301516883e-05,5.6778673751978204e-05
0.0,0.0,0.0,-1.2775987670465838e-05,5.697244341718033e-05
0.0,0.0,0.0,-1.3017233868595213e-05,5.662566763930954e-05
0.0,0.0,0.0,-1.3110864529153332e-05,5.630172381643206e-05
0.0,0.0,0.0,-1.307244019699283e-05,5.692463309969753e-05
0.0,0.0,0.0,-1.2900004549010191e-05,5.704407158191316e-05
0.0,0.0,0.0,-1.2920099834445864e-05,5.708829849027097e-05
0.0,0.0,0.0,-1.3141990166332107e-05,5.686235090252012e-05
0.0,0.0,0.0,-1.3048351320321672e-05,5.637111826217733e-05
0.0,0.0,0.0,-1.3300694263307378e-05,5.621798482025042e-05
0.0,0.0,0.0,-1.3399509953160305e-05,5.625183985102922e-05
0.0,0.0,0.0,-1.3303447303769644e-05,5.664672426064499e-05
0.0,0.0,0.0,-1.3212001249485184e-05,5.671072722179815e-05
0.0,0.0,0.0,-1.3437517736747395e-05,5.563138620345853e-05
0.0,0.0,0.0,-1.3304033018357586e-05,5.536599564948119e-05
0.0,0.0,0.0,-1.3215105354902335e-05,5.5415192036889493e-05
0.0,0.0,0.0,-1.3399960153037682e-05,5.5269334552576765e-05
0.0,0.0,0.0,-1.353527022729395e-05,5.5098313168855384e-05
0.0,0.0,0.0,-1.372455881210044e-05,5.501397390617058e-05
0.0,0.0,0.0,-1.3858640159014612e-05,5.5028085625963286e-05
0.0,0.0,0.0,-1.3993400898471009e-05,5.46602277609054e-05
0.0,0.0,0.0,-1.3837757251167204e-05,5.442163092084229e-05
0.0,0.0,0.0,-1.3703815966437105e-05,5.438071457319893e-05
0.0,0.0,0.0,-1.3810691598337144e-05,5.475314173963852e-05
0.0,0.0,0.0,-1.3727904843108263e-05,5.531262286240235e-05
0.0,0.0,0.0,-1.3789416698273271e-05,5.488242095452733e-05
0.0,0.0,0.0,-1.3470023986883461e-05,5.4580552387051284e-05
0.0,0.0,0.0,-1.3665686310559977e-05,5.4834130423842e-05
0.0,0.0,0.0,-1.3571069757745136e-05,5.462444823933765e-05
0.0,0.0,0.0,-1.3584788575826678e-05,5.503905049408786e-05
0.0,0.0,0.0,-1.386815529258456e-05,5.478963066707365e-05
0.0,0.0,0.0,-1.3450761798594613e-05,5.538502227864228e-05
0.0,0.0,0.0,-1.3269836017570924e-05,5.579811113420874e-05
0.0,0.0,0.0,-1.2826773854612838e-05,5.586264524026774e-05
0.0,0.0,0.0,-1.2794067515642382e-05,5.613505345536396e-05
0.0,0.0,0.0,-1.2907569725939538e-05,5.599695214186795e-05
0.0,0.0,0.0,-1.2782558769686148e-05,5.645852070301771e-05
0.0,0.0,0.0,-1.2548399354272988e-05,5.6693173974053934e-05
0.0,0.0,0.0,-1.2780878023477271e-05,5.736338789574802e-05
0.0,0.0,0.0,-1.2602234164660331e-05,5.748447438236326e-05
0.0,0.0,0.0,-1.2562676602101419e-05,5.678820889443159e-05
0.0,0.0,0.0,-1.2857462934334762e-05,5.6567845604149625e-05
0.0,0.0,0.0,-1.3195569408708252e-05,5.6557451898697764e-05
0.0,0.0,0.0,-1.3228550415078644e-05,5.667163713951595e-05
0.0,0.0,0.0,-1.288115163333714e-05,5.6785127526381984e-05
0.0,0.0,0.0,-1.296658501814818e-05,5.668950325343758e-05
0.0,0.0,0.0,-1.301227166550234e-05,5.683259223587811e-05
0.0,0.0,0.0,-1.3627886801259592e-05,5.6958262575790286e-05
0.0,0.0,0.0,-1.3746163858741056e-05,5.6811619288055226e-05
0.0,0.0,0.0,-1.2806889571947977e-05,5.666892320732586e-05
0.0,0.0,0.0,-1.303122189710848e-05,5.674162821378559e-05
0.0,0.0,0.0,-1.3150334780220874e-05,5.610595326288603e-05
0.0,0.0,0.0,-1.3611716894956771e-05,5.60199077881407e-05
0.0,0.0,0.0,-1.3620516256196424e-05,5.610076914308593e-05
0.0,0.0,0.0,-1.3274156117404345e-05,5.5493434047093615e-05
0.0,0.0,0.0,-1.3559279068431351e-05,5.561040234169923e-05
0.0,0.0,0.0,-1.3561870218836702e-05,5.553878509090282e-05
0.0,0.0,0.0,-1.4117137652647216e-05,5.508389222086407e-05
0.0,0.0,0.0,-1.4249539162847213e-05,5.530983253265731e-05
0.0,0.0,0.0,-1.43009337989497e-05,5.538936602533795e-05
0.0,0.0,0.0,-1.3818542356602848e-05,5.5386219173669815e-05
0.0,0.0,0.0,-1.3808957191940863e-05,5.539828271139413e-05
0.0,0.0,0.0,-1.3913326256442815e-05,5.537904871744104e-05
0.0,0.0,0.0,-1.4125859706837218e-05,5.523370418814011e-05
0.0,0.0,0.0,-1.3925590792496223e-05,5.535369200515561e-05
0.0,0.0,0.0,-1.3766038136964198e-05,5.6046268582576886e-05
0.0,0.0,0.0,-1.3769764336757362e-05,5.595703623839654e-05
0.0,0.0,0.0,-1.3750425750913564e-05,5.5430427892133594e-05
0.0,0.0,0.0,-1.3782600944978185e-05,5.523670552065596e-05
0.0,0.0,0.0,-1.3740152098762337e-05,5.531219721888192e-05
0.0,0.0,0.0,-1.3790528100798838e-05,5.57513048988767e-05
0.0,0.0,0.0,-1.3734357708017342e-05,5.6018736358964816e-05
0.0,0.0,0.0,-1.3794398910249583e-05,5.586084080277942e-05
0.0,0.0,0.0,-1.360458554700017e-05,5.629434599541128e-05
0.0,0.0,0.0,-1.3180915630073287e-05,5.6177537771873176e-05
0.0,0.0,0.0,-1.3012834642722737e-05,5.6354052503593266e-05
0.0,0.0,0.0,-1.3162648428988177e-05,5.677083390764892e-05
0.0,0.0,0.0,-1.3009243048145436e-05,5.672262705047615e-05
0.0,0.0,0.0,-1.2851871360908262e-05,5.705311559722759e-05
0.0,0.0,0.0,-1.2962692380824592e-05,5.6795546697685495e-05
0.0,0.0,0.0,-1.2924499969813041e-05,5.6956199841806665e-05
0.0,0.0,0.0,-1.2629070624825545e-05,5.7417295465711504e-05
0.0,0.0,0.0,-1.3115636647853535e-05,5.685968790203333e-05
0.0,0.0,0.0,-1.3285463865031488e-05,5.669814709108323e-05
0.0,0.0,0.0,-1.3727090845350176e-05,5.676379078067839e-05
0.0,0.0,0.0,-1.3516693798010238e-05,5.625941776088439e-05
0.0,0.0,0.0,-1.3206702533352654e-05,5.625552876153961e-05
0.0,0.0,0.0,-1.3492990547092631e-05,5.622786557069048e-05
0.0,0.0,0.0,-1.3788059732178226e-05,5.602126111625694e-05
0.0,0.0,0.0,-1.3570262126449961e-05,5.609348590951413e-05
0.0,0.0,0.0,-1.3082189980195835e-05,5.586723636952229e-05
0.0,0.0,0.0,-1.2919424989377148e-05,5.5898475693538785e-05
0.0,0.0,0.0,-1.3231340744823683e-05,5.6501408835174516e-05
0.0,0.0,0.0,-1.3580581253336277e-05,5.665091157425195e-05
0.0,0.0,0.0,-1.3738457710132934e-05,5.595618858933449e-05
0.0,0.0,0.0,-1.355838594463421e-05,5.559503551921807e-05
0.0,0.0,0.0,-1.3297849363880232e-05,5.541745849768631e-05
0.0,0.0,0.0,-1.3744829630013555e-05,5.536391108762473e-05
0.0,0.0,0.0,-1.3774377293884754e-05,5.5245316616492346e-05
0.0,0.0,0.0,-1.3759552530245855e-05,5.48878415429499e-05
0.0,0.0,0.0,-1.3762349226453807e-05,5.538832556339912e-05
0.0,0.0,0.0,-1.3769149518338963e-05,5.5644854001002386e-05
0.0,0.0,0.0,-1.3840009160048794e-05,5.5099386372603476e-05
0.0,0.0,0.0,-1.4311666745925322e-05,5.50140866835136e-05
0.0,0.0,0.0,-1.3909437257098034e-05,5.513328505912796e-05
0.0,0.0,0.0,-1.3955217582406476e-05,5.5610067647648975e-05
0.0,0.0,0.0,-1.3930194654676598e-05,5.553784649237059e-05
0.0,0.0,0.0,-1.3627645785163622e-05,5.5265609262278304e-05
0.0,0.0,0.0,-1.3872580893803388e-05,5.549396155402064e-05
0.0,0.0,0.0,-1.367847653455101e-05,5.53055178897921e-05
0.0,0.0,0.0,-1.382804930472048e-05,5.5947071814443916e-05
0.0,0.0,0.0,-1.3717177353100851e-05,5.583098754868843e-05
0.0,0.0,0.0,-1.3794723599858116e-05,5.547053297050297e-05
0.0,0.0,0.0,-1.3745567230216693e-05,5.582603262155317e-05
0.0,0.0,0.0,-1.3770846635452472e-05,5.6084096286213025e-05
0.0,0.0,0.0,-1.3765339645033237e-05,5.604762554867193e-05
0.0,0.0,0.0,-1.3573994692706037e-05,5.606839113170281e-05
0.0,0.0,0.0,-1.3264320841699373e-05,5.623124889098108e-05
0.0,0.0,0.0,-1.3234999642008916e-05,5.655679706251249e-05
0.0,0.0,0.0,-1.3300349564815406e-05,5.748401963501237e-05
0.0,0.0,0.0,-1.3347801541385707e-05,5.7699522585608065e-05
0.0,0.0,0.0,-1.364706167805707e-05,5.665572825819254e-05
0.0,0.0,0.0,-1.3307284461916424e-05,5.624006735160947e-05
0.0,0.0,0.0,-1.3109705832903273e-05,5.611333472188562e-05
0.0,0.0,0.0,-1.3075398783257697e-05,5.6108499848051e-05
0.0,0.0,0.0,-1.319308557867771e-05,5.6509477872168645e-05
0.0,0.0,0.0,-1.331716248387238e-05,5.661018076352775e-05
0.0,0.0,0.0,-1.3148938705853652e-05,5.65305890631862e-05
0.0,0.0,0.0,-1.3097344890411478e-05,5.6536759075243026e-05
0.0,0.0,0.0,-1.3521011169359554e-05,5.616086127702147e-05
0.0,0.0,0.0,-1.3991623745823745e-05,5.564047387451865e-05
0.0,0.0,0.0,-1.38646873892867e-05,5.58400024601724e-05
0.0,0.0,0.0,-1.3680689335160423e-05,5.6254819355672225e-05
0.0,0.0,0.0,-1.3543023669626564e-05,5.622817843686789e-05
0.0,0.0,0.0,-1.361163413093891e-05,5.5371845519402996e-05
0.0,0.0,0.0,-1.3608333574666176e-05,5.5690550652798265e-05
0.0,0.0,0.0,-1.3307014341989998e-05,5.4716587328584865e-05
0.0,0.0,0.0,-1.3766343727183994e-05,5.448725642054342e-05
0.0,0.0,0.0,-1.3721651157538872e-05,5.510400660568848e-05
0.0,0.0,0.0,-1.378921115247067e-05,5.472497650771402e-05
0.0,0.0,0.0,-1.3752180166193284e-05,5.4789339628769085e-05
0.0,0.0,0.0,-1.3965188372822013e-05,5.4860189266037196e-05
0.0,0.0,0.0,-1.3932918591308407e-05,5.5120854085544124e-05
0.0,0.0,0.0,-1.3721842151426245e-05,5.4818185162730515e-05
0.0,0.0,0.0,-1.3807568393531255e-05,5.475681973621249e-05
0.0,0.0,0.0,-1.387817337672459e-05,5.4688167438143864e-05
0.0,0.0,0.0,-1.3996779671288095e-05,5.53385543753393e-05
0.0,0.0,0.0,-1.3858811144018546e-05,5.5620261264266446e-05
0.0,0.0,0.0,-1.4262889635574538e-05,5.50918593944516e-05
0.0,0.0,0.0,-1.4158090380078647e-05,5.502400381374173e-05
0.0,0.0,0.0,-1.3827390830556396e-05,5.507902824319899e-05
0.0,0.0,0.0,-1.3706821846426465e-05,5.5131211411207914e-05
0.0,0.0,0.0,-1.3643437341670506e-05,5.555598181672394e-05
0.0,0.0,0.0,-1.3092992958263494e-05,5.594913091044873e-05
0.0,0.0,0.0,-1.3155296983313747e-05,5.5845441238489e-05
0.0,0.0,0.0,-1.3453560313791968e-05,5.598794450634159e-05
0.0,0.0,0.0,-1.3796873645333108e-05,5.6121574743883684e-05
0.0,0.0,0.0,-1.4009408914716914e-05,5.601400334853679e-05
0.0,0.0,0.0,-1.3525829672289547e-05,5.614094698103145e-05
0.0,0.0,0.0,-1.3346904779609758e-05,5.662201510858722e-05
0.0,0.0,0.0,-1.378073102387134e-05,5.682288610842079e-05
0.0,0.0,0.0,-1.320000046689529e-05,5.666204015142284e-05
0.0,0.0,0.0,-1.3553315511671826e-05,5.678740126313642e-05
0.0,0.0,0.0,-1.3895774827688001e-05,5.669326856150292e-05
0.0,0.0,0.0,-1.3405189747572877e-05,5.627095379168168e-05
0.0,0.0,0.0,-1.3497344298230018e-05,5.598981078946963e-05
0.0,0.0,0.0,-1.3592284631158691e-05,5.656158100464381e-05
0.0,0.0,0.0,-1.3408974155026954e-05,5.673821215168573e-05
0.0,0.0,0.0,-1.3199978639022447e-05,5.6923301599454135e-05
0.0,0.0,0.0,-1.3519772437575739e-05,5.690889884135686e-05
0.0,0.0,0.0,-1.3353883332456462e-05,5.6327196944039315e-05
0.0,0.0,0.0,-1.3486157513398211e-05,5.608874562312849e-05
0.0,0.0,0.0,-1.3224211215856485e-05,5.603348108706996e-05
0.0,0.0,0.0,-1.342067389487056e-05,5.653678090311587e-05
0.0,0.0,0.0,-1.3739094356424175e-05,5.648136357194744e-05
0.0,0.0,0.0,-1.3779162145510782e-05,5.565313404076733e-05
0.0,0.0,0.0,-1.3755831787420902e-05,5.534826050279662e-05
0.0,0.0,0.0,-1.3764926734438632e-05,5.521636558114551e-05
0.0,0.0,0.0,-1.3672048225998878e-05,5.480988693307154e-05
0.0,0.0,0.0,-1.3523166671802755e-05,5.5041371524566785e-05
0.0,0.0,0.0,-1.373770646750927e-05,5.513910946319811e-05
0.0,0.0,0.0,-1.3781171219306998e-05,5.5293428886216134e-05
0.0,0.0,0.0,-1.3753234270552639e-05,5.5057382269296795e-05
0.0,0.0,0.0,-1.3810611562803388e-05,5.470393807627261e-05
0.0,0.0,0.0,-1.4000728697283193e-05,5.473060446092859e-05
0.0,0.0,0.0,-1.3573147953138687e-05,5.479476385517046e-05
0.0,0.0,0.0,-1.3932585716247559e-05,5.590106957242824e-05
0.0,0.0,0.0,-1.423582489223918e-05,5.5623891967115924e-05
0.0,0.0,0.0,-1.3713237422052771e-05,5.519359547179192e-05
0.0,0.0,0.0,-1.3811722965328954e-05,5.581914592767134e-05
0.0,0.0,0.0,-1.3474882507580332e-05,5.588300700765103e-05
0.0,0.0,0.0,-1.3662481251230929e-05,5.592473826254718e-05
0.0,0.0,0.0,-1.380682715534931e-05,5.561487705563195e-05
0.0,0.0,0.0,-1.3944372767582536e-05,5.6034034059848636e-05
0.0,0.0,0.0,-1.3949147614766844e-05,5.602128658210859e-05
0.0,0.0,0.0,-1.368870107398834e-05,5.608529318124056e-05
0.0,0.0,0.0,-1.3638559721584897e-05,5.6435201258864254e-05
0.0,0.0,0.0,-1.3177892469684593e-05,5.6752603995846584e-05
0.0,0.0,0.0,-1.3313790077518206e-05,5.6727621995378286e-05
0.0,0.0,0.0,-1.3229476280685049e-05,5.672663246514276e-05
0.0,0.0,0.0,-1.3421254152490292e-05,5.749360207119025e-05
0.0,0.0,0.0,-1.3733886589761823e-05,5.796250479761511e-05
0.0,0.0,0.0,-1.3660302101925481e-05,5.7205230405088514e-05
0.0,0.0,0.0,-1.3300507816893514e-05,5.6575387134216726e-05
0.0,0.0,0.0,-1.3217476407589857e-05,5.645308556267992e-05
0.0,0.0,0.0,-1.339866594207706e-05,5.643731128657237e-05
0.0,0.0,0.0,-1.3535574908019044e-05,5.659891394316219e-05
0.0,0.0,0.0,-1.3576262062997557e-05,5.6143264373531565e-05
0.0,0.0,0.0,-1.3300301361596212e-05,5.630735176964663e-05
0.0,0.0,0.0,-1.3641248187923338e-05,5.60546359338332e-05
0.0,0.0,0.0,-1.3863654203305487e-05,5.5723099649185315e-05
0.0,0.0,0.0,-1.3683699762623291e-05,5.572410736931488e-05
0.0,0.0,0.0,-1.3825681890011765e-05,5.573127782554366e-05
0.0,0.0,0.0,-1.3717420188186225e-05,5.571817382588051e-05
0.0,0.0,0.0,-1.3795980521535967e-05,5.5735268688295037e-05
0.0,0.0,0.0,-1.4019844456925057e-05,5.571585279540159e-05
0.0,0.0,0.0,-1.4147066394798458e-05,5.547030741581693e-05
0.0,0.0,0.0,-1.4321830349217635e-05,5.4835498303873464e-05
0.0,0.0,0.0,-1.3996795132698026e-05,5.469435564009473e-05
0.0,0.0,0.0,-1.3673229659616482e-05,5.4739266488468274e-05
0.0,0.0,0.0,-1.4277523405326065e-05,5.447845614980906e-05
0.0,0.0,0.0,-1.4217571333574597e-05,5.416364729171619e-05
0.0,0.0,0.0,-1.4076181287236977e-05,5.443910777103156e-05
0.0,0.0,0.0,-1.3936166396888439e-05,5.475882790051401e-05
0.0,0.0,0.0,-1.3901278180128429e-05,5.468517338158563e-05
0.0,0.0,0.0,-1.3980621588416398e-05,5.491721094585955e-05
0.0,0.0,0.0,-1.3869145732314792e-05,5.5195192544488236e-05
0.0,0.0,0.0,-1.4002132957102731e-05,5.600279109785333e-05
0.0,0.0,0.0,-1.3856687473889906e-05,5.629608494928107e-05
0.0,0.0,0.0,-1.4006976016389672e-05,5.563373997574672e-05
0.0,0.0,0.0,-1.3624180610349867e-05,5.53680001758039e-05
0.0,0.0,0.0,-1.3459432011586614e-05,5.540965867112391e-05
0.0,0.0,0.0,-1.3496961400960572e-05,5.546907414100133e-05
0.0,0.0,0.0,-1.3766948541160673e-05,5.580700235441327e-05
0.0,0.0,0.0,-1.3762147318630014e-05,5.6042928918031976e-05
0.0,0.0,0.0,-1.3763267816102598e-05,5.6077828048728406e-05
0.0,0.0,0.0,-1.3659508113050833e-05,5.61009110242594e-05
0.0,0.0,0.0,-1.3152144674677402e-05,5.641979441861622e-05
0.0,0.0,0.0,-1.310751849814551e-05,5.677865192410536e-05
0.0,0.0,0.0,-1.372462065774016e-05,5.730029079131782e-05
0.0,0.0,0.0,-1.3800221495330334e-05,5.6869062973419204e-05
0.0,0.0,0.0,-1.3729368220083416e-05,5.6618417147547007e-05
0.0,0.0,0.0,-1.37956894832314e-05,5.710480400011875e-05
0.0,0.0,0.0,-1.3201983165345155e-05,5.676280852640048e-05
0.0,0.0,0.0,-1.3306431355886161e-05,5.6729310017544776e-05
0.0,0.0,0.0,-1.3735287211602554e-05,5.62500863452442e-05
0.0,0.0,0.0,-1.3742224837187678e-05,5.6465709349140525e-05
0.0,0.0,0.0,-1.3554392353398725e-05,5.661478644469753e-05
0.0,0.0,0.0,-1.3186327123548836e-05,5.607393177342601e-05
0.0,0.0,0.0,-1.309430444962345e-05,5.613672692561522e-05
0.0,0.0,0.0,-1.3286303328641225e-05,5.599964060820639e-05
0.0,0.0,0.0,-1.3613435839943122e-05,5.6111828598659486e-05
0.0,0.0,0.0,-1.3601776117866393e-05,5.5851927754702047e-05
0.0,0.0,0.0,-1.3571897397923749e-05,5.575146496994421e-05
0.0,0.0,0.0,-1.378150591335725e-05,5.615452755591832e-05
0.0,0.0,0.0,-1.3745649084739853e-05,5.632361353491433e-05
0.0,0.0,0.0,-1.3781365851173177e-05,5.5742213589837775e-05
0.0,0.0,0.0,-1.3746497643296607e-05,5.547298860619776e-05
0.0,0.0,0.0,-1.377991520712385e-05,5.520605554920621e-05
0.0,0.0,0.0,-1.3844163731846493e-05,5.533158400794491e-05
0.0,0.0,0.0,-1.4009497135702986e-05,5.5274464102694765e-05
0.0,0.0,0.0,-1.3863520507584326e-05,5.4861680837348104e-05
0.0,0.0,0.0,-1.405281091138022e-05,5.528407928068191e-05
0.0,0.0,0.0,-1.4138436199573334e-05,5.5116324801929295e-05
0.0,0.0,0.0,-1.4109325093158986e-05,5.5047676141839474e-05
0.0,0.0,0.0,-1.43946572279674e-05,5.5393524235114455e-05
0.0,0.0,0.0,-1.4146053217700683e-05,5.543363295146264e-05
0.0,0.0,0.0,-1.4059039131097961e-05,5.597363997367211e-05
0.0,0.0,0.0,-1.4420767001865897e-05,5.585228791460395e-05
0.0,0.0,0.0,-1.4170906979416031e-05,5.56167506147176e-05
0.0,0.0,0.0,-1.4050810932531022e-05,5.6085147662088275e-05
0.0,0.0,0.0,-1.4140237908577546e-05,5.601738303084858e-05
0.0,0.0,0.0,-1.4065232790017035e-05,5.609822255792096e-05
0.0,0.0,0.0,-1.3893436516809743e-05,5.603213867289014e-05
0.0,0.0,0.0,-1.3493088772520423e-05,5.6084700190695e-05
0.0,0.0,0.0,-1.3657873751071747e-05,5.6469838455086574e-05
0.0,0.0,0.0,-1.3768439202976879e-05,5.678066736436449e-05
0.0,0.0,0.0,-1.3566869711212348e-05,5.707912350771949e-05
0.0,0.0,0.0,-1.3603194020106457e-05,5.7092358474619687e-05
0.0,0.0,0.0,-1.377489297738066e-05,5.668037192663178e-05
0.0,0.0,0.0,-1.3436630979413167e-05,5.6771605159156024e-05
0.0,0.0,0.0,-1.309491472056834e-05,5.760019121225923e-05
0.0,0.0,0.0,-1.33675484903506e-05,5.7920668041333556e-05
0.0,0.0,0.0,-1.3625231986225117e-05,5.6898821640061215e-05
0.0,0.0,0.0,-1.3330169167602435e-05,5.713527571060695e-05
0.0,0.0,0.0,-1.3086637409287505e-05,5.723148206016049e-05
0.0,0.0,0.0,-1.328934831690276e-05,5.653050175169483e-05
0.0,0.0,0.0,-1.3720667993766256e-05,5.6200729886768386e-05
0.0,0.0,0.0,-1.3726525139645673e-05,5.639694063575007e-05
0.0,0.0,0.0,-1.3484981536748819e-05,5.6649918406037614e-05
0.0,0.0,0.0,-1.368751600239193e-05,5.60759253858123e-05
0.0,0.0,0.0,-1.3479571862262674e-05,5.605397745966911e-05
0.0,0.0,0.0,-1.3384068552113604e-05,5.603201861958951e-05
0.0,0.0,0.0,-1.3486083844327368e-05,5.574529495788738e-05
0.0,0.0,0.0,-1.369112214888446e-05,5.539412813959643e-05
0.0,0.0,0.0,-1.3249846233520657e-05,5.596417759079486e-05
0.0,0.0,0.0,-1.4066413314139936e-05,5.558846169151366e-05
0.0,0.0,0.0,-1.4428856957238168e-05,5.525040614884347e-05
0.0,0.0,0.0,-1.410622371622594e-05,5.550405694521032e-05
0.0,0.0,0.0,-1.417852945451159e-05,5.481023254105821e-05
0.0,0.0,0.0,-1.3756237422057893e-05,5.473389683174901e-05
0.0,0.0,0.0,-1.4090845979808364e-05,5.471203621709719e-05
0.0,0.0,0.0,-1.4002307580085471e-05,5.471893018693663e-05
0.0,0.0,0.0,-1.46104721352458e-05,5.512830466614105e-05
0.0,0.0,0.0,-1.3923976439400576e-05,5.560118006542325e-05
0.0,0.0,0.0,-1.4009126061864663e-05,5.5545107898069546e-05
0.0,0.0,0.0,-1.3903714716434479e-05,5.52074852748774e-05
0.0,0.0,0.0,-1.375955525872996e-05,5.522430001292378e-05
0.0,0.0,0.0,-1.3489642697095405e-05,5.5974480346776545e-05
0.0,0.0,0.0,-1.305675868934486e-05,5.618501018034294e-05
0.0,0.0,0.0,-1.33955063574831e-05,5.5660540965618566e-05
0.0,0.0,0.0,-1.3688747458218131e-05,5.579858770943247e-05
0.0,0.0,0.0,-1.3842878615832888e-05,5.55447768419981e-05
0.0,0.0,0.0,-1.3586622117145453e-05,5.57656712771859e-05
0.0,0.0,0.0,-1.3613069313578308e-05,5.609019353869371e-05
0.0,0.0,0.0,-1.3645952094520908e-05,5.618694922304712e-05
0.0,0.0,0.0,-1.3744891475653276e-05,5.663794945576228e-05
0.0,0.0,0.0,-1.3050121197011322e-05,5.650645834975876e-05
0.0,0.0,0.0,-1.3133048014424276e-05,5.669585516443476e-05
0.0,0.0,0.0,-1.3117610251356382e-05,5.706882802769542e-05
0.0,0.0,0.0,-1.370040172332665e-05,5.6766999477986246e-05
0.0,0.0,0.0,-1.3503897207556292e-05,5.70144438825082e-05
0.0,0.0,0.0,-1.3651902008859906e-05,5.682921619154513e-05
0.0,0.0,0.0,-1.3580564882431645e-05,5.692691047443077e-05
0.0,0.0,0.0,-1.3578491234511603e-05,5.6911005231086165e-05
0.0,0.0,0.0,-1.363822229905054e-05,5.609731306321919e-05
0.0,0.0,0.0,-1.3534684512706008e-05,5.6103348470060155e-05
0.0,0.0,0.0,-1.3903913895774167e-05,5.60286789550446e-05
0.0,0.0,0.0,-1.3650254913954996e-05,5.653357584378682e-05
0.0,0.0,0.0,-1.3853479686076753e-05,5.6331446103286e-05
0.0,0.0,0.0,-1.3694263543584384e-05,5.600353324552998e-05
0.0,0.0,0.0,-1.3815355487167835e-05,5.611213782685809e-05
0.0,0.0,0.0,-1.3727015357289929e-05,5.601822704193182e-05
0.0,0.0,0.0,-1.3787491297989618e-05,5.609853906207718e-05
0.0,0.0,0.0,-1.3750451216765214e-05,5.587121631833725e-05
0.0,0.0,0.0,-1.3768049029749818e-05,5.604792386293411e-05
0.0,0.0,0.0,-1.3766309166385327e-05,5.568223787122406e-05
0.0,0.0,0.0,-1.401062763761729e-05,5.476543810800649e-05
0.0,0.0,0.0,-1.4430088413064368e-05,5.47961717529688e-05
0.0,0.0,0.0,-1.4328273209684994e-05,5.496951416716911e-05
0.0,0.0,0.0,-1.4119264960754663e-05,5.4812680900795385e-05
0.0,0.0,0.0,-1.4078499589231797e-05,5.495122604770586e-05
0.0,0.0,0.0,-1.404591603204608e-05,5.49065152881667e-05
0.0,0.0,0.0,-1.389596400258597e-05,5.524170774151571e-05
0.0,0.0,0.0,-1.426957987860078e-05,5.5156029702629894e-05
0.0,0.0,0.0,-1.3875903277948964e-05,5.501079067471437e-05
0.0,0.0,0.0,-1.3702286196348723e-05,5.542746657738462e-05
0.0,0.0,0.0,-1.4115898920863401e-05,5.533889270736836e-05
0.0,0.0,0.0,-1.3776643754681572e-05,5.512017014552839e-05
0.0,0.0,0.0,-1.3749436220678035e-05,5.5288175644818693e-05
0.0,0.0,0.0,-1.377845819661161e-05,5.519749902305193e-05
0.0,0.0,0.0,-1.3748687706538476e-05,5.521532875718549e-05
0.0,0.0,0.0,-1.326783876720583e-05,5.6019376643234864e-05
0.0,0.0,0.0,-1.3260536434245296e-05,5.578493437496945e-05
0.0,0.0,0.0,-1.3754752217209898e-05,5.5953041737666354e-05
0.0,0.0,0.0,-1.3263711480249185e-05,5.609797153738327e-05
0.0,0.0,0.0,-1.3306201253726613e-05,5.6450848205713555e-05
0.0,0.0,0.0,-1.364818945148727e-05,5.680430695065297e-05
0.0,0.0,0.0,-1.357012297376059e-05,5.666897050105035e-05
0.0,0.0,0.0,-1.3600775673694443e-05,5.6790191592881456e-05
0.0,0.0,0.0,-1.3606244465336204e-05,5.685268479282968e-05
0.0,0.0,0.0,-1.3255328667582944e-05,5.7117489632219076e-05
0.0,0.0,0.0,-1.3397144357440993e-05,5.732473437092267e-05
0.0,0.0,0.0,-1.3479538210958708e-05,5.749474075855687e-05
0.0,0.0,0.0,-1.336250534222927e-05,5.692669947165996e-05
0.0,0.0,0.0,-1.3735302673012484e-05,5.6752003729343414e-05
0.0,0.0,0.0,-1.3679734365723561e-05,5.6719018175499514e-05
0.0,0.0,0.0,-1.3330349247553386e-05,5.6646902521606535e-05
0.0,0.0,0.0,-1.3195503925089724e-05,5.632535248878412e-05
0.0,0.0,0.0,-1.3466885320667643e-05,5.6144202972063795e-05
0.0,0.0,0.0,-1.3830312127538491e-05,5.630395753541961e-05
0.0,0.0,0.0,-1.4017315152159426e-05,5.6112716265488416e-05
0.0,0.0,0.0,-1.3817952094541397e-05,5.602121746051125e-05
0.0,0.0,0.0,-1.3719821254198905e-05,5.599689029622823e-05
0.0,0.0,0.0,-1.3798176041746046e-05,5.519028854905628e-05
0.0,0.0,0.0,-1.3737238987232558e-05,5.555927782552317e-05
0.0,0.0,0.0,-1.3782959285890684e-05,5.5295793572440743e-05
0.0,0.0,0.0,-1.3750412108493038e-05,5.512547431862913e-05
0.0,0.0,0.0,-1.4037545952305663e-05,5.5335232900688425e-05
0.0,0.0,0.0,-1.4130095223663375e-05,5.458973828353919e-05
0.0,0.0,0.0,-1.4070703400648199e-05,5.461476757773198e-05
0.0,0.0,0.0,-1.4359684428200126e-05,5.471163603942841e-05
0.0,0.0,0.0,-1.421214074071031e-05,5.521260027308017e-05
0.0,0.0,0.0,-1.4079485481488518e-05,5.4931693739490584e-05
0.0,0.0,0.0,-1.4114259101916105e-05,5.534835872822441e-05
0.0,0.0,0.0,-1.4280029063229449e-05,5.534030788112432e-05
0.0,0.0,0.0,-1.4272661246650387e-05,5.523825529962778e-05
0.0,0.0,0.0,-1.3907814718550071e-05,5.520609192899428e-05
0.0,0.0,0.0,-1.3774761100648902e-05,5.555625102715567e-05
0.0,0.0,0.0,-1.3756380212726071e-05,5.618225259240717e-05
0.0,0.0,0.0,-1.3767688869847916e-05,5.629064253298566e-05
0.0,0.0,0.0,-1.3762200978817418e-05,5.590652654063888e-05
0.0,0.0,0.0,-1.3529022908187471e-05,5.59948748559691e-05
0.0,0.0,0.0,-1.3224928807176184e-05,5.6024178775260225e-05
0.0,0.0,0.0,-1.338838046649471e-05,5.57675666641444e-05
0.0,0.0,0.0,-1.3378006769926287e-05,5.6183569540735334e-05
0.0,0.0,0.0,-1.3083347766951192e-05,5.648457954521291e-05
0.0,0.0,0.0,-1.3227929230197333e-05,5.707790842279792e-05
0.0,0.0,0.0,-1.3592860341304913e-05,5.700160545529798e-05
0.0,0.0,0.0,-1.3210985343903303e-05,5.6824854254955426e-05
0.0,0.0,0.0,-1.3023919564147945e-05,5.695503205060959e-05
0.0,0.0,0.0,-1.3451415725285187e-05,5.688724559149705e-05
0.0,0.0,0.0,-1.309882372879656e-05,5.7223569456255063e-05
0.0,0.0,0.0,-1.3370774468057789e-05,5.727136158384383e-05
0.0,0.0,0.0,-1.3479322660714388e-05,5.662196781486273e-05
0.0,0.0,0.0,-1.338195306743728e-05,5.683582276105881e-05
0.0,0.0,0.0,-1.3213652891863603e-05,5.665115895681083e-05
0.0,0.0,0.0,-1.3514062629838008e-05,5.6306733313249424e-05
0.0,0.0,0.0,-1.3877066521672532e-05,5.596027403953485e-05
0.0,0.0,0.0,-1.3444934666040353e-05,5.613838948193006e-05
0.0,0.0,0.0,-1.369850360788405e-05,5.6006840168265626e-05
0.0,0.0,0.0,-1.3734717867919244e-05,5.609709114651196e-05
0.0,0.0,0.0,-1.359428461000789e-05,5.604310717899352e-05
0.0,0.0,0.0,-1.3400709576671943e-05,5.606560443993658e-05
0.0,0.0,0.0,-1.361800514132483e-05,5.58999199711252e-05
0.0,0.0,0.0,-1.3595175914815627e-05,5.5543096095789224e-05
0.0,0.0,0.0,-1.3282164218253456e-05,5.5717569921398535e-05
0.0,0.0,0.0,-1.337117009825306e-05,5.546868487726897e-05
0.0,0.0,0.0,-1.3747621778747998e-05,5.504013824975118e-05
0.0,0.0,0.0,-1.3780687368125655e-05,5.5189178965520114e-05
0.0,0.0,0.0,-1.374596104142256e-05,5.504151704371907e-05
0.0,0.0,0.0,-1.37815823109122e-05,5.464618152473122e-05
0.0,0.0,0.0,-1.3745746400672942e-05,5.4787902627140284e-05
0.0,0.0,0.0,-1.385564337397227e-05,5.4802923841634765e-05
0.0,0.0,0.0,-1.3993218090035953e-05,5.539970879908651e-05
0.0,0.0,0.0,-1.3883204701414797e-05,5.532515569939278e-05
0.0,0.0,0.0,-1.3967132872494403e-05,5.509993206942454e-05
0.0,0.0,0.0,-1.3843743545294274e-05,5.504523869603872e-05
0.0,0.0,0.0,-1.339305890724063e-05,5.538845289265737e-05
0.0,0.0,0.0,-1.3768002645520028e-05,5.53907266294118e-05
0.0,0.0,0.0,-1.3761818991042674e-05,5.539047560887411e-05
0.0,0.0,0.0,-1.3763182323600631e-05,5.566634354181588e-05
0.0,0.0,0.0,-1.3234356629254762e-05,5.602976671070792e-05
0.0,0.0,0.0,-1.3019154721405357e-05,5.580970537266694e-05
0.0,0.0,0.0,-1.3644575119542424e-05,5.593542300630361e-05
0.0,0.0,0.0,-1.376518230244983e-05,5.6354216212639585e-05
0.0,0.0,0.0,-1.3539853171096183e-05,5.614827023237012e-05
0.0,0.0,0.0,-1.3406276593741495e-05,5.6488373957108706e-05
0.0,0.0,0.0,-1.3446810953610111e-05,5.6968608987517655e-05
0.0,0.0,0.0,-1.3220198525232263e-05,5.7248249504482374e-05
0.0,0.0,0.0,-1.345659802609589e-05,5.724286529584788e-05
0.0,0.0,0.0,-1.3606577340397052e-05,5.6536748161306605e-05
0.0,0.0,0.0,-1.3572676834883168e-05,5.6382024922640994e-05
0.0,0.0,0.0,-1.377615535602672e-05,5.7332621508976445e-05
0.0,0.0,0.0,-1.3754646715824492e-05,5.750886703026481e-05
0.0,0.0,0.0,-1.3641942132380791e-05,5.676961882272735e-05
0.0,0.0,0.0,-1.343337498838082e-05,5.6464210501872e-05
0.0,0.0,0.0,-1.342140240012668e-05,5.6118784414138645e-05
0.0,0.0,0.0,-1.3339586985239293e-05,5.6009743275353685e-05
0.0,0.0,0.0,-1.3102981938573066e-05,5.602344754152e-05
0.0,0.0,0.0,-1.3159018635633402e-05,5.578032141784206e-05
0.0,0.0,0.0,-1.3343846148927696e-05,5.605505793937482e-05
0.0,0.0,0.0,-1.3139601833245251e-05,5.60658736503683e-05
0.0,0.0,0.0,-1.3093316738377325e-05,5.597429844783619e-05
0.0,0.0,0.0,-1.3460516129271127e-05,5.5461485317209736e-05
0.0,0.0,0.0,-1.372413316858001e-05,5.533099465537816e-05
0.0,0.0,0.0,-1.3797363862977363e-05,5.543881707126275e-05
0.0,0.0,0.0,-1.3735243555856869e-05,5.506401430466212e-05
0.0,0.0,0.0,-1.4063645721762441e-05,5.5320735555142164e-05
0.0,0.0,0.0,-1.3852189113094937e-05,5.543883526115678e-05
0.0,0.0,0.0,-1.3967911399959121e-05,5.534772208193317e-05
0.0,0.0,0.0,-1.3929107808507979e-05,5.518246325664222e-05
0.0,0.0,0.0,-1.3673611647391226e-05,5.4527365136891603e-05
0.0,0.0,0.0,-1.4061410183785483e-05,5.483044151333161e-05
0.0,0.0,0.0,-1.4060024113859981e-05,5.53095196664799e-05
0.0,0.0,0.0,-1.4129815099295229e-05,5.5372445785906166e-05
0.0,0.0,0.0,-1.3885192856832873e-05,5.54052421648521e-05
0.0,0.0,0.0,-1.3949179447081406e-05,5.537770630326122e-05
0.0,0.0,0.0,-1.3936122741142754e-05,5.5570828408235684e-05
0.0,0.0,0.0,-1.3750465768680442e-05,5.5721910030115396e-05
0.0,0.0,0.0,-1.3777075764664914e-05,5.632494867313653e-05
0.0,0.0,0.0,-1.3750211110163946e-05,5.65044283575844e-05
0.0,0.0,0.0,-1.3776813830190804e-05,5.575814429903403e-05
0.0,0.0,0.0,-1.375091596855782e-05,5.569684799411334e-05
0.0,0.0,0.0,-1.356303891952848e-05,5.585851613432169e-05
0.0,0.0,0.0,-1.330304985458497e-05,5.6022752687567845e-05
0.0,0.0,0.0,-1.3625344763568137e-05,5.626600614050403e-05
0.0,0.0,0.0,-1.3569089787779376e-05,5.665916614816524e-05
0.0,0.0,0.0,-1.361864633508958e-05,5.679644164047204e-05
0.0,0.0,0.0,-1.3524283531296533e-05,5.662602779921144e-05
0.0,0.0,0.0,-1.3305421816767193e-05,5.647446232615039e-05
0.0,0.0,0.0,-1.319285456702346e-05,5.6301003496628255e-05
0.0,0.0,0.0,-1.2988746675546281e-05,5.6174500059569255e-05
0.0,0.0,0.0,-1.2864307791460305e-05,5.6280012358911335e-05
0.0,0.0,0.0,-1.2956831596966367e-05,5.678088200511411e-05
0.0,0.0,0.0,-1.3201620276959147e-05,5.61434862902388e-05
0.0,0.0,0.0,-1.3537724953494035e-05,5.5746852012816817e-05
0.0,0.0,0.0,-1.3898384167987388e-05,5.5991855333559215e-05
0.0,0.0,0.0,-1.3658181160280947e-05,5.6324734032386914e-05
0.0,0.0,0.0,-1.3843304259353317e-05,5.594538743025623e-05
0.0,0.0,0.0,-1.348316072835587e-05,5.5659977078903466e-05
0.0,0.0,0.0,-1.3657138879352715e-05,5.5784257710911334e-05
0.0,0.0,0.0,-1.3778031643596478e-05,5.567485641222447e-05
0.0,0.0,0.0,-1.3741507245867979e-05,5.5770269682398066e-05
0.0,0.0,0.0,-1.3791776837024372e-05,5.568794222199358e-05
0.0,0.0,0.0,-1.3390732419793494e-05,5.541777136386372e-05
0.0,0.0,0.0,-1.3437815141514875e-05,5.485919245984405e-05
0.0,0.0,0.0,-1.3735820175497793e-05,5.534207957680337e-05
0.0,0.0,0.0,-1.3794815458822995e-05,5.547847104026005e-05
0.0,0.0,0.0,-1.3730355021834839e-05,5.450977914733812e-05
0.0,0.0,0.0,-1.3797930478176568e-05,5.414324186858721e-05
0.0,0.0,0.0,-1.3835631762049161e-05,5.4387739510275424e-05
0.0,0.0,0.0,-1.4117588762019295e-05,5.447672447189689e-05
0.0,0.0,0.0,-1.3995223525853362e-05,5.47001909581013e-05
0.0,0.0,0.0,-1.3879151083528996e-05,5.481107655214146e-05
0.0,0.0,0.0,-1.3972977285447996e-05,5.5076183343771845e-05
0.0,0.0,0.0,-1.3846993169863708e-05,5.529270856641233e-05
0.0,0.0,0.0,-1.3692199900106061e-05,5.4859141528140754e-05
0.0,0.0,0.0,-1.382384289172478e-05,5.5242064263438806e-05
0.0,0.0,0.0,-1.3671405213244725e-05,5.523272920981981e-05
0.0,0.0,0.0,-1.321600575465709e-05,5.55296937818639e-05
0.0,0.0,0.0,-1.3564596883952618e-05,5.617564238491468e-05
0.0,0.0,0.0,-1.3927859981777146e-05,5.5693930335110053e-05
0.0,0.0,0.0,-1.3630916328111198e-05,5.602502642432228e-05
0.0,0.0,0.0,-1.3868044334230945e-05,5.556400355999358e-05
0.0,0.0,0.0,-1.3195295650803018e-05,5.580013748840429e-05
0.0,0.0,0.0,-1.2859446542279329e-05,5.6189473980339244e-05
0.0,0.0,0.0,-1.2964504094270524e-05,5.639674054691568e-05
0.0,0.0,0.0,-1.3116022273607086e-05,5.708449680241756e-05
0.0,0.0,0.0,-1.3486970601661596e-05,5.676701039192267e-05
0.0,0.0,0.0,-1.3598461009678431e-05,5.680182948708534e-05
0.0,0.0,0.0,-1.322494244959671e-05,5.685742144123651e-05
0.0,0.0,0.0,-1.3091699656797573e-05,5.6781474995659664e-05
0.0,0.0,0.0,-1.3103710443829186e-05,5.6506349210394546e-05
0.0,0.0,0.0,-1.3071925422991626e-05,5.721908019040711e-05
0.0,0.0,0.0,-1.3119501090841368e-05,5.715297083952464e-05
0.0,0.0,0.0,-1.2804520338249858e-05,5.6315137044293806e-05
0.0,0.0,0.0,-1.2708410395134706e-05,5.6036475143628195e-05
0.0,0.0,0.0,-1.322724074270809e-05,5.607780985883437e-05
0.0,0.0,0.0,-1.3806274182570633e-05,5.605328988167457e-05
0.0,0.0,0.0,-1.372153747070115e-05,5.606332342722453e-05
0.0,0.0,0.0,-1.3729913007409777e-05,5.606559352600016e-05
0.0,0.0,0.0,-1.3414624845609069e-05,5.598923598881811e-05
0.0,0.0,0.0,-1.3389199011726305e-05,5.571376459556632e-05
0.0,0.0,0.0,-1.3194520761317108e-05,5.538259938475676e-05
0.0,0.0,0.0,-1.368037464999361e-05,5.543290899368003e-05
0.0,0.0,0.0,-1.3853941709385253e-05,5.5695505579933524e-05
0.0,0.0,0.0,-1.4000758710608352e-05,5.606723789242096e-05
0.0,0.0,0.0,-1.3893662980990484e-05,5.547960245166905e-05
0.0,0.0,0.0,-1.365607931802515e-05,5.476440492202528e-05
0.0,0.0,0.0,-1.4117241335043218e-05,5.496745143318549e-05
0.0,0.0,0.0,-1.4063436537981033e-05,5.48513162357267e-05
0.0,0.0,0.0,-1.437040282326052e-05,5.464160130941309e-05
0.0,0.0,0.0,-1.3976387890579645e-05,5.5019205319695175e-05
0.0,0.0,0.0,-1.3703441254619975e-05,5.502277417690493e-05
0.0,0.0,0.0,-1.402947509632213e-05,5.4868381994310766e-05
0.0,0.0,0.0,-1.4070891666051466e-05,5.4679410823155195e-05
0.0,0.0,0.0,-1.4124264453130309e-05,5.513348514796235e-05
0.0,0.0,0.0,-1.4077928426559083e-05,5.556866744882427e-05
0.0,0.0,0.0,-1.411727316735778e-05,5.5733908084221184e-05
0.0,0.0,0.0,-1.3925247003498953e-05,5.588107887888327e-05
0.0,0.0,0.0,-1.3773733371635899e-05,5.651075844070874e-05
0.0,0.0,0.0,-1.3756154658040032e-05,5.6648539612069726e-05
0.0,0.0,0.0,-1.3768654753221199e-05,5.608021092484705e-05
0.0,0.0,0.0,-1.3760917681793217e-05,5.604760008282028e-05
0.0,0.0,0.0,-1.3551555639423896e-05,5.6071676226565614e-05
0.0,0.0,0.0,-1.3124244105711114e-05,5.624657933367416e-05
0.0,0.0,0.0,-1.323310425505042e-05,5.678418528987095e-05
0.0,0.0,0.0,-1.3597508768725675e-05,5.7077861129073426e-05
0.0,0.0,0.0,-1.3092191693431232e-05,5.6995289924088866e-05
0.0,0.0,0.0,-1.2785819308192004e-05,5.677162698702887e-05
0.0,0.0,0.0,-1.3078397387289442e-05,5.669865640811622e-05
0.0,0.0,0.0,-1.3138250324118417e-05,5.6795357522787526e-05
0.0,0.0,0.0,-1.3396446775004733e-05,5.698221502825618e-05
0.0,0.0,0.0,-1.3768461030849721e-05,5.68307914363686e-05
0.0,0.0,0.0,-1.347089528280776e-05,5.693750790669583e-05
0.0,0.0,0.0,-1.3116500667820219e-05,5.6902259530033916e-05
0.0,0.0,0.0,-1.3614041563414503e-05,5.660448005073704e-05
0.0,0.0,0.0,-1.33319981614477e-05,5.68380237382371e-05
0.0,0.0,0.0,-1.34519868879579e-05,5.640462404699065e-05
0.0,0.0,0.0,-1.345972759736469e-05,5.620052252197638e-05
0.0,0.0,0.0,-1.3130995284882374e-05,5.60120606678538e-05
0.0,0.0,0.0,-1.3599791600427125e-05,5.6096632761182263e-05
0.0,0.0,0.0,-1.3492161087924615e-05,5.603937461273745e-05
0.0,0.0,0.0,-1.3885650332667865e-05,5.588154090219177e-05
0.0,0.0,0.0,-1.3671065971720964e-05,5.5351145419990644e-05
0.0,0.0,0.0,-1.3830289390170947e-05,5.521235289052129e-05
0.0,0.0,0.0,-1.3719601156481076e-05,5.5412372603314e-05
0.0,0.0,0.0,-1.3937037692812737e-05,5.5811713536968455e-05
0.0,0.0,0.0,-1.4227647625375539e-05,5.5727177823428065e-05
0.0,0.0,0.0,-1.442550819774624e-05,5.472320117405616e-05
0.0,0.0,0.0,-1.4455571545113344e-05,5.471840995596722e-05
0.0,0.0,0.0,-1.4405688489205204e-05,5.471624172059819e-05
0.0,0.0,0.0,-1.4375478713191114e-05,5.4723779612686485e-05
0.0,0.0,0.0,-1.4076851584832184e-05,5.471227632369846e-05
0.0,0.0,0.0,-1.4053492122911848e-05,5.487539237947203e-05
0.0,0.0,0.0,-1.375591818941757e-05,5.539519406738691e-05
0.0,0.0,0.0,-1.3778086213278584e-05,5.5801941925892606e-05
0.0,0.0,0.0,-1.3744117495662067e-05,5.592454908764921e-05
0.0,0.0,0.0,-1.3722951734962407e-05,5.5537104344693944e-05
0.0,0.0,0.0,-1.3144000149623025e-05,5.5590291594853625e-05
0.0,0.0,0.0,-1.305345995206153e-05,5.5839296692283824e-05
0.0,0.0,0.0,-1.3407240658125374e-05,5.592005982180126e-05
0.0,0.0,0.0,-1.3726735232921783e-05,5.617735951091163e-05
0.0,0.0,0.0,-1.3512605619325768e-05,5.596925984718837e-05
0.0,0.0,0.0,-1.312949007115094e-05,5.664362106472254e-05
0.0,0.0,0.0,-1.3093833331367932e-05,5.674234125763178e-05
0.0,0.0,0.0,-1.309425806539366e-05,5.67177812627051e-05
0.0,0.0,0.0,-1.3310948816069867e-05,5.6753215176286176e-05
0.0,0.0,0.0,-1.3242767636256758e-05,5.713434438803233e-05
0.0,0.0,0.0,-1.3251539712655358e-05,5.726515519199893e-05
0.0,0.0,0.0,-1.3287856745591853e-05,5.6995439081219956e-05
0.0,0.0,0.0,-1.3218833373684902e-05,5.695455183740705e-05
0.0,0.0,0.0,-1.3480120287567843e-05,5.666509241564199e-05
0.0,0.0,0.0,-1.3386433238338213e-05,5.663362026098184e-05
0.0,0.0,0.0,-1.3608558219857514e-05,5.6939032219816e-05
0.0,0.0,0.0,-1.3738700545218308e-05,5.7086894230451435e-05
0.0,0.0,0.0,-1.3780514564132318e-05,5.605734622804448e-05
0.0,0.0,0.0,-1.363696537737269e-05,5.594580579781905e-05
0.0,0.0,0.0,-1.3549682989832945e-05,5.584605969488621e-05
0.0,0.0,0.0,-1.3548629794968292e-05,5.593590685748495e-05
0.0,0.0,0.0,-1.331490511802258e-05,5.585828694165684e-05
0.0,0.0,0.0,-1.3679926269105636e-05,5.5996522860368714e-05
0.0,0.0,0.0,-1.3829577255819459e-05,5.611965389107354e-05
0.0,0.0,0.0,-1.3713439329876564e-05,5.590385990217328e-05
0.0,0.0,0.0,-1.380001413053833e-05,5.549954585148953e-05
0.0,0.0,0.0,-1.3707376638194546e-05,5.5232394515769556e-05
0.0,0.0,0.0,-1.3501829926099163e-05,5.48761963727884e-05
0.0,0.0,0.0,-1.3683757060789503e-05,5.458591476781294e-05
0.0,0.0,0.0,-1.382443770125974e-05,5.482969572767615e-05
0.0,0.0,0.0,-1.3995972949487623e-05,5.462791887111962e-05
0.0,0.0,0.0,-1.4166919754643459e-05,5.479195169755258e-05
0.0,0.0,0.0,-1.4050237950868905e-05,5.4406398703577e-05
0.0,0.0,0.0,-1.3887906789022963e-05,5.463981142384e-05
0.0,0.0,0.0,-1.418416195519967e-05,5.474172576214187e-05
0.0,0.0,0.0,-1.4068686141399667e-05,5.469461757456884e-05
0.0,0.0,0.0,-1.3662884157383814e-05,5.4531203204533085e-05
0.0,0.0,0.0,-1.3838357517670374e-05,5.454200800159015e-05
0.0,0.0,0.0,-1.3902831597079057e-05,5.4773390729678795e-05
0.0,0.0,0.0,-1.3781974303128663e-05,5.503171632881276e-05
0.0,0.0,0.0,-1.3726498764299322e-05,5.561930811381899e-05
0.0,0.0,0.0,-1.3972422493679915e-05,5.567993866861798e-05
0.0,0.0,0.0,-1.3746983313467354e-05,5.621184755000286e-05
0.0,0.0,0.0,-1.3765617040917277e-05,5.627911014016718e-05
0.0,0.0,0.0,-1.351835180685157e-05,5.5902855820022523e-05
0.0,0.0,0.0,-1.3207257325120736e-05,5.612809400190599e-05
0.0,0.0,0.0,-1.342738323728554e-05,5.6427805247949436e-05
0.0,0.0,0.0,-1.3419469723885413e-05,5.646830686600879e-05
0.0,0.0,0.0,-1.3443371244648006e-05,5.6733915698714554e-05
0.0,0.0,0.0,-1.3481813766702544e-05,5.6734152167337015e-05
0.0,0.0,0.0,-1.3698613656742964e-05,5.6730186770437285e-05
0.0,0.0,0.0,-1.3451869563141372e-05,5.673741179634817e-05
0.0,0.0,0.0,-1.3412697626336012e-05,5.672738916473463e-05
0.0,0.0,0.0,-1.3404322999122087e-05,5.6739758292678744e-05
0.0,0.0,0.0,-1.3149239748599939e-05,5.67254755878821e-05
0.0,0.0,0.0,-1.3352103451325092e-05,5.674126077792607e-05
0.0,0.0,0.0,-1.3782070709567051e-05,5.672436236636713e-05
0.0,0.0,0.0,-1.3746445802098606e-05,5.6188997405115515e-05
0.0,0.0,0.0,-1.3779113032796886e-05,5.6508775742258877e-05
0.0,0.0,0.0,-1.3750237485510297e-05,5.610830703517422e-05
0.0,0.0,0.0,-1.3285510249261279e-05,5.575908289756626e-05
0.0,0.0,0.0,-1.3495980056177359e-05,5.626464189845137e-05
0.0,0.0,0.0,-1.386490748700453e-05,5.589597640209831e-05
0.0,0.0,0.0,-1.3681607015314512e-05,5.59811778657604e-05
0.0,0.0,0.0,-1.382819300488336e-05,5.540357960853726e-05
0.0,0.0,0.0,-1.3714836313738488e-05,5.565808532992378e-05
0.0,0.0,0.0,-1.3798358850181103e-05,5.5141619668575004e-05
0.0,0.0,0.0,-1.3741381735599134e-05,5.4719013860449195e-05
0.0,0.0,0.0,-1.3615456737170462e-05,5.47296876902692e-05
0.0,0.0,0.0,-1.3573680007539224e-05,5.5294563935603946e-05
0.0,0.0,0.0,-1.3756230146100279e-05,5.552735092351213e-05
0.0,0.0,0.0,-1.4033294974069577e-05,5.471585245686583e-05
0.0,0.0,0.0,-1.4397461200132966e-05,5.472872726386413e-05
0.0,0.0,0.0,-1.4262143849919084e-05,5.4597239795839414e-05
0.0,0.0,0.0,-1.3753236999036744e-05,5.451355536933988e-05
0.0,0.0,0.0,-1.3778916581941303e-05,5.4664811614202335e-05
0.0,0.0,0.0,-1.374461135128513e-05,5.4844440455781296e-05
0.0,0.0,0.0,-1.3785391274723224e-05,5.51090925000608e-05
0.0,0.0,0.0,-1.3740075701207388e-05,5.573421003646217e-05
0.0,0.0,0.0,-1.3788196156383492e-05,5.571654037339613e-05
0.0,0.0,0.0,-1.3738798770646099e-05,5.576775220106356e-05
0.0,0.0,0.0,-1.3788140677206684e-05,5.601319935522042e-05
0.0,0.0,0.0,-1.3739998394157737e-05,5.610369407804683e-05
0.0,0.0,0.0,-1.3785976079816464e-05,5.60258085897658e-05
0.0,0.0,0.0,-1.3189944183977786e-05,5.609151776297949e-05
0.0,0.0,0.0,-1.3301335457072128e-05,5.60374537599273e-05
0.0,0.0,0.0,-1.3253564247861505e-05,5.608048741123639e-05
0.0,0.0,0.0,-1.2994963071832899e-05,5.6536999181844294e-05
0.0,0.0,0.0,-1.3639367352880072e-05,5.6797885918058455e-05
0.0,0.0,0.0,-1.3302646948432084e-05,5.690506804967299e-05
0.0,0.0,0.0,-1.284593508898979e-05,5.691631668014452e-05
0.0,0.0,0.0,-1.2971739124623127e-05,5.666943980031647e-05
0.0,0.0,0.0,-1.3476227650244255e-05,5.678066372638568e-05
0.0,0.0,0.0,-1.360648366244277e-05,5.6880344345699996e-05
0.0,0.0,0.0,-1.3058411241217982e-05,5.692757622455247e-05
0.0,0.0,0.0,-1.2932231584272813e-05,5.671170220011845e-05
0.0,0.0,0.0,-1.3228091120254248e-05,5.689180761692114e-05
0.0,0.0,0.0,-1.3575624507211614e-05,5.665177377522923e-05
0.0,0.0,0.0,-1.3750342986895703e-05,5.6199431128334254e-05
0.0,0.0,0.0,-1.3540777217713185e-05,5.627008431474678e-05
0.0,0.0,0.0,-1.3107361155562103e-05,5.596934352070093e-05
0.0,0.0,0.0,-1.3078383744868916e-05,5.583146048593335e-05
0.0,0.0,0.0,-1.3275181117933244e-05,5.602834789897315e-05
0.0,0.0,0.0,-1.3707780453842133e-05,5.6021450291154906e-05
0.0,0.0,0.0,-1.3748381206823979e-05,5.5716856877552345e-05
0.0,0.0,0.0,-1.3361468518269248e-05,5.5631946452194825e-05
0.0,0.0,0.0,-1.3178363587940112e-05,5.510379560291767e-05
0.0,0.0,0.0,-1.3355392184166703e-05,5.498458267538808e-05
0.0,0.0,0.0,-1.3510692042473238e-05,5.48284879187122e-05
0.0,0.0,0.0,-1.3670230146090034e-05,5.5253309255931526e-05
0.0,0.0,0.0,-1.3841638974554371e-05,5.550223431782797e-05
0.0,0.0,0.0,-1.3699501323571894e-05,5.474728823173791e-05
0.0,0.0,0.0,-1.3815363672620151e-05,5.4448082664748654e-05
0.0,0.0,0.0,-1.3722955372941215e-05,5.461317778099328e-05
0.0,0.0,0.0,-1.4039159395906609e-05,5.476621663547121e-05
0.0,0.0,0.0,-1.3870813745597843e-05,5.468414383358322e-05
0.0,0.0,0.0,-1.350759976048721e-05,5.49661235709209e-05
0.0,0.0,0.0,-1.3862947525922209e-05,5.527353278012015e-05
0.0,0.0,0.0,-1.3921770005254075e-05,5.5397904361598194e-05
0.0,0.0,0.0,-1.3731915714743081e-05,5.5579970648977906e-05
0.0,0.0,0.0,-1.3786526324111037e-05,5.5914912081789225e-05
0.0,0.0,0.0,-1.3748385754297487e-05,5.5896874982863665e-05
0.0,0.0,0.0,-1.3772360944130924e-05,5.57129860681016e-05
0.0,0.0,0.0,-1.3611535905511118e-05,5.633563341689296e-05
0.0,0.0,0.0,-1.342865562037332e-05,5.663100819219835e-05
0.0,0.0,0.0,-1.330341456196038e-05,5.622806929750368e-05
0.0,0.0,0.0,-1.309481740463525e-05,5.635251727653667e-05
0.0,0.0,0.0,-1.3199515706219245e-05,5.6544417020631954e-05
0.0,0.0,0.0,-1.3408857739705127e-05,5.668115773005411e-05
0.0,0.0,0.0,-1.3532066077459604e-05,5.677850276697427e-05
0.0,0.0,0.0,-1.372299448121339e-05,5.6619333918206394e-05
0.0,0.0,0.0,-1.3800314263789915e-05,5.64559995837044e-05
0.0,0.0,0.0,-1.3677716196980327e-05,5.6348086218349636e-05
0.0,0.0,0.0,-1.3488790500559844e-05,5.6565506383776665e-05
0.0,0.0,0.0,-1.3375671187532134e-05,5.720227272831835e-05
0.0,0.0,0.0,-1.3408396625891328e-05,5.692517152056098e-05
0.0,0.0,0.0,-1.2509743100963533e-05,5.65739392186515e-05
0.0,0.0,0.0,-1.2918663742311765e-05,5.6575176131445915e-05
0.0,0.0,0.0,-1.323963897448266e-05,5.597725976258516e-05
0.0,0.0,0.0,-1.2968489500053693e-05,5.587095074588433e-05
0.0,0.0,0.0,-1.3449967809719965e-05,5.5382064601872116e-05
0.0,0.0,0.0,-1.3620187019114383e-05,5.5668311688350514e-05
0.0,0.0,0.0,-1.3832073818775825e-05,5.573613088927232e-05
0.0,0.0,0.0,-1.3933461559645366e-05,5.548358603846282e-05
0.0,0.0,0.0,-1.3948192645329982e-05,5.539526682696305e-05
0.0,0.0,0.0,-1.3699283044843469e-05,5.537604374694638e-05
0.0,0.0,0.0,-1.3811796634399798e-05,5.502900603460148e-05
0.0,0.0,0.0,-1.3729578313359525e-05,5.430748205981217e-05
0.0,0.0,0.0,-1.378554316033842e-05,5.408172000898048e-05
0.0,0.0,0.0,-1.375209103571251e-05,5.432990292320028e-05
0.0,0.0,0.0,-1.3766477422905155e-05,5.5354710639221594e-05
0.0,0.0,0.0,-1.3906247659178916e-05,5.546063766814768e-05
0.0,0.0,0.0,-1.408375919709215e-05,5.465913636726327e-05
0.0,0.0,0.0,-1.423586127202725e-05,5.444573616841808e-05
0.0,0.0,0.0,-1.4187867236614693e-05,5.496992525877431e-05
0.0,0.0,0.0,-1.3829092495143414e-05,5.522810170077719e-05
0.0,0.0,0.0,-1.3703007425647229e-05,5.5302381952060387e-05
0.0,0.0,0.0,-1.3819239939039107e-05,5.56143386347685e-05
0.0,0.0,0.0,-1.371319103782298e-05,5.588521889876574e-05
0.0,0.0,0.0,-1.3808877156407107e-05,5.595263064606115e-05
0.0,0.0,0.0,-1.372359383822186e-05,5.619488365482539e-05
0.0,0.0,0.0,-1.3798560758004896e-05,5.62562927370891e-05
0.0,0.0,0.0,-1.3712440704694018e-05,5.618866271106526e-05
0.0,0.0,0.0,-1.3494963241100777e-05,5.595931361312978e-05
0.0,0.0,0.0,-1.3084802048979327e-05,5.614172187051736e-05
0.0,0.0,0.0,-1.309697654505726e-05,5.60014923394192e-05
0.0,0.0,0.0,-1.309006165683968e-05,5.6635857617948204e-05
0.0,0.0,0.0,-1.360251280857483e-05,5.6775006669340655e-05
0.0,0.0,0.0,-1.38282648549648e-05,5.6688993936404586e-05
0.0,0.0,0.0,-1.3239492545835674e-05,5.724632501369342e-05
0.0,0.0,0.0,-1.3538541679736227e-05,5.740746928495355e-05
0.0,0.0,0.0,-1.3804917216475587e-05,5.7409601140534505e-05
0.0,0.0,0.0,-1.332671945419861e-05,5.698837776435539e-05
0.0,0.0,0.0,-1.30883790916414e-05,5.672139741363935e-05
0.0,0.0,0.0,-1.3459355614031665e-05,5.655453060171567e-05
0.0,0.0,0.0,-1.3602325452666264e-05,5.656508801621385e-05
0.0,0.0,0.0,-1.3578168363892473e-05,5.6572735047666356e-05
0.0,0.0,0.0,-1.3620778190670535e-05,5.69996664125938e-05
0.0,0.0,0.0,-1.3566539564635605e-05,5.7027602451853454e-05
0.0,0.0,0.0,-1.362673174298834e-05,5.611436063190922e-05
0.0,0.0,0.0,-1.3331256923265755e-05,5.600883741863072e-05
0.0,0.0,0.0,-1.3083365047350526e-05,5.611362212221138e-05
0.0,0.0,0.0,-1.3294424206833355e-05,5.601130396826193e-05
0.0,0.0,0.0,-1.3714146916754544e-05,5.59395230084192e-05
0.0,0.0,0.0,-1.3808604307996575e-05,5.546352258534171e-05
0.0,0.0,0.0,-1.3659301657753531e-05,5.5577380408067256e-05
0.0,0.0,0.0,-1.3545947695092764e-05,5.517990211956203e-05
0.0,0.0,0.0,-1.3675353329745121e-05,5.529962800210342e-05
0.0,0.0,0.0,-1.3839127859682776e-05,5.5432428780477494e-05
0.0,0.0,0.0,-1.3699946975975763e-05,5.5012238590279594e-05
0.0,0.0,0.0,-1.3816504178976174e-05,5.47751878912095e-05
0.0,0.0,0.0,-1.372064980387222e-05,5.496151061379351e-05
0.0,0.0,0.0,-1.3797667634207755e-05,5.540644269785844e-05
0.0,0.0,0.0,-1.3737679182668217e-05,5.5102202168200165e-05
0.0,0.0,0.0,-1.3782380847260356e-05,5.5290362070081756e-05
0.0,0.0,0.0,-1.375129068037495e-05,5.5196393077494577e-05
0.0,0.0,0.0,-1.3770372788712848e-05,5.521551793208346e-05
0.0,0.0,0.0,-1.353844072582433e-05,5.570091525441967e-05
0.0,0.0,0.0,-1.3617172953672707e-05,5.546077954932116e-05
0.0,0.0,0.0,-1.3804839909425937e-05,5.541581776924431e-05
0.0,0.0,0.0,-1.3343019418243784e-05,5.536999742616899e-05
0.0,0.0,0.0,-1.3104247045703232e-05,5.54055513930507e-05
0.0,0.0,0.0,-1.3079446944175288e-05,5.554966992349364e-05
0.0,0.0,0.0,-1.3265026609587949e-05,5.589660577243194e-05
0.0,0.0,0.0,-1.3266846508486196e-05,5.6800912716425955e-05
0.0,0.0,0.0,-1.2830388186557684e-05,5.731640703743324e-05
0.0,0.0,0.0,-1.2544602213893086e-05,5.676108048646711e-05
0.0,0.0,0.0,-1.2869643796875607e-05,5.670446626027115e-05
0.0,0.0,0.0,-1.2975922800251283e-05,5.676181535818614e-05
0.0,0.0,0.0,-1.2877366316388361e-05,5.6704393500695005e-05
0.0,0.0,0.0,-1.3051047062617727e-05,5.676126602338627e-05
0.0,0.0,0.0,-1.3128158570907544e-05,5.670551399816759e-05
0.0,0.0,0.0,-1.3061288882454392e-05,5.669581514666788e-05
0.0,0.0,0.0,-1.31185424834257e-05,5.634739136439748e-05
0.0,0.0,0.0,-1.3027729437453672e-05,5.613587927655317e-05
0.0,0.0,0.0,-1.280978449358372e-05,5.630090890917927e-05
0.0,0.0,0.0,-1.2712349416688085e-05,5.6199452956207097e-05
0.0,0.0,0.0,-1.2792505003744736e-05,5.656723442371003e-05
0.0,0.0,0.0,-1.3015161130169872e-05,5.658658847096376e-05
0.0,0.0,0.0,-1.3708176993532106e-05,5.596201299340464e-05
0.0,0.0,0.0,-1.3788961950922385e-05,5.6420965847792104e-05
0.0,0.0,0.0,-1.322897423960967e-05,5.610179141513072e-05
0.0,0.0,0.0,-1.3542197848437354e-05,5.581520599662326e-05
0.0,0.0,0.0,-1.3615381249110214e-05,5.5704549595247954e-05
0.0,0.0,0.0,-1.3111809494148474e-05,5.5515487474622205e-05
0.0,0.0,0.0,-1.3569678230851423e-05,5.536362368729897e-05
0.0,0.0,0.0,-1.3761020454694517e-05,5.5204851378221065e-05
0.0,0.0,0.0,-1.3568991562351584e-05,5.522340507013723e-05
0.0,0.0,0.0,-1.3243993635114748e-05,5.505253648152575e-05
0.0,0.0,0.0,-1.3421900803223252e-05,5.468971357913688e-05
0.0,0.0,0.0,-1.3786788258585148e-05,5.4736050515202805e-05
0.0,0.0,0.0,-1.4037640539754648e-05,5.530740236281417e-05
0.0,0.0,0.0,-1.417825751559576e-05,5.549875277210958e-05
0.0,0.0,0.0,-1.3882487110095099e-05,5.475706348079257e-05
0.0,0.0,0.0,-1.4100084626988973e-05,5.479475294123404e-05
0.0,0.0,0.0,-1.3990796105645131e-05,5.497902384377085e-05
0.0,0.0,0.0,-1.37821980388253e-05,5.48923562746495e-05
0.0,0.0,0.0,-1.3746641343459487e-05,5.5374472140101716e-05
0.0,0.0,0.0,-1.3853388736606576e-05,5.547245382331312e-05
0.0,0.0,0.0,-1.4060487956157885e-05,5.569943823502399e-05
0.0,0.0,0.0,-1.4079403626965359e-05,5.569024142459966e-05
0.0,0.0,0.0,-1.3725089047511574e-05,5.545480235014111e-05
0.0,0.0,0.0,-1.3491039680957329e-05,5.569924906012602e-05
0.0,0.0,0.0,-1.369939127471298e-05,5.6076816690620035e-05
0.0,0.0,0.0,-1.3816879800288007e-05,5.6045595556497574e-05
0.0,0.0,0.0,-1.3146134733688086e-05,5.607793355011381e-05
0.0,0.0,0.0,-1.276772945857374e-05,5.659867383656092e-05
0.0,0.0,0.0,-1.2761376638081856e-05,5.6823791965143755e-05
0.0,0.0,0.0,-1.3005663276999258e-05,5.665590651915409e-05
0.0,0.0,0.0,-1.3130555998941418e-05,5.7042110711336136e-05
0.0,0.0,0.0,-1.3058237527729943e-05,5.6809818488545716e-05
0.0,0.0,0.0,-1.3345586012292188e-05,5.672742918250151e-05
0.0,0.0,0.0,-1.3210076758696232e-05,5.716551095247269e-05
0.0,0.0,0.0,-1.3079774362267926e-05,5.7229608501074836e-05
0.0,0.0,0.0,-1.3292934454511851e-05,5.684297866537236e-05
0.0,0.0,0.0,-1.3251882592157926e-05,5.674696512869559e-05
0.0,0.0,0.0,-1.3419538845482748e-05,5.638498623738997e-05
0.0,0.0,0.0,-1.3784539078187663e-05,5.605484693660401e-05
0.0,0.0,0.0,-1.3448109712044243e-05,5.666674769599922e-05
0.0,0.0,0.0,-1.3111254702380393e-05,5.6831297115422785e-05
0.0,0.0,0.0,-1.3331286936590914e-05,5.5977219744818285e-05
0.0,0.0,0.0,-1.3642804333358072e-05,5.5575943406438455e-05
0.0,0.0,0.0,-1.3337585187400691e-05,5.554108793148771e-05
0.0,0.0,0.0,-1.3188902812544256e-05,5.5668660934315994e-05
0.0,0.0,0.0,-1.3323967323231045e-05,5.569325730903074e-05
0.0,0.0,0.0,-1.320419687544927e-05,5.543912266148254e-05
0.0,0.0,0.0,-1.343522671959363e-05,5.5533313570776954e-05
0.0,0.0,0.0,-1.3782035239273682e-05,5.480382242240012e-05
0.0,0.0,0.0,-1.3749494428338949e-05,5.469102325150743e-05
0.0,0.0,0.0,-1.3774008039035834e-05,5.5044762120814994e-05
0.0,0.0,0.0,-1.3777856111119036e-05,5.47414347238373e-05
0.0,0.0,0.0,-1.4061581168789417e-05,5.469697862281464e-05
0.0,0.0,0.0,-1.4133158401818946e-05,5.473973578773439e-05
0.0,0.0,0.0,-1.4069223652768414e-05,5.4975709645077586e-05
0.0,0.0,0.0,-1.3860088984074537e-05,5.484466964844614e-05
0.0,0.0,0.0,-1.4216318049875554e-05,5.4636242566630244e-05
0.0,0.0,0.0,-1.4301690498541575e-05,5.478843377204612e-05
0.0,0.0,0.0,-1.37446986627765e-05,5.512916322913952e-05
0.0,0.0,0.0,-1.3615212992590386e-05,5.5485928896814585e-05
0.0,0.0,0.0,-1.355956555926241e-05,5.531273200176656e-05
0.0,0.0,0.0,-1.3845567082171328e-05,5.565348328673281e-05
0.0,0.0,0.0,-1.3508450138033368e-05,5.569391214521602e-05
0.0,0.0,0.0,-1.3645221770275384e-05,5.592836532741785e-05
0.0,0.0,0.0,-1.3576941455539782e-05,5.605700789601542e-05
0.0,0.0,0.0,-1.327146037510829e-05,5.605991464108229e-05
0.0,0.0,0.0,-1.2796776900358964e-05,5.666430661221966e-05
0.0,0.0,0.0,-1.2693308235611767e-05,5.69698131585028e-05
0.0,0.0,0.0,-1.3345663319341838e-05,5.656426219502464e-05
0.0,0.0,0.0,-1.3508883057511412e-05,5.6684453738853335e-05
0.0,0.0,0.0,-1.3032644346822053e-05,5.678043089574203e-05
0.0,0.0,0.0,-1.2823031283915043e-05,5.6687316828174517e-05
0.0,0.0,0.0,-1.310247080255067e-05,5.6606550060678273e-05
0.0,0.0,0.0,-1.3080075405014213e-05,5.61388187634293e-05
0.0,0.0,0.0,-1.3105695870763157e-05,5.6436940212734044e-05
0.0,0.0,0.0,-1.3078061783744488e-05,5.6668632169021294e-05
0.0,0.0,0.0,-1.3106653568684123e-05,5.648450678563677e-05
0.0,0.0,0.0,-1.307801176153589e-05,5.662521652993746e-05
0.0,0.0,0.0,-1.3148474863555748e-05,5.648119258694351e-05
0.0,0.0,0.0,-1.36669295898173e-05,5.6013246648944914e-05
0.0,0.0,0.0,-1.3272169780975673e-05,5.610273001366295e-05
0.0,0.0,0.0,-1.3216646038927138e-05,5.602742385235615e-05
0.0,0.0,0.0,-1.3326511179911904e-05,5.582360245171003e-05
0.0,0.0,0.0,-1.3177933396946173e-05,5.566959589486942e-05
0.0,0.0,0.0,-1.3596395547210705e-05,5.552655056817457e-05
0.0,0.0,0.0,-1.3527556802728213e-05,5.532734212465584e-05
0.0,0.0,0.0,-1.3445347576634958e-05,5.543941369978711e-05
0.0,0.0,0.0,-1.3378071344050113e-05,5.5140681070042774e-05
0.0,0.0,0.0,-1.3702154319616966e-05,5.4860614909557626e-05
0.0,0.0,0.0,-1.3500902241503354e-05,5.470270843943581e-05
0.0,0.0,0.0,-1.3677884453500155e-05,5.490767216542736e-05
0.0,0.0,0.0,-1.35272930492647e-05,5.489122122526169e-05
0.0,0.0,0.0,-1.3809832125843968e-05,5.4862590332049876e-05
0.0,0.0,0.0,-1.3743292583967559e-05,5.566971594817005e-05
0.0,0.0,0.0,-1.3762216440227348e-05,5.581493314821273e-05
0.0,0.0,0.0,-1.3655446309712715e-05,5.510612754733302e-05
0.0,0.0,0.0,-1.3285687600728124e-05,5.512236384674907e-05
0.0,0.0,0.0,-1.3248461982584558e-05,5.542467988561839e-05
0.0,0.0,0.0,-1.3354738257476129e-05,5.545281237573363e-05
0.0,0.0,0.0,-1.3589506124844775e-05,5.565372703131288e-05
0.0,0.0,0.0,-1.3663873687619343e-05,5.539856283576228e-05
0.0,0.0,0.0,-1.3732059414905962e-05,5.54493599338457e-05
0.0,0.0,0.0,-1.3058405784249771e-05,5.569909990299493e-05
0.0,0.0,0.0,-1.3128783393767662e-05,5.579330900218338e-05
0.0,0.0,0.0,-1.3054555893177167e-05,5.6003736972343177e-05
0.0,0.0,0.0,-1.3129734725225717e-05,5.6111890444299206e-05
0.0,0.0,0.0,-1.3056054740445688e-05,5.6018638133537024e-05
0.0,0.0,0.0,-1.3413346096058376e-05,5.609786239801906e-05
0.0,0.0,0.0,-1.3161497008695733e-05,5.6031760323094204e-05
0.0,0.0,0.0,-1.304768829868408e-05,5.661741306539625e-05
0.0,0.0,0.0,-1.3128337741363794e-05,5.7038523664232343e-05
0.0,0.0,0.0,-1.3063093319942709e-05,5.6811546528479084e-05
0.0,0.0,0.0,-1.3115755791659467e-05,5.671715553035028e-05
0.0,0.0,0.0,-1.2849885933974292e-05,5.674485146300867e-05
0.0,0.0,0.0,-1.2963590052095242e-05,5.672491533914581e-05
0.0,0.0,0.0,-1.3114800822222605e-05,5.6939938076538965e-05
0.0,0.0,0.0,-1.2882604096375871e-05,5.7081339036813006e-05
0.0,0.0,0.0,-1.294006870011799e-05,5.687536395271309e-05
0.0,0.0,0.0,-1.309949038841296e-05,5.639731898554601e-05
0.0,0.0,0.0,-1.3084383681416512e-05,5.60466360184364e-05
0.0,0.0,0.0,-1.3249696166894864e-05,5.6969085562741384e-05
0.0,0.0,0.0,-1.3554792531067505e-05,5.7220651797251776e-05
0.0,0.0,0.0,-1.3770300938631408e-05,5.6118260545190424e-05
0.0,0.0,0.0,-1.3638768905366305e-05,5.577625415753573e-05
0.0,0.0,0.0,-1.3555306395574007e-05,5.5460772273363546e-05
0.0,0.0,0.0,-1.372798578813672e-05,5.542354847420938e-05
0.0,0.0,0.0,-1.3796347047900781e-05,5.5677002819720656e-05
0.0,0.0,0.0,-1.3733714695263188e-05,5.5231608712347224e-05
0.0,0.0,0.0,-1.3790911907562986e-05,5.477836020872928e-05
0.0,0.0,0.0,-1.3738889720116276e-05,5.4614662076346576e-05
0.0,0.0,0.0,-1.382851132802898e-05,5.445829810923897e-05
0.0,0.0,0.0,-1.4044034287508111e-05,5.432003672467545e-05
0.0,0.0,0.0,-1.4125793313723989e-05,5.445659189717844e-05
0.0,0.0,0.0,-1.3764809409622103e-05,5.463469278765842e-05
0.0,0.0,0.0,-1.4049616765987594e-05,5.478765888256021e-05
0.0,0.0,0.0,-1.4141620340524241e-05,5.4663862101733685e-05
0.0,0.0,0.0,-1.4329613804875407e-05,5.502736894413829e-05
0.0,0.0,0.0,-1.4499083590635564e-05,5.4546828323509544e-05
0.0,0.0,0.0,-1.3892828064854257e-05,5.455885184346698e-05
0.0,0.0,0.0,-1.3985145415063016e-05,5.480841355165467e-05
0.0,0.0,0.0,-1.3912360373069532e-05,5.4640706366626546e-05
0.0,0.0,0.0,-1.3923656297265552e-05,5.5211843573488295e-05
0.0,0.0,0.0,-1.3959663192508742e-05,5.536805838346481e-05
0.0,0.0,0.0,-1.331440762442071e-05,5.540968413697556e-05
0.0,0.0,0.0,-1.3666471204487607e-05,5.5373420764226466e-05
0.0,0.0,0.0,-1.392784633935662e-05,5.540462370845489e-05
0.0,0.0,0.0,-1.3599218618765008e-05,5.55376973352395e-05
0.0,0.0,0.0,-1.3283199223224074e-05,5.648156729876064e-05
0.0,0.0,0.0,-1.3365832273848355e-05,5.683227573172189e-05
0.0,0.0,0.0,-1.3756540283793584e-05,5.63549947401043e-05
0.0,0.0,0.0,-1.3534890058508608e-05,5.644844350172207e-05
0.0,0.0,0.0,-1.3325463442015462e-05,5.634219996863976e-05
0.0,0.0,0.0,-1.3522843801183626e-05,5.6644137657713145e-05
0.0,0.0,0.0,-1.325786615780089e-05,5.68086834391579e-05
0.0,0.0,0.0,-1.3410986866801977e-05,5.6669505283934996e-05
0.0,0.0,0.0,-1.3816262253385503e-05,5.6785589549690485e-05
0.0,0.0,0.0,-1.3613134797196835e-05,5.6690420024096966e-05
0.0,0.0,0.0,-1.3235180631454568e-05,5.672421684721485e-05
0.0,0.0,0.0,-1.334074931946816e-05,5.643875556415878e-05
0.0,0.0,0.0,-1.3823800145473797e-05,5.664073978550732e-05
0.0,0.0,0.0,-1.3715885870624334e-05,5.619064177153632e-05
0.0,0.0,0.0,-1.3800357010040898e-05,5.5949887610040605e-05
0.0,0.0,0.0,-1.401316148985643e-05,5.560455974773504e-05
0.0,0.0,0.0,-1.335794513579458e-05,5.52332894585561e-05
0.0,0.0,0.0,-1.3201562069298234e-05,5.552151924348436e-05
0.0,0.0,0.0,-1.382045684295008e-05,5.528221299755387e-05
0.0,0.0,0.0,-1.3674576621269807e-05,5.500946645042859e-05
0.0,0.0,0.0,-1.3829887393512763e-05,5.460140891955234e-05
0.0,0.0,0.0,-1.3717307410843205e-05,5.502415297087282e-05
0.0,0.0,0.0,-1.3792747267871164e-05,5.479976607603021e-05
0.0,0.0,0.0,-1.3940673852630425e-05,5.5123593483585864e-05
0.0,0.0,0.0,-1.4293318599811755e-05,5.522157152881846e-05
0.0,0.0,0.0,-1.444202644051984e-05,5.485860674525611e-05
0.0,0.0,0.0,-1.4100351108936593e-05,5.474316640174948e-05
0.0,0.0,0.0,-1.3932521142123733e-05,5.528697511181235e-05
0.0,0.0,0.0,-1.4071169061935507e-05,5.552991569857113e-05
0.0,0.0,0.0,-1.4131931493466254e-05,5.4845128033775836e-05
0.0,0.0,0.0,-1.4063728485780302e-05,5.4933581850491464e-05
0.0,0.0,0.0,-1.4243054465623572e-05,5.4837499192217365e-05
0.0,0.0,0.0,-1.419021009496646e-05,5.512719872058369e-05
0.0,0.0,0.0,-1.3681762538908515e-05,5.538871482713148e-05
0.0,0.0,0.0,-1.3205371033109259e-05,5.539402263821103e-05
0.0,0.0,0.0,-1.3746745935350191e-05,5.5448675993829966e-05
0.0,0.0,0.0,-1.3669123291037977e-05,5.570376379182562e-05
0.0,0.0,0.0,-1.3190850040700752e-05,5.578576019615866e-05
0.0,0.0,0.0,-1.331130897597177e-05,5.601321390713565e-05
0.0,0.0,0.0,-1.3182391739974264e-05,5.612257155007683e-05
0.0,0.0,0.0,-1.270418033527676e-05,5.632341708405875e-05
0.0,0.0,0.0,-1.2799429896404035e-05,5.703251008526422e-05
0.0,0.0,0.0,-1.2998986676393542e-05,5.682501432602294e-05
0.0,0.0,0.0,-1.3155911801732145e-05,5.6665965530555695e-05
0.0,0.0,0.0,-1.3297515579324681e-05,5.704566865460947e-05
0.0,0.0,0.0,-1.3496625797415618e-05,5.70514785067644e-05
0.0,0.0,0.0,-1.3141590898158029e-05,5.70828742638696e-05
0.0,0.0,0.0,-1.3105595826345962e-05,5.6834236602298915e-05
0.0,0.0,0.0,-1.3300303180585615e-05,5.672028419212438e-05
0.0,0.0,0.0,-1.3644954378833063e-05,5.634063563775271e-05
0.0,0.0,0.0,-1.377267199131893e-05,5.640463496092707e-05
0.0,0.0,0.0,-1.3749076060776133e-05,5.697021697415039e-05
0.0,0.0,0.0,-1.3442372619465459e-05,5.6519085774198174e-05
0.0,0.0,0.0,-1.3220067557995208e-05,5.6239834520965815e-05
0.0,0.0,0.0,-1.3312681403476745e-05,5.712751953979023e-05
0.0,0.0,0.0,-1.3199285604059696e-05,5.738610707339831e-05
0.0,0.0,0.0,-1.3580638551502489e-05,5.6424429203616455e-05
0.0,0.0,0.0,-1.3730355931329541e-05,5.64889851375483e-05
0.0,0.0,0.0,-1.3688524632016197e-05,5.663820411427878e-05
0.0,0.0,0.0,-1.3510056305676699e-05,5.6209923059213907e-05
0.0,0.0,0.0,-1.3673211469722446e-05,5.576118564931676e-05
0.0,0.0,0.0,-1.352759591100039e-05,5.5620152124902233e-05
0.0,0.0,0.0,-1.3845598004991189e-05,5.550704736378975e-05
0.0,0.0,0.0,-1.430916199751664e-05,5.5545235227327794e-05
0.0,0.0,0.0,-1.3845350622432306e-05,5.52243618585635e-05
0.0,0.0,0.0,-1.3693465007236227e-05,5.527934990823269e-05
0.0,0.0,0.0,-1.3823075278196484e-05,5.5785581935197115e-05
0.0,0.0,0.0,-1.371413509332342e-05,5.5366454034810886e-05
0.0,0.0,0.0,-1.3516861145035364e-05,5.5406846513506025e-05
0.0,0.0,0.0,-1.3631352885568049e-05,5.537996185012162e-05
0.0,0.0,0.0,-1.3860134458809625e-05,5.539507037610747e-05
0.0,0.0,0.0,-1.3686326383322012e-05,5.5645341490162537e-05
0.0,0.0,0.0,-1.3823743756802287e-05,5.599787982646376e-05
0.0,0.0,0.0,-1.371884900436271e-05,5.6070563005050644e-05
0.0,0.0,0.0,-1.3794906408293173e-05,5.605009209830314e-05
0.0,0.0,0.0,-1.3744192074227612e-05,5.607523053186014e-05
0.0,0.0,0.0,-1.3570799637818709e-05,5.6046581448754296e-05
0.0,0.0,0.0,-1.3221489098214079e-05,5.6460554333170876e-05
0.0,0.0,0.0,-1.326697656622855e-05,5.6738845159998164e-05
0.0,0.0,0.0,-1.3448172467178665e-05,5.6561289966339245e-05
0.0,0.0,0.0,-1.3244614819996059e-05,5.6550456065451726e-05
0.0,0.0,0.0,-1.3266290807223413e-05,5.733803118346259e-05
0.0,0.0,0.0,-1.326027177128708e-05,5.76424972678069e-05
0.0,0.0,0.0,-1.3128303180565126e-05,5.7103607105091214e-05
0.0,0.0,0.0,-1.2939311091031414e-05,5.703599890694022e-05
0.0,0.0,0.0,-1.2910144505440257e-05,5.709916877094656e-05
0.0,0.0,0.0,-1.3032558854320087e-05,5.7040771935135126e-05
0.0,0.0,0.0,-1.3146493984095287e-05,5.7009074225788936e-05
0.0,0.0,0.0,-1.2969005183549598e-05,5.673224222846329e-05
0.0,0.0,0.0,-1.288902603846509e-05,5.673446867149323e-05
0.0,0.0,0.0,-1.311041160079185e-05,5.6624921853654087e-05
0.0,0.0,0.0,-1.3774932995147537e-05,5.612745007965714e-05
0.0,0.0,0.0,-1.375473311782116e-05,5.600559234153479e-05
0.0,0.0,0.0,-1.3748894161835779e-05,5.615122790914029e-05
0.0,0.0,0.0,-1.3465655683830846e-05,5.661044269800186e-05
0.0,0.0,0.0,-1.3107264749123715e-05,5.6260960263898596e-05
0.0,0.0,0.0,-1.3634001334139612e-05,5.561927900998853e-05
0.0,0.0,0.0,-1.3846913134329952e-05,5.582381709245965e-05
0.0,0.0,0.0,-1.3440832844935358e-05,5.590422370005399e-05
0.0,0.0,0.0,-1.320560750173172e-05,5.590652654063888e-05
0.0,0.0,0.0,-1.3049681001575664e-05,5.51623415958602e-05
0.0,0.0,0.0,-1.357018481940031e-05,5.485423025675118e-05
0.0,0.0,0.0,-1.3784638213110156e-05,5.468722156365402e-05
0.0,0.0,0.0,-1.3741153452428989e-05,5.473621786222793e-05
0.0,0.0,0.0,-1.378714387101354e-05,5.471364420372993e-05
0.0,0.0,0.0,-1.392033118463587e-05,5.453306948766112e-05
0.0,0.0,0.0,-1.3961357581138145e-05,5.4388663556892425e-05
0.0,0.0,0.0,-1.3728554222325329e-05,5.4369411373045295e-05
0.0,0.0,0.0,-1.3944822057965212e-05,5.499902545125224e-05
0.0,0.0,0.0,-1.3929517990618479e-05,5.527749453904107e-05
0.0,0.0,0.0,-1.3925324310548604e-05,5.4772102885181084e-05
0.0,0.0,0.0,-1.3943062185717281e-05,5.4665339121129364e-05
0.0,0.0,0.0,-1.3810408745484892e-05,5.4665313655277714e-05
0.0,0.0,0.0,-1.3435763321467675e-05,5.444296766654588e-05
0.0,0.0,0.0,-1.2932703612023033e-05,5.4906173318158835e-05
0.0,0.0,0.0,-1.2992667507205624e-05,5.532720751943998e-05
0.0,0.0,0.0,-1.330376835539937e-05,5.5447770137107e-05
0.0,0.0,0.0,-1.3636758012580685e-05,5.523208892554976e-05
0.0,0.0,0.0,-1.38263667395222e-05,5.4913867643335834e-05
0.0,0.0,0.0,-1.3313696399563923e-05,5.528904512175359e-05
0.0,0.0,0.0,-1.2871944818471093e-05,5.612422319245525e-05
0.0,0.0,0.0,-1.2663777852139901e-05,5.601053999271244e-05
0.0,0.0,0.0,-1.3116211448505055e-05,5.581499863183126e-05
0.0,0.0,0.0,-1.2802246601495426e-05,5.593062815023586e-05
0.0,0.0,0.0,-1.272323788725771e-05,5.5889708164613694e-05
0.0,0.0,0.0,-1.304650868405588e-05,5.587317355093546e-05
0.0,0.0,0.0,-1.3332456546777394e-05,5.593219611910172e-05
0.0,0.0,0.0,-1.3231541743152775e-05,5.584355312748812e-05
0.0,0.0,0.0,-1.2807179700757843e-05,5.617421993520111e-05
0.0,0.0,0.0,-1.3004862921661697e-05,5.597818744718097e-05
0.0,0.0,0.0,-1.307580532738939e-05,5.611951928585768e-05
0.0,0.0,0.0,-1.3301503713591956e-05,5.640888775815256e-05
0.0,0.0,0.0,-1.3239699910627678e-05,5.677190711139701e-05
0.0,0.0,0.0,-1.2923967915412504e-05,5.6374155974481255e-05
0.0,0.0,0.0,-1.2906461051898077e-05,5.60539192520082e-05
0.0,0.0,0.0,-1.3253418728709221e-05,5.682616392732598e-05
0.0,0.0,0.0,-1.355137283098884e-05,5.700848487322219e-05
0.0,0.0,0.0,-1.3517766092263628e-05,5.626391794066876e-05
0.0,0.0,0.0,-1.333408636128297e-05,5.6428805692121387e-05
0.0,0.0,0.0,-1.3733813830185682e-05,5.66995695407968e-05
0.0,0.0,0.0,-1.3788464457320515e-05,5.6435812439303845e-05
0.0,0.0,0.0,-1.3828191185893957e-05,5.668717494700104e-05
0.0,0.0,0.0,-1.4094190191826783e-05,5.645249257213436e-05
0.0,0.0,0.0,-1.4104341971687973e-05,5.660338865709491e-05
0.0,0.0,0.0,-1.4041500435268972e-05,5.611463711829856e-05
0.0,0.0,0.0,-1.379975310555892e-05,5.606452759820968e-05
0.0,0.0,0.0,-1.3732985280512366e-05,5.6358683650614694e-05
0.0,0.0,0.0,-1.3789189324597828e-05,5.6153334298869595e-05
0.0,0.0,0.0,-1.374281600874383e-05,5.660341412294656e-05
0.0,0.0,0.0,-1.4067248230276164e-05,5.655879431287758e-05
0.0,0.0,0.0,-1.3851414223609027e-05,5.5982800404308364e-05
0.0,0.0,0.0,-1.3966347978566773e-05,5.614008114207536e-05
0.0,0.0,0.0,-1.3932559340901207e-05,5.650769162457436e-05
0.0,0.0,0.0,-1.3658042917086277e-05,5.6602082622703165e-05
0.0,0.0,0.0,-1.3851442417944781e-05,5.674623389495537e-05
0.0,0.0,0.0,-1.3915138879383449e-05,5.698840323020704e-05
0.0,0.0,0.0,-1.3965368452772964e-05,5.659969610860571e-05
0.0,0.0,0.0,-1.3683333236258477e-05,5.6835186114767566e-05
0.0,0.0,0.0,-1.3826460417476483e-05,5.665865319315344e-05
0.0,0.0,0.0,-1.3535446669266094e-05,5.696375228581019e-05
0.0,0.0,0.0,-1.3283798580232542e-05,5.704805880668573e-05
0.0,0.0,0.0,-1.307187085330952e-05,5.7072509662248194e-05
0.0,0.0,0.0,-1.3102935554343276e-05,5.767483526142314e-05
0.0,0.0,0.0,-1.3089724234305322e-05,5.782778316643089e-05
0.0,0.0,0.0,-1.308795344812097e-05,5.700275141862221e-05
0.0,0.0,0.0,-1.3219057109381538e-05,5.6909364502644166e-05
0.0,0.0,0.0,-1.3508012671081815e-05,5.72294375160709e-05
0.0,0.0,0.0,-1.3680541997018736e-05,5.672025872627273e-05
0.0,0.0,0.0,-1.3515959835785907e-05,5.67542520002462e-05
0.0,0.0,0.0,-1.3669217878486961e-05,5.66309317946434e-05
0.0,0.0,0.0,-1.3529846910387278e-05,5.6391207181150094e-05
0.0,0.0,0.0,-1.3600318197859451e-05,5.603328099823557e-05
0.0,0.0,0.0,-1.3200490684539545e-05,5.613515168079175e-05
0.0,0.0,0.0,-1.3036498785368167e-05,5.6265966122737154e-05
0.0,0.0,0.0,-1.3480113011610229e-05,5.586557381320745e-05
0.0,0.0,0.0,-1.3700788258574903e-05,5.5603686632821336e-05
0.0,0.0,0.0,-1.3524510904971976e-05,5.554449307965115e-05
0.0,0.0,0.0,-1.3628172382595949e-05,5.525919914362021e-05
0.0,0.0,0.0,-1.385992163704941e-05,5.5233846069313586e-05
0.0,0.0,0.0,-1.3178524568502326e-05,5.4675369028700516e-05
0.0,0.0,0.0,-1.3574985132436268e-05,5.478762250277214e-05
0.0,0.0,0.0,-1.4065564755583182e-05,5.466676884680055e-05
0.0,0.0,0.0,-1.3837296137353405e-05,5.4755866585765034e-05
0.0,0.0,0.0,-1.3780283552478068e-05,5.44826289115008e-05
0.0,0.0,0.0,-1.3744874195253942e-05,5.437689469545148e-05
0.0,0.0,0.0,-1.378367051074747e-05,5.4588221246376634e-05
0.0,0.0,0.0,-1.3743069757765625e-05,5.434857666841708e-05
0.0,0.0,0.0,-1.395427534589544e-05,5.421775495051406e-05
0.0,0.0,0.0,-1.3924505765317008e-05,5.453811536426656e-05
0.0,0.0,0.0,-1.3777634194411803e-05,5.532868817681447e-05
0.0,0.0,0.0,-1.3749721802014392e-05,5.547948239836842e-05
0.0,0.0,0.0,-1.377704757032916e-05,5.477448212332092e-05
0.0,0.0,0.0,-1.3634095012093894e-05,5.466205038828775e-05
0.0,0.0,0.0,-1.3345067600312177e-05,5.4882206313777715e-05
0.0,0.0,0.0,-1.3182829206925817e-05,5.4887146688997746e-05
0.0,0.0,0.0,-1.3413592569122557e-05,5.497574238688685e-05
0.0,0.0,0.0,-1.3514943930204026e-05,5.519191108760424e-05
0.0,0.0,0.0,-1.3663396202900913e-05,5.525410233531147e-05
0.0,0.0,0.0,-1.3434892935038079e-05,5.524259904632345e-05
0.0,0.0,0.0,-1.3072740330244415e-05,5.556032920139842e-05
0.0,0.0,0.0,-1.3108826351526659e-05,5.561381112784147e-05
0.0,0.0,0.0,-1.3078172742098104e-05,5.610175139736384e-05
0.0,0.0,0.0,-1.3104140634823125e-05,5.540651545743458e-05
0.0,0.0,0.0,-1.33693438328919e-05,5.594727917923592e-05
0.0,0.0,0.0,-1.3200956345826853e-05,5.6162014516303316e-05
0.0,0.0,0.0,-1.3544839021051303e-05,5.59739455638919e-05
0.0,0.0,0.0,-1.3387669241637923e-05,5.6137909268727526e-05
0.0,0.0,0.0,-1.2919040273118299e-05,5.599568612524308e-05
0.0,0.0,0.0,-1.3467933968058787e-05,5.6118358770618215e-05
0.0,0.0,0.0,-1.3338828466658015e-05,5.601321754511446e-05
0.0,0.0,0.0,-1.3921589015808422e-05,5.610268271993846e-05
0.0,0.0,0.0,-1.3883018255000934e-05,5.602718738373369e-05
0.0,0.0,0.0,-1.3753585335507523e-05,5.589885404333472e-05
0.0,0.0,0.0,-1.3598551959148608e-05,5.5510456149932e-05
0.0,0.0,0.0,-1.357004111923743e-05,5.558069096878171e-05
0.0,0.0,0.0,-1.3798147847410291e-05,5.555495590670034e-05
0.0,0.0,0.0,-1.4026787539478391e-05,5.5695531045785174e-05
0.0,0.0,0.0,-1.4188511158863548e-05,5.577535921474919e-05
0.0,0.0,0.0,-1.374528346786974e-05,5.540908023249358e-05
0.0,0.0,0.0,-1.3781968846160453e-05,5.51401826669462e-05
0.0,0.0,0.0,-1.3745761862082873e-05,5.4543914302485064e-05
0.0,0.0,0.0,-1.387641441397136e-05,5.4141608416102827e-05
0.0,0.0,0.0,-1.40647016451112e-05,5.44505674042739e-05
0.0,0.0,0.0,-1.4204352737579029e-05,5.4712232667952776e-05
0.0,0.0,0.0,-1.4319327419798356e-05,5.466055517899804e-05
0.0,0.0,0.0,-1.417220937582897e-05,5.43540736543946e-05
0.0,0.0,0.0,-1.4037942491995636e-05,5.410132871475071e-05
0.0,0.0,0.0,-1.415015049133217e-05,5.4370098951039836e-05
0.0,0.0,0.0,-1.4058208762435243e-05,5.478218008647673e-05
0.0,0.0,0.0,-1.413165227859281e-05,5.560097633861005e-05
0.0,0.0,0.0,-1.4074973478273023e-05,5.52571436855942e-05
0.0,0.0,0.0,-1.3840071915183216e-05,5.460805186885409e-05
0.0,0.0,0.0,-1.398082258674549e-05,5.508751928573474e-05
0.0,0.0,0.0,-1.3915436284150928e-05,5.5261629313463345e-05
0.0,0.0,0.0,-1.3921940990258008e-05,5.545727253775112e-05
0.0,0.0,0.0,-1.3959964235255029e-05,5.533915827982128e-05
0.0,0.0,0.0,-1.3666470294992905e-05,5.542734288610518e-05
0.0,0.0,0.0,-1.3837356164003722e-05,5.557803888223134e-05
0.0,0.0,0.0,-1.3508454685506877e-05,5.5960259487619624e-05
0.0,0.0,0.0,-1.325718858424807e-05,5.643879558192566e-05
0.0,0.0,0.0,-1.3073233276372775e-05,5.6934233725769445e-05
0.0,0.0,0.0,-1.3438728274195455e-05,5.689647150575183e-05
0.0,0.0,0.0,-1.3458269677357748e-05,5.6882872740970924e-05
0.0,0.0,0.0,-1.3069232409179676e-05,5.782902371720411e-05
0.0,0.0,0.0,-1.2981407962797675e-05,5.816464909003116e-05
0.0,0.0,0.0,-1.298662755289115e-05,5.745755697716959e-05
0.0,0.0,0.0,-1.3321269761945587e-05,5.711874473490752e-05
0.0,0.0,0.0,-1.2983782653464004e-05,5.6806842621881515e-05
0.0,0.0,0.0,-1.2969835552212317e-05,5.676081127603538e-05
0.0,0.0,0.0,-1.3282554391480517e-05,5.702694397768937e-05
0.0,0.0,0.0,-1.3169388694223017e-05,5.671507096849382e-05
0.0,0.0,0.0,-1.3023686733504292e-05,5.662310286425054e-05
0.0,0.0,0.0,-1.3152401152183302e-05,5.62083296244964e-05
0.0,0.0,0.0,-1.3082750228932127e-05,5.663630145136267e-05
0.0,0.0,0.0,-1.3404978744802065e-05,5.674986823578365e-05
0.0,0.0,0.0,-1.3123963071848266e-05,5.607244384009391e-05
0.0,0.0,0.0,-1.3064260201645084e-05,5.60501248401124e-05
0.0,0.0,0.0,-1.3117050912114792e-05,5.607340790447779e-05
0.0,0.0,0.0,-1.2793602763849776e-05,5.605005571851507e-05
0.0,0.0,0.0,-1.3004529137106147e-05,5.607273124041967e-05
0.0,0.0,0.0,-1.3395452697295696e-05,5.528562542167492e-05
0.0,0.0,0.0,-1.3665443475474603e-05,5.472591510624625e-05
0.0,0.0,0.0,-1.3794870937999804e-05,5.4760643251938745e-05
0.0,0.0,0.0,-1.3740367649006657e-05,5.4908527090447024e-05
0.0,0.0,0.0,-1.377978242089739e-05,5.531499846256338e-05
0.0,0.0,0.0,-1.3955868780612946e-05,5.516799501492642e-05
0.0,0.0,0.0,-1.4118159015197307e-05,5.505482840817422e-05
0.0,0.0,0.0,-1.3907054380979389e-05,5.487549788085744e-05
0.0,0.0,0.0,-1.3931045032222755e-05,5.470770338433795e-05
0.0,0.0,0.0,-1.4110586562310345e-05,5.4889136663405225e-05
0.0,0.0,0.0,-1.3936934010416735e-05,5.549228808376938e-05
0.0,0.0,0.0,-1.3780948393105064e-05,5.564926686929539e-05
0.0,0.0,0.0,-1.3745198884862475e-05,5.494098149938509e-05
0.0,0.0,0.0,-1.3782740097667556e-05,5.494898505276069e-05
0.0,0.0,0.0,-1.3744291209150106e-05,5.515717202797532e-05
0.0,0.0,0.0,-1.3782856512989383e-05,5.505380977410823e-05
0.0,0.0,0.0,-1.3489635421137791e-05,5.571463407250121e-05
0.0,0.0,0.0,-1.2915013030578848e-05,5.604658872471191e-05
0.0,0.0,0.0,-1.2993628843105398e-05,5.5702297686366364e-05
0.0,0.0,0.0,-1.3177030268707313e-05,5.5797139793867245e-05
0.0,0.0,0.0,-1.2977699952898547e-05,5.601669545285404e-05
0.0,0.0,0.0,-1.2883951967523899e-05,5.6129225413315e-05
0.0,0.0,0.0,-1.2974288438272197e-05,5.637387585011311e-05
0.0,0.0,0.0,-1.3189611308916938e-05,5.703771239495836e-05
0.0,0.0,0.0,-1.3300636965141166e-05,5.681153561454266e-05
0.0,0.0,0.0,-1.3807520190312061e-05,5.6386790674878284e-05
0.0,0.0,0.0,-1.292244724027114e-05,5.615525515167974e-05
0.0,0.0,0.0,-1.3449387552100234e-05,5.600484291790053e-05
0.0,0.0,0.0,-1.3679586118087173e-05,5.61112210561987e-05
0.0,0.0,0.0,-1.3026721717324108e-05,5.6018812756519765e-05
0.0,0.0,0.0,-1.365761363558704e-05,5.609822619589977e-05
0.0,0.0,0.0,-1.3279684026201721e-05,5.6030847190413624e-05
0.0,0.0,0.0,-1.3106098776916042e-05,5.608713036053814e-05
0.0,0.0,0.0,-1.3080446478852537e-05,5.604102625511587e-05
0.0,0.0,0.0,-1.3282899089972489e-05,5.607784623862244e-05
0.0,0.0,0.0,-1.3427748854155652e-05,5.604944090009667e-05
0.0,0.0,0.0,-1.3587489775090944e-05,5.622979369945824e-05
0.0,0.0,0.0,-1.3765040421276353e-05,5.683980634785257e-05
0.0,0.0,0.0,-1.3624216080643237e-05,5.684703864972107e-05
