1.7735204892233014e-05,-4.864792208536528e-05,0.0,0.0,0.0
1.756501842464786e-05,-4.897241524304263e-05,0.0,0.0,0.0
1.764165426720865e-05,-4.903755325358361e-05,0.0,0.0,0.0
1.7639344150666147e-05,-4.8986385081661865e-05,0.0,0.0,0.0
1.7339627447654493e-05,-4.9281734391115606e-05,0.0,0.0,0.0
1.755249650159385e-05,-4.9819085688795894e-05,0.0,0.0,0.0
1.7155240129795857e-05,-4.984473343938589e-05,0.0,0.0,0.0
1.7160768038593233e-05,-5.004411286790855e-05,0.0,0.0,0.0
1.7091442714445293e-05,-5.024411075282842e-05,0.0,0.0,0.0
1.7523090718896128e-05,-4.9544825742486864e-05,0.0,0.0,0.0
1.7803069567889906e-05,-4.940078724757768e-05,0.0,0.0,0.0
1.760781742632389e-05,-4.9304962885798886e-05,0.0,0.0,0.0
1.746809357427992e-05,-4.938096026307903e-05,0.0,0.0,0.0
1.7590813513379544e-05,-4.947176785208285e-05,0.0,0.0,0.0
1.7806274627218954e-05,-4.9560261686565354e-05,0.0,0.0,0.0
1.777635043254122e-05,-4.908931441605091e-05,0.0,0.0,0.0
1.769157825037837e-05,-4.845772127737291e-05,0.0,0.0,0.0
1.7557766113895923e-05,-4.82329232909251e-05,0.0,0.0,0.0
1.7687509171082638e-05,-4.8436362703796476e-05,0.0,0.0,0.0
1.7480439055361785e-05,-4.8173274990404025e-05,0.0,0.0,0.0
1.7437654605600983e-05,-4.82433897559531e-05,0.0,0.0,0.0
1.7534153812448494e-05,-4.849058677791618e-05,0.0,0.0,0.0
1.7753269275999628e-05,-4.846541924052872e-05,0.0,0.0,0.0
1.7823209418565966e-05,-4.8116809921339154e-05,0.0,0.0,0.0
1.779930607881397e-05,-4.754068504553288e-05,0.0,0.0,0.0
1.8086799173033796e-05,-4.7389559767907485e-05,0.0,0.0,0.0
1.785253334674053e-05,-4.635212098946795e-05,0.0,0.0,0.0
1.7164895325549878e-05,-4.6876179112587124e-05,0.0,0.0,0.0
1.7084077626350336e-05,-4.710323264589533e-05,0.0,0.0,0.0
1.715038342808839e-05,-4.743881800095551e-05,0.0,0.0,0.0
1.76072571775876e-05,-4.78153997391928e-05,0.0,0.0,0.0
1.7383765225531533e-05,-4.754651672556065e-05,0.0,0.0,0.0
1.6998870705720037e-05,-4.823857670999132e-05,0.0,0.0,0.0
1.7219927030964755e-05,-4.808376252185553e-05,0.0,0.0,0.0
1.7041278624674305e-05,-4.800855822395533e-05,0.0,0.0,0.0
1.738440005283337e-05,-4.8005127609940246e-05,0.0,0.0,0.0
1.7616011973586865e-05,-4.800140595762059e-05,0.0,0.0,0.0
1.7824069800553843e-05,-4.8372556193498895e-05,0.0,0.0,0.0
1.7430957086617127e-05,-4.868390897172503e-05,0.0,0.0,0.0
1.7122629287769087e-05,-4.867318784818053e-05,0.0,0.0,0.0
1.742252425174229e-05,-4.8675610742066056e-05,0.0,0.0,0.0
1.7778798792278394e-05,-4.868000905844383e-05,0.0,0.0,0.0
1.7808928532758728e-05,-4.8797748604556546e-05,0.0,0.0,0.0
1.7655418560025282e-05,-4.91282444272656e-05,0.0,0.0,0.0
1.759616134222597e-05,-4.944021929986775e-05,0.0,0.0,0.0
1.7552340068505146e-05,-4.9777805543271825e-05,0.0,0.0,0.0
1.7287991795456037e-05,-4.991446985513903e-05,0.0,0.0,0.0
1.743548818922136e-05,-4.9723817937774584e-05,0.0,0.0,0.0
1.7850034055300057e-05,-4.951982555212453e-05,0.0,0.0,0.0
1.7741505871526897e-05,-4.920717401546426e-05,0.0,0.0,0.0
1.783536936272867e-05,-4.950087168253958e-05,0.0,0.0,0.0
1.7787362594390288e-05,-4.950143920723349e-05,0.0,0.0,0.0
1.809802597563248e-05,-4.9197624321095645e-05,0.0,0.0,0.0
1.7842427041614428e-05,-4.9159996706293896e-05,0.0,0.0,0.0
1.7747861420502886e-05,-4.889085903414525e-05,0.0,0.0,0.0
1.7830590877565555e-05,-4.883239671471529e-05,0.0,0.0,0.0
1.749255898175761e-05,-4.882908979197964e-05,0.0,0.0,0.0
1.719579449854791e-05,-4.887881732429378e-05,0.0,0.0,0.0
1.7582220607437193e-05,-4.8551308282185346e-05,0.0,0.0,0.0
1.7637717974139377e-05,-4.8771154979476705e-05,0.0,0.0,0.0
1.7141337593784556e-05,-4.8831199819687754e-05,0.0,0.0,0.0
1.7175747416331433e-05,-4.8653106205165386e-05,0.0,0.0,0.0
1.7277719962294213e-05,-4.785772762261331e-05,0.0,0.0,0.0
1.7698208466754295e-05,-4.769256338477135e-05,0.0,0.0,0.0
1.776328463165555e-05,-4.7482513764407486e-05,0.0,0.0,0.0
1.7983655197895132e-05,-4.731690569315106e-05,0.0,0.0,0.0
1.8117110812454484e-05,-4.720095603261143e-05,0.0,0.0,0.0
1.828274253057316e-05,-4.7110308514675125e-05,0.0,0.0,0.0
1.8044216631096788e-05,-4.7373407142004e-05,0.0,0.0,0.0
1.7473728803452104e-05,-4.72896354040131e-05,0.0,0.0,0.0
1.7443415345042013e-05,-4.737969720736146e-05,0.0,0.0,0.0
1.7571714124642313e-05,-4.7392648411914706e-05,0.0,0.0,0.0
1.7675180060905404e-05,-4.789222657564096e-05,0.0,0.0,0.0
1.7406102415407076e-05,-4.827065276913345e-05,0.0,0.0,0.0
1.7114753063651733e-05,-4.8404977860627696e-05,0.0,0.0,0.0
1.7187423509312794e-05,-4.8282116040354595e-05,0.0,0.0,0.0
1.74802407855168e-05,-4.8339683416998014e-05,0.0,0.0,0.0
1.782562321750447e-05,-4.799089947482571e-05,0.0,0.0,0.0
1.8038161215372384e-05,-4.8081146815093234e-05,0.0,0.0,0.0
1.7553595171193592e-05,-4.858854663325474e-05,0.0,0.0,0.0
1.7375754396198317e-05,-4.875003287452273e-05,0.0,0.0,0.0
1.752196294546593e-05,-4.8615595005685464e-05,0.0,0.0,0.0
1.7403932361048646e-05,-4.8724847147241235e-05,0.0,0.0,0.0
1.7497019143775105e-05,-4.8904737923294306e-05,0.0,0.0,0.0
1.768109723343514e-05,-4.9328893510391936e-05,0.0,0.0,0.0
1.7355509044136852e-05,-4.9332033086102456e-05,0.0,0.0,0.0
1.7259129890589975e-05,-4.958909994456917e-05,0.0,0.0,0.0
1.7332426068605855e-05,-4.993094262317754e-05,0.0,0.0,0.0
1.7022201063809916e-05,-4.9588481488171965e-05,0.0,0.0,0.0
1.760009581630584e-05,-4.952448216499761e-05,0.0,0.0,0.0
1.795732714526821e-05,-4.9329755711369216e-05,0.0,0.0,0.0
1.8152644770452753e-05,-4.897200778941624e-05,0.0,0.0,0.0
1.7945085346582346e-05,-4.920799256069586e-05,0.0,0.0,0.0
1.7789490811992437e-05,-4.917903424939141e-05,0.0,0.0,0.0
1.780217826308217e-05,-4.9010453949449584e-05,0.0,0.0,0.0
1.7775793821783736e-05,-4.8882633564062417e-05,0.0,0.0,0.0
1.794052150216885e-05,-4.8539164708927274e-05,0.0,0.0,0.0
1.809471723390743e-05,-4.848110256716609e-05,0.0,0.0,0.0
1.8161854313802905e-05,-4.863772846874781e-05,0.0,0.0,0.0
1.799761776055675e-05,-4.871513738180511e-05,0.0,0.0,0.0
1.7929647583514452e-05,-4.8637859435984865e-05,0.0,0.0,0.0
1.783372317731846e-05,-4.856472878600471e-05,0.0,0.0,0.0
1.7387428670190275e-05,-4.7892197471810505e-05,0.0,0.0,0.0
1.7614231182960793e-05,-4.7487654228461906e-05,0.0,0.0,0.0
1.7901176761370152e-05,-4.7769735829206184e-05,0.0,0.0,0.0
1.7363983715767972e-05,-4.7229019401129335e-05,0.0,0.0,0.0
1.7531916455482133e-05,-4.70823360956274e-05,0.0,0.0,0.0
1.738539504003711e-05,-4.694291783380322e-05,0.0,0.0,0.0
1.721225999062881e-05,-4.702635851572268e-05,0.0,0.0,0.0
1.704844726191368e-05,-4.814074782188982e-05,0.0,0.0,0.0
1.7175329048768617e-05,-4.787396756000817e-05,0.0,0.0,0.0
1.7591946743777953e-05,-4.75948654639069e-05,0.0,0.0,0.0
1.763508225849364e-05,-4.768707003677264e-05,0.0,0.0,0.0
1.7129261323134415e-05,-4.792789331986569e-05,0.0,0.0,0.0
1.7164877135655843e-05,-4.775056731887162e-05,0.0,0.0,0.0
1.7093601854867302e-05,-4.834181527257897e-05,0.0,0.0,0.0
1.7334874428343028e-05,-4.847384479944594e-05,0.0,0.0,0.0
1.7471240425948054e-05,-4.8538611736148596e-05,0.0,0.0,0.0
1.7614242096897215e-05,-4.830342732020654e-05,0.0,0.0,0.0
1.7488744560978375e-05,-4.852232814300805e-05,0.0,0.0,0.0
1.707118826743681e-05,-4.8690671974327415e-05,0.0,0.0,0.0
1.761683597578667e-05,-4.879415428149514e-05,0.0,0.0,0.0
1.7796175598050468e-05,-4.905414971290156e-05,0.0,0.0,0.0
1.7648017092142254e-05,-4.908717892249115e-05,0.0,0.0,0.0
1.7488902813056484e-05,-4.9632824811851606e-05,0.0,0.0,0.0
1.731494558043778e-05,-4.972496390109882e-05,0.0,0.0,0.0
1.7266136637772433e-05,-4.9556059821043164e-05,0.0,0.0,0.0
1.730790245346725e-05,-4.96426728204824e-05,0.0,0.0,0.0
1.734541729092598e-05,-4.9964601203100756e-05,0.0,0.0,0.0
1.7551359633216634e-05,-4.931061630486511e-05,0.0,0.0,0.0
1.748247814248316e-05,-4.938487472827546e-05,0.0,0.0,0.0
1.8087641365127638e-05,-4.9311543989460915e-05,0.0,0.0,0.0
1.7827924239099957e-05,-4.938174970448017e-05,0.0,0.0,0.0
1.775854434526991e-05,-4.9295183998765424e-05,0.0,0.0,0.0
1.7823364032665268e-05,-4.908164919470437e-05,0.0,0.0,0.0
1.7762557035894133e-05,-4.8952646466204897e-05,0.0,0.0,0.0
1.781979517545551e-05,-4.878476102021523e-05,0.0,0.0,0.0
1.776577664713841e-05,-4.859887485508807e-05,0.0,0.0,0.0
1.7561609638505615e-05,-4.873827856499702e-05,0.0,0.0,0.0
1.74017022800399e-05,-4.8139310820261016e-05,0.0,0.0,0.0
1.7270513126277365e-05,-4.845195508096367e-05,0.0,0.0,0.0
1.750055162119679e-05,-4.874858495895751e-05,0.0,0.0,0.0
1.789154703146778e-05,-4.861005800194107e-05,0.0,0.0,0.0
1.770835297065787e-05,-4.833279308513738e-05,0.0,0.0,0.0
1.7861379092209972e-05,-4.7728928620927036e-05,0.0,0.0,0.0
1.7735501387505792e-05,-4.755183181259781e-05,0.0,0.0,0.0
1.766691275406629e-05,-4.726918268715963e-05,0.0,0.0,0.0
1.7257363651879132e-05,-4.738984353025444e-05,0.0,0.0,0.0
1.7446653146180324e-05,-4.72844039904885e-05,0.0,0.0,0.0
1.7491362086730078e-05,-4.751417873194441e-05,0.0,0.0,0.0
1.727584640320856e-05,-4.7755034756846726e-05,0.0,0.0,0.0
1.7544552974868566e-05,-4.803179035661742e-05,0.0,0.0,0.0
1.7588326954864897e-05,-4.808878293260932e-05,0.0,0.0,0.0
1.714734753477387e-05,-4.8439342208439484e-05,0.0,0.0,0.0
1.7094085706048645e-05,-4.848585376748815e-05,0.0,0.0,0.0
1.7146625395980664e-05,-4.8065136070363224e-05,0.0,0.0,0.0
1.7095455405069515e-05,-4.795474887941964e-05,0.0,0.0,0.0
1.7144702724181116e-05,-4.804586569662206e-05,0.0,0.0,0.0
1.7182921510539018e-05,-4.801467730430886e-05,0.0,0.0,0.0
1.7710870451992378e-05,-4.8298777983291075e-05,0.0,0.0,0.0
1.7535030565341003e-05,-4.805456046597101e-05,0.0,0.0,0.0
1.73915450432105e-05,-4.7981462557800114e-05,0.0,0.0,0.0
1.7508718883618712e-05,-4.862580317421816e-05,0.0,0.0,0.0
1.713834353722632e-05,-4.871725832344964e-05,0.0,0.0,0.0
1.711475670163054e-05,-4.8909656470641494e-05,0.0,0.0,0.0
1.7383803424309008e-05,-4.932662341161631e-05,0.0,0.0,0.0
1.723335481074173e-05,-4.933174204779789e-05,0.0,0.0,0.0
1.7311409465037286e-05,-4.912388976663351e-05,0.0,0.0,0.0
1.7290658433921635e-05,-4.898226688965224e-05,0.0,0.0,0.0
1.705460817902349e-05,-4.9246045819018036e-05,0.0,0.0,0.0
1.7373897208017297e-05,-4.935138349537738e-05,0.0,0.0,0.0
1.7815422324929386e-05,-4.89579833811149e-05,0.0,0.0,0.0
1.8165215806220658e-05,-4.884400186710991e-05,0.0,0.0,0.0
1.7931435650098138e-05,-4.9026963097276166e-05,0.0,0.0,0.0
1.7803848095354624e-05,-4.884399095317349e-05,0.0,0.0,0.0
1.793633600755129e-05,-4.8678000894142315e-05,0.0,0.0,0.0
1.798596713342704e-05,-4.8678677558200434e-05,0.0,0.0,0.0
1.76780504261842e-05,-4.867056122748181e-05,0.0,0.0,0.0
1.7331309209112078e-05,-4.8567620979156345e-05,0.0,0.0,0.0
1.725038600852713e-05,-4.8342342779506e-05,0.0,0.0,0.0
1.722532215353567e-05,-4.82461582578253e-05,0.0,0.0,0.0
1.6944897652138025e-05,-4.801987233804539e-05,0.0,0.0,0.0
1.7031563402269967e-05,-4.799443922820501e-05,0.0,0.0,0.0
1.7326430679531768e-05,-4.794773485627957e-05,0.0,0.0,0.0
1.7666863641352393e-05,-4.7641093260608613e-05,0.0,0.0,0.0
1.789883572200779e-05,-4.72996398457326e-05,0.0,0.0,0.0
1.7638330973568372e-05,-4.70591512566898e-05,0.0,0.0,0.0
1.727214112179354e-05,-4.726846964331344e-05,0.0,0.0,0.0
1.6995092664728872e-05,-4.7400219045812264e-05,0.0,0.0,0.0
1.722258275549393e-05,-4.757617716677487e-05,0.0,0.0,0.0
1.7039907106664032e-05,-4.7747518692631274e-05,0.0,0.0,0.0
1.718232306302525e-05,-4.760428055305965e-05,0.0,0.0,0.0
1.7075808500521816e-05,-4.797711153514683e-05,0.0,0.0,0.0
1.715057442197576e-05,-4.8238958697766066e-05,0.0,0.0,0.0
1.686965515546035e-05,-4.860815897700377e-05,0.0,0.0,0.0
1.6542966477572918e-05,-4.822929622605443e-05,0.0,0.0,0.0
1.6877404050319456e-05,-4.817191802430898e-05,0.0,0.0,0.0
1.6943688024184667e-05,-4.839997200178914e-05,0.0,0.0,0.0
1.6949212295003235e-05,-4.809676102013327e-05,0.0,0.0,0.0
1.7507423763163388e-05,-4.803958654520102e-05,0.0,0.0,0.0
1.7455355191486888e-05,-4.848463140660897e-05,0.0,0.0,0.0
1.7259364540223032e-05,-4.9052658141590655e-05,0.0,0.0,0.0
1.7482800103607588e-05,-4.897768667433411e-05,0.0,0.0,0.0
1.7288817616645247e-05,-4.904044544673525e-05,0.0,0.0,0.0
1.741222877171822e-05,-4.911641372018494e-05,0.0,0.0,0.0
1.773803523974493e-05,-4.935737160849385e-05,0.0,0.0,0.0
1.78431309905136e-05,-4.934111348120496e-05,0.0,0.0,0.0
1.774424708855804e-05,-4.9447193305240944e-05,0.0,0.0,0.0
1.7836086044553667e-05,-4.966330016031861e-05,0.0,0.0,0.0
1.7603044398128986e-05,-4.96242028020788e-05,0.0,0.0,0.0
1.733479803078808e-05,-4.9361966375727206e-05,0.0,0.0,0.0
1.7660022422205657e-05,-4.9333448259858415e-05,0.0,0.0,0.0
1.7861677406472154e-05,-4.931915827910416e-05,0.0,0.0,0.0
1.7429621948394924e-05,-4.900166823063046e-05,0.0,0.0,0.0
1.777927354851272e-05,-4.8676924052415416e-05,0.0,0.0,0.0
1.7483716874266975e-05,-4.837279993807897e-05,0.0,0.0,0.0
1.7130014384747483e-05,-4.8614292609272525e-05,0.0,0.0,0.0
1.739268373057712e-05,-4.90035890834406e-05,0.0,0.0,0.0
1.7494088751845993e-05,-4.8743047955213115e-05,0.0,0.0,0.0
1.7173495507449843e-05,-4.8642301408108324e-05,0.0,0.0,0.0
1.7108033716795035e-05,-4.870668635703623e-05,0.0,0.0,0.0
1.7369966371916234e-05,-4.841532063437626e-05,0.0,0.0,0.0
1.768648871802725e-05,-4.811651160707697e-05,0.0,0.0,0.0
1.781225364538841e-05,-4.777070716954768e-05,0.0,0.0,0.0
1.7770365957403556e-05,-4.746797640109435e-05,0.0,0.0,0.0
1.7623198800720274e-05,-4.712623922387138e-05,0.0,0.0,0.0
1.7421993106836453e-05,-4.700014687841758e-05,0.0,0.0,0.0
1.765890556271188e-05,-4.7165685828076676e-05,0.0,0.0,0.0
1.7447155187255703e-05,-4.734013418783434e-05,0.0,0.0,0.0
1.7440539522795007e-05,-4.732804518425837e-05,0.0,0.0,0.0
1.7627979104872793e-05,-4.733778769150376e-05,0.0,0.0,0.0
1.748654176481068e-05,-4.7457873733947054e-05,0.0,0.0,0.0
1.7544920410728082e-05,-4.766271013068035e-05,0.0,0.0,0.0
1.7593656593817286e-05,-4.7675428504589945e-05,0.0,0.0,0.0
1.7137479517259635e-05,-4.795031054527499e-05,0.0,0.0,0.0
1.7107449821196496e-05,-4.845588409807533e-05,0.0,0.0,0.0
1.7130698324763216e-05,-4.8091165808727965e-05,0.0,0.0,0.0
1.7240738088730723e-05,-4.7996134526329115e-05,0.0,0.0,0.0
1.7740147086442448e-05,-4.83188996440731e-05,0.0,0.0,0.0
1.783695370249916e-05,-4.805476783076301e-05,0.0,0.0,0.0
1.7721693438943475e-05,-4.8328598495572805e-05,0.0,0.0,0.0
1.7527258023619652e-05,-4.8677185986889526e-05,0.0,0.0,0.0
1.739692197588738e-05,-4.868427276960574e-05,0.0,0.0,0.0
1.7505170035292394e-05,-4.897080361843109e-05,0.0,0.0,0.0
1.741706182656344e-05,-4.904507295577787e-05,0.0,0.0,0.0
1.7221051166416146e-05,-4.8986043111654e-05,0.0,0.0,0.0
1.757381687639281e-05,-4.877637911704369e-05,0.0,0.0,0.0
1.740971492836252e-05,-4.9120219046017155e-05,0.0,0.0,0.0
1.7447679056203924e-05,-4.9438600399298593e-05,0.0,0.0,0.0
1.795324897102546e-05,-4.9274818593403324e-05,0.0,0.0,0.0
1.745183180901222e-05,-4.940451981383376e-05,0.0,0.0,0.0
1.753602919052355e-05,-4.93049192300532e-05,0.0,0.0,0.0
1.739989784255158e-05,-4.9378140829503536e-05,0.0,0.0,0.0
1.7854092220659368e-05,-4.9147038225783035e-05,0.0,0.0,0.0
1.7954527720576152e-05,-4.88447149109561e-05,0.0,0.0,0.0
1.7778733308659866e-05,-4.86749668198172e-05,0.0,0.0,0.0
1.781396713340655e-05,-4.86716307932511e-05,0.0,0.0,0.0
1.776324279489927e-05,-4.868573523708619e-05,0.0,0.0,0.0
1.7953580027096905e-05,-4.840782639803365e-05,0.0,0.0,0.0
1.8081387679558247e-05,-4.803836054634303e-05,0.0,0.0,0.0
1.7856193153420463e-05,-4.818439992959611e-05,0.0,0.0,0.0
1.7023359760059975e-05,-4.848646494792774e-05,0.0,0.0,0.0
1.689598684606608e-05,-4.8037552915047854e-05,0.0,0.0,0.0
1.7145437595900148e-05,-4.783107578987256e-05,0.0,0.0,0.0
1.7541853594593704e-05,-4.740246731671505e-05,0.0,0.0,0.0
1.779418198566418e-05,-4.722441371995956e-05,0.0,0.0,0.0
1.8057256966130808e-05,-4.711674773716368e-05,0.0,0.0,0.0
1.748020076774992e-05,-4.72365427413024e-05,0.0,0.0,0.0
1.7113716239691712e-05,-4.739086944027804e-05,0.0,0.0,0.0
1.712462653813418e-05,-4.699842611444183e-05,0.0,0.0,0.0
1.711873301246669e-05,-4.759167495649308e-05,0.0,0.0,0.0
1.7121070413850248e-05,-4.801569593837485e-05,0.0,0.0,0.0
1.685517781879753e-05,-4.797998917638324e-05,0.0,0.0,0.0
1.7004893379635178e-05,-4.8284116928698495e-05,0.0,0.0,0.0
1.718130624794867e-05,-4.834896753891371e-05,0.0,0.0,0.0
1.707057708699722e-05,-4.856980740441941e-05,0.0,0.0,0.0
1.7160846255137585e-05,-4.870260090683587e-05,0.0,0.0,0.0
1.708939998934511e-05,-4.865635128226131e-05,0.0,0.0,0.0
1.754779259499628e-05,-4.8690795665606856e-05,0.0,0.0,0.0
1.7613951058592647e-05,-4.847486343351193e-05,0.0,0.0,0.0
1.761110070219729e-05,-4.833563434658572e-05,0.0,0.0,0.0
1.782507933967281e-05,-4.817637454834767e-05,0.0,0.0,0.0
1.7761343769961968e-05,-4.831282785744406e-05,0.0,0.0,0.0
1.7820406355895102e-05,-4.8986908950610086e-05,0.0,0.0,0.0
1.762758256518282e-05,-4.933246236760169e-05,0.0,0.0,0.0
1.7613390809856355e-05,-4.9360904085915536e-05,0.0,0.0,0.0
1.775652708602138e-05,-4.933643140248023e-05,0.0,0.0,0.0
1.761110070219729e-05,-4.9569665861781687e-05,0.0,0.0,0.0
1.7123078578151762e-05,-4.998095391783863e-05,0.0,0.0,0.0
1.711923505354207e-05,-5.005099228583276e-05,0.0,0.0,0.0
1.719558895274531e-05,-4.984397310181521e-05,0.0,0.0,0.0
1.7494970961706713e-05,-4.9419308197684586e-05,0.0,0.0,0.0
1.778424484655261e-05,-4.9235164624406025e-05,0.0,0.0,0.0
1.7799278793972917e-05,-4.909214476356283e-05,0.0,0.0,0.0
1.778534169716295e-05,-4.897856342722662e-05,0.0,0.0,0.0
1.777679062797688e-05,-4.9339803808834404e-05,0.0,0.0,0.0
1.7492873666924424e-05,-4.904648085357621e-05,0.0,0.0,0.0
1.742548556649126e-05,-4.92658800794743e-05,0.0,0.0,0.0
1.775855889718514e-05,-4.9144047807203606e-05,0.0,0.0,0.0
1.7808579286793247e-05,-4.890971467830241e-05,0.0,0.0,0.0
1.726723712636158e-05,-4.884491499979049e-05,0.0,0.0,0.0
1.707056253508199e-05,-4.856994564761408e-05,0.0,0.0,0.0
1.7630231013754383e-05,-4.876555613009259e-05,0.0,0.0,0.0
1.7806796677177772e-05,-4.793250627699308e-05,0.0,0.0,0.0
1.75661680259509e-05,-4.745278420159593e-05,0.0,0.0,0.0
1.7854179532150738e-05,-4.7321100282715634e-05,0.0,0.0,0.0
1.7778613255359232e-05,-4.7532739699818194e-05,0.0,0.0,0.0
1.722579327179119e-05,-4.749576692120172e-05,0.0,0.0,0.0
1.7493068298790604e-05,-4.7486955736530945e-05,0.0,0.0,0.0
1.7616601326153614e-05,-4.769008592120372e-05,0.0,0.0,0.0
1.7615569959161803e-05,-4.7649722546339035e-05,0.0,0.0,0.0
1.7506325093563646e-05,-4.768721919390373e-05,0.0,0.0,0.0
1.7137763279606588e-05,-4.778018410434015e-05,0.0,0.0,0.0
1.7224097973667085e-05,-4.824535426450893e-05,0.0,0.0,0.0
1.7348296751151793e-05,-4.87522738694679e-05,0.0,0.0,0.0
1.713868732622359e-05,-4.8927631723927334e-05,0.0,0.0,0.0
1.710398828436155e-05,-4.8599707952234894e-05,0.0,0.0,0.0
1.721023363643326e-05,-4.82811956317164e-05,0.0,0.0,0.0
1.7417320123058744e-05,-4.808084122487344e-05,0.0,0.0,0.0
1.7543234207550995e-05,-4.824862480745651e-05,0.0,0.0,0.0
1.773122130543925e-05,-4.8154623073060066e-05,0.0,0.0,0.0
1.777963370841462e-05,-4.855136648984626e-05,0.0,0.0,0.0
1.7154961824417114e-05,-4.878118488704786e-05,0.0,0.0,0.0
1.7090284018195234e-05,-4.860006083617918e-05,0.0,0.0,0.0
1.7147307517006993e-05,-4.903740045847371e-05,0.0,0.0,0.0
1.7097272575483657e-05,-4.927055488224141e-05,0.0,0.0,0.0
1.7140937416115776e-05,-4.939687278238125e-05,0.0,0.0,0.0
1.735829937388189e-05,-4.982077007298358e-05,0.0,0.0,0.0
1.7747106539900415e-05,-4.986374915461056e-05,0.0,0.0,0.0
1.778108526195865e-05,-4.9351685447618365e-05,0.0,0.0,0.0
1.7800910427467898e-05,-4.939920108881779e-05,0.0,0.0,0.0
1.7784939700504765e-05,-4.9311118345940486e-05,0.0,0.0,0.0
1.7797503460315056e-05,-4.93712977913674e-05,0.0,0.0,0.0
1.7787930119084194e-05,-4.914368037134409e-05,0.0,0.0,0.0
1.79756880243076e-05,-4.882323628407903e-05,0.0,0.0,0.0
1.7963608115678653e-05,-4.86820463265758e-05,0.0,0.0,0.0
1.7622496670810506e-05,-4.882408393314108e-05,0.0,0.0,0.0
1.776129283825867e-05,-4.902960790786892e-05,0.0,0.0,0.0
1.7840844520833343e-05,-4.88530240545515e-05,0.0,0.0,0.0
1.7604013919481076e-05,-4.8321631766157225e-05,0.0,0.0,0.0
1.776548924681265e-05,-4.778348375111818e-05,0.0,0.0,0.0
1.7708935047267005e-05,-4.7998884838307276e-05,0.0,0.0,0.0
1.7547159586683847e-05,-4.7911024012137204e-05,0.0,0.0,0.0
1.777761099219788e-05,-4.7689238272141665e-05,0.0,0.0,0.0
1.7878724975162186e-05,-4.757499118568376e-05,0.0,0.0,0.0
1.815588075260166e-05,-4.731397712021135e-05,0.0,0.0,0.0
1.8411736164125614e-05,-4.6987046516733244e-05,0.0,0.0,0.0
1.811631409509573e-05,-4.7093035391299054e-05,0.0,0.0,0.0
1.773662370396778e-05,-4.7557419748045504e-05,0.0,0.0,0.0
1.7190845028380863e-05,-4.744012403534725e-05,0.0,0.0,0.0
1.7071541151381098e-05,-4.724373866338283e-05,0.0,0.0,0.0
1.7461241441196762e-05,-4.74077278340701e-05,0.0,0.0,0.0
1.71766023413511e-05,-4.7826411901041865e-05,0.0,0.0,0.0
1.7350454072584398e-05,-4.8127665650099516e-05,0.0,0.0,0.0
1.75218447111547e-05,-4.79061491205357e-05,0.0,0.0,0.0
1.715644793875981e-05,-4.8326648538932204e-05,0.0,0.0,0.0
1.7372776710544713e-05,-4.8310437705367804e-05,0.0,0.0,0.0
1.7242977264686488e-05,-4.8581754526821896e-05,0.0,0.0,0.0
1.7090325854951516e-05,-4.8690246330806985e-05,0.0,0.0,0.0
1.7550610209582373e-05,-4.845477451453917e-05,0.0,0.0,0.0
1.741638516250532e-05,-4.815845386474393e-05,0.0,0.0,0.0
1.7273232515435666e-05,-4.834005449083634e-05,0.0,0.0,0.0
1.7487056538811885e-05,-4.889131378149614e-05,0.0,0.0,0.0
1.7272313925786875e-05,-4.913236261927523e-05,0.0,0.0,0.0
1.7287202354054898e-05,-4.923848246107809e-05,0.0,0.0,0.0
1.73027474374976e-05,-4.925250686937943e-05,0.0,0.0,0.0
1.7137363101937808e-05,-4.957899727742188e-05,0.0,0.0,0.0
1.7224943803739734e-05,-4.9334172217641026e-05,0.0,0.0,0.0
1.745338704495225e-05,-4.946732224198058e-05,0.0,0.0,0.0
1.755637458700221e-05,-4.9559574108570814e-05,0.0,0.0,0.0
1.759774204401765e-05,-4.939137943438254e-05,0.0,0.0,0.0
1.733572753437329e-05,-4.9235364713240415e-05,0.0,0.0,0.0
1.7683576515992172e-05,-4.906957838102244e-05,0.0,0.0,0.0
1.7938265955308452e-05,-4.891029675491154e-05,0.0,0.0,0.0
1.797423647076357e-05,-4.879084008280188e-05,0.0,0.0,0.0
1.7888642105390318e-05,-4.888540934189223e-05,0.0,0.0,0.0
1.74090891960077e-05,-4.8792644520290196e-05,0.0,0.0,0.0
1.7805126844905317e-05,-4.858113607042469e-05,0.0,0.0,0.0
1.7784554074751213e-05,-4.875227023148909e-05,0.0,0.0,0.0
1.779458216333296e-05,-4.8617468564771116e-05,0.0,0.0,0.0
1.7261914763366804e-05,-4.87198012706358e-05,0.0,0.0,0.0
1.755703124217689e-05,-4.864624861511402e-05,0.0,0.0,0.0
1.7919814126798883e-05,-4.820531830773689e-05,0.0,0.0,0.0
1.768255970091559e-05,-4.7707264457130805e-05,0.0,0.0,0.0
1.788471854524687e-05,-4.746701233671047e-05,0.0,0.0,0.0
1.7714572095428593e-05,-4.73027175758034e-05,0.0,0.0,0.0
1.80577153514605e-05,-4.735086622531526e-05,0.0,0.0,0.0
1.789961606846191e-05,-4.69446495117154e-05,0.0,0.0,0.0
1.7447329810238443e-05,-4.735929178423248e-05,0.0,0.0,0.0
1.7263701010961086e-05,-4.789600643562153e-05,0.0,0.0,0.0
1.7161055438918993e-05,-4.7925732360454276e-05,0.0,0.0,0.0
1.691539364401251e-05,-4.854976214119233e-05,0.0,0.0,0.0
1.726752452668734e-05,-4.861967681790702e-05,0.0,0.0,0.0
1.74487959156977e-05,-4.847179297939874e-05,0.0,0.0,0.0
1.7340747945127077e-05,-4.821134280064143e-05,0.0,0.0,0.0
1.7136382666649297e-05,-4.8676287406124175e-05,0.0,0.0,0.0
1.710231117613148e-05,-4.8676385631551966e-05,0.0,0.0,0.0
1.7225876945303753e-05,-4.859071486862376e-05,0.0,0.0,0.0
1.748735121509526e-05,-4.8438101657666266e-05,0.0,0.0,0.0
1.7743737771525048e-05,-4.863039794145152e-05,0.0,0.0,0.0
1.7468413716414943e-05,-4.8716265155235305e-05,0.0,0.0,0.0
1.749159855535254e-05,-4.8641501052770764e-05,0.0,0.0,0.0
1.7728094462654553e-05,-4.8706471716286615e-05,0.0,0.0,0.0
1.7503558410680853e-05,-4.8671394324628636e-05,0.0,0.0,0.0
1.7112850400735624e-05,-4.902458385913633e-05,0.0,0.0,0.0
1.7428150385967456e-05,-4.9899332225322723e-05,0.0,0.0,0.0
1.747904570947867e-05,-5.0121085223509e-05,0.0,0.0,0.0
1.7438276699976996e-05,-4.993305992684327e-05,0.0,0.0,0.0
1.772561518009752e-05,-4.983546750736423e-05,0.0,0.0,0.0
1.756783967721276e-05,-4.934888784191571e-05,0.0,0.0,0.0
1.7644460967858322e-05,-4.939312202623114e-05,0.0,0.0,0.0
1.785527820175048e-05,-4.9312369810650125e-05,0.0,0.0,0.0
1.7952137568499893e-05,-4.894870289717801e-05,0.0,0.0,0.0
1.7784253941499628e-05,-4.862190689891577e-05,0.0,0.0,0.0
1.7569987903698348e-05,-4.871783676207997e-05,0.0,0.0,0.0
1.8045906472252682e-05,-4.8826721467776224e-05,0.0,0.0,0.0
1.8078733774018474e-05,-4.8870340833673254e-05,0.0,0.0,0.0
1.8004237062996253e-05,-4.865302980761044e-05,0.0,0.0,0.0
1.791502108972054e-05,-4.869016629527323e-05,0.0,0.0,0.0
1.786463508324232e-05,-4.867033567279577e-05,0.0,0.0,0.0
1.7590178686077707e-05,-4.854797589359805e-05,0.0,0.0,0.0
1.7887752619571984e-05,-4.8472404159838334e-05,0.0,0.0,0.0
1.7928214219864458e-05,-4.8327146942028776e-05,0.0,0.0,0.0
1.746917587297503e-05,-4.7650286433054134e-05,0.0,0.0,0.0
1.7621649021748453e-05,-4.7281933802878484e-05,0.0,0.0,0.0
1.8007418475463055e-05,-4.738121424452402e-05,0.0,0.0,0.0
1.7862150343717076e-05,-4.728975545731373e-05,0.0,0.0,0.0
1.772723589965608e-05,-4.737313065561466e-05,0.0,0.0,0.0
1.7851351003628224e-05,-4.729797728941776e-05,0.0,0.0,0.0
1.7674374248599634e-05,-4.7364879719680175e-05,0.0,0.0,0.0
1.724616959108971e-05,-4.73061554657761e-05,0.0,0.0,0.0
1.7022919564624317e-05,-4.7356861614389345e-05,0.0,0.0,0.0
1.750341834849678e-05,-4.731393346446566e-05,0.0,0.0,0.0
1.714057543722447e-05,-4.790240927832201e-05,0.0,0.0,0.0
1.7114774891524576e-05,-4.806794095202349e-05,0.0,0.0,0.0
1.7127003957284614e-05,-4.846157389692962e-05,0.0,0.0,0.0
1.7602849766262807e-05,-4.8784015234559774e-05,0.0,0.0,0.0
1.7855219994089566e-05,-4.835233630728908e-05,0.0,0.0,0.0
1.7290863979724236e-05,-4.8613517719786614e-05,0.0,0.0,0.0
1.755037737893872e-05,-4.8232453991658986e-05,0.0,0.0,0.0
1.762104147928767e-05,-4.798245208803564e-05,0.0,0.0,0.0
1.7608585039852187e-05,-4.840842666453682e-05,0.0,0.0,0.0
1.7833996025728993e-05,-4.867980533163063e-05,0.0,0.0,0.0
1.775960117811337e-05,-4.884511508862488e-05,0.0,0.0,0.0
1.7656388081377372e-05,-4.901608554064296e-05,0.0,0.0,0.0
1.7289836250711232e-05,-4.9159123591380194e-05,0.0,0.0,0.0
1.699500899121631e-05,-4.9621929065324366e-05,0.0,0.0,0.0
1.703909583739005e-05,-4.988435102859512e-05,0.0,0.0,0.0
1.7552258213981986e-05,-4.957990313414484e-05,0.0,0.0,0.0
1.7802631191443652e-05,-4.934925527777523e-05,0.0,0.0,0.0
1.7682961697573774e-05,-4.934516618959606e-05,0.0,0.0,0.0
1.7405356629751623e-05,-4.9350859626429155e-05,0.0,0.0,0.0
1.725860965962056e-05,-4.9269601731793955e-05,0.0,0.0,0.0
1.775404052750673e-05,-4.904118031845428e-05,0.0,0.0,0.0
1.7821212168200873e-05,-4.898646875517443e-05,0.0,0.0,0.0
1.7770442354958504e-05,-4.8991463700076565e-05,0.0,0.0,0.0
1.7838963685790077e-05,-4.872470162808895e-05,0.0,0.0,0.0
1.8058353816741146e-05,-4.891665230388753e-05,0.0,0.0,0.0
1.7850234144134447e-05,-4.847989112022333e-05,0.0,0.0,0.0
1.7147185644716956e-05,-4.852237179875374e-05,0.0,0.0,0.0
1.7370757632306777e-05,-4.880517735728063e-05,0.0,0.0,0.0
1.7785692762117833e-05,-4.803817500942387e-05,0.0,0.0,0.0
1.7514972569188103e-05,-4.802217517863028e-05,0.0,0.0,0.0
1.7445787307224236e-05,-4.750492735183798e-05,0.0,0.0,0.0
1.76970825123135e-05,-4.728304338641465e-05,0.0,0.0,0.0
1.7589418348507024e-05,-4.737932249554433e-05,0.0,0.0,0.0
1.7203445167979226e-05,-4.729213469545357e-05,0.0,0.0,0.0
1.774369229678996e-05,-4.737050039693713e-05,0.0,0.0,0.0
1.7773643776308745e-05,-4.7300647565862164e-05,0.0,0.0,0.0
1.759147380653303e-05,-4.736233677249402e-05,0.0,0.0,0.0
1.7666552594164386e-05,-4.764875120599754e-05,0.0,0.0,0.0
1.7256761566386558e-05,-4.8194990085903555e-05,0.0,0.0,0.0
1.7299302271567285e-05,-4.816766158910468e-05,0.0,0.0,0.0
1.7293563359999098e-05,-4.8026569857029244e-05,0.0,0.0,0.0
1.7144113371614367e-05,-4.798733061761595e-05,0.0,0.0,0.0
1.7103217032854445e-05,-4.825263749808073e-05,0.0,0.0,0.0
1.72391883097589e-05,-4.86418284708634e-05,0.0,0.0,0.0
1.743311804602854e-05,-4.8704332584748045e-05,0.0,0.0,0.0
1.7388612832291983e-05,-4.865400114795193e-05,0.0,0.0,0.0
1.7204669347847812e-05,-4.869338954449631e-05,0.0,0.0,0.0
1.7484266209066845e-05,-4.8663765483070165e-05,0.0,0.0,0.0
1.7742822819855064e-05,-4.873792204307392e-05,0.0,0.0,0.0
1.744070505083073e-05,-4.906015965389088e-05,0.0,0.0,0.0
1.713450728857424e-05,-4.960993828717619e-05,0.0,0.0,0.0
1.7107335224864073e-05,-4.942404484609142e-05,0.0,0.0,0.0
1.7122485587606207e-05,-4.9280821258435026e-05,0.0,0.0,0.0
1.6818605217849836e-05,-4.9405713070882484e-05,0.0,0.0,0.0
1.7310150724370033e-05,-4.985079795005731e-05,0.0,0.0,0.0
1.7288590242969804e-05,-5.01369868288748e-05,0.0,0.0,0.0
1.700504253676627e-05,-4.992052345187403e-05,0.0,0.0,0.0
1.7215315892826766e-05,-4.985549094271846e-05,0.0,0.0,0.0
1.7512469639768824e-05,-4.959033685736358e-05,0.0,0.0,0.0
1.7900594684761018e-05,-4.931096555083059e-05,0.0,0.0,0.0
1.791889371816069e-05,-4.9124846555059776e-05,0.0,0.0,0.0
1.800924292183481e-05,-4.944330430589616e-05,0.0,0.0,0.0
1.8097422071150504e-05,-4.908320988761261e-05,0.0,0.0,0.0
1.854269976320211e-05,-4.905392779619433e-05,0.0,0.0,0.0
1.806573345675133e-05,-4.9155518354382366e-05,0.0,0.0,0.0
1.7821284927777015e-05,-4.936568075208925e-05,0.0,0.0,0.0
1.7628186469664797e-05,-4.904404340777546e-05,0.0,0.0,0.0
1.7599566490389407e-05,-4.853785503655672e-05,0.0,0.0,0.0
1.7791649952414446e-05,-4.8227087972918525e-05,0.0,0.0,0.0
1.7783651856007054e-05,-4.7993169573601335e-05,0.0,0.0,0.0
1.770101152942516e-05,-4.802260809810832e-05,0.0,0.0,0.0
1.7546666640555486e-05,-4.779111986863427e-05,0.0,0.0,0.0
1.7869953808258288e-05,-4.73965446872171e-05,0.0,0.0,0.0
1.8030979845207185e-05,-4.72736319352407e-05,0.0,0.0,0.0
1.7842281522462144e-05,-4.7389647079398856e-05,0.0,0.0,0.0
1.7690786989987828e-05,-4.733458627015352e-05,0.0,0.0,0.0
1.7533549907966517e-05,-4.7684923629276454e-05,0.0,0.0,0.0
1.7355278032482602e-05,-4.7653189540142193e-05,0.0,0.0,0.0
1.7199090507347137e-05,-4.766360143548809e-05,0.0,0.0,0.0
1.674082704994362e-05,-4.736049959319644e-05,0.0,0.0,0.0
1.7109650798374787e-05,-4.788602018379606e-05,0.0,0.0,0.0
1.713040364847984e-05,-4.8104426241479814e-05,0.0,0.0,0.0
1.7111615306930616e-05,-4.845422154176049e-05,0.0,0.0,0.0
1.7384432794642635e-05,-4.8812449676916e-05,0.0,0.0,0.0
1.7479038433521055e-05,-4.8320205678464845e-05,0.0,0.0,0.0
1.7204862160724588e-05,-4.863636422669515e-05,0.0,0.0,0.0
1.7108783140429296e-05,-4.843017450184561e-05,0.0,0.0,0.0
1.6920088455663063e-05,-4.854644794249907e-05,0.0,0.0,0.0
1.6956659237621352e-05,-4.870438715443015e-05,0.0,0.0,0.0
1.7162687072413974e-05,-4.8648718802724034e-05,0.0,0.0,0.0
1.7083637430914678e-05,-4.888360854238272e-05,0.0,0.0,0.0
1.7323171050520614e-05,-4.899473788100295e-05,0.0,0.0,0.0
1.759217047947459e-05,-4.934803655487485e-05,0.0,0.0,0.0
1.7814145394368097e-05,-4.966947381035425e-05,0.0,0.0,0.0
1.7634612959227525e-05,-4.9697209760779515e-05,0.0,0.0,0.0
1.7350566849927418e-05,-4.9542359192855656e-05,0.0,0.0,0.0
1.734448414936196e-05,-4.948603964294307e-05,0.0,0.0,0.0
1.7670081433607265e-05,-4.954572796123102e-05,0.0,0.0,0.0
1.75810946529964e-05,-4.939045902574435e-05,0.0,0.0,0.0
1.7663149264990352e-05,-4.931086368742399e-05,0.0,0.0,0.0
1.7590213246876374e-05,-4.9378853873349726e-05,0.0,0.0,0.0
1.7716280126478523e-05,-4.932177398586646e-05,0.0,0.0,0.0
1.7908963855006732e-05,-4.9262322136200964e-05,0.0,0.0,0.0
1.8000271666096523e-05,-4.8723723011789843e-05,0.0,0.0,0.0
1.7833826859714463e-05,-4.866628296440467e-05,0.0,0.0,0.0
1.7153188309748657e-05,-4.898897168459371e-05,0.0,0.0,0.0
1.7713397028273903e-05,-4.87186225655023e-05,0.0,0.0,0.0
1.78618556674337e-05,-4.8641548346495256e-05,0.0,0.0,0.0
1.7177409972646274e-05,-4.842762791668065e-05,0.0,0.0,0.0
1.7098993339459412e-05,-4.801526665687561e-05,0.0,0.0,0.0
1.713693382043857e-05,-4.776290734298527e-05,0.0,0.0,0.0
1.759812221280299e-05,-4.738496500067413e-05,0.0,0.0,0.0
1.8089343939209357e-05,-4.733598689199425e-05,0.0,0.0,0.0
1.7878179278341122e-05,-4.733452806249261e-05,0.0,0.0,0.0
1.7790014680940658e-05,-4.7116787754930556e-05,0.0,0.0,0.0
1.7594431483303197e-05,-4.7188423195621e-05,0.0,0.0,0.0
1.7626820408622734e-05,-4.735443872050382e-05,0.0,0.0,0.0
1.7642252714722417e-05,-4.750011066789739e-05,0.0,0.0,0.0
1.7250551536562853e-05,-4.751526648760773e-05,0.0,0.0,0.0
1.6987434719339944e-05,-4.763814285979606e-05,0.0,0.0,0.0
1.690972385404166e-05,-4.831314072362147e-05,0.0,0.0,0.0
1.713886740617454e-05,-4.8391393647762015e-05,0.0,0.0,0.0
1.7361060599796474e-05,-4.801867908099666e-05,0.0,0.0,0.0
1.7669204680714756e-05,-4.7996749344747514e-05,0.0,0.0,0.0
1.7474843843956478e-05,-4.832734339288436e-05,0.0,0.0,0.0
1.7343174476991408e-05,-4.887063550995663e-05,0.0,0.0,0.0
1.715570397209376e-05,-4.873090801993385e-05,0.0,0.0,0.0
1.7089247194235213e-05,-4.863277717959136e-05,0.0,0.0,0.0
1.7276197468163446e-05,-4.871007695328444e-05,0.0,0.0,0.0
1.7763117284630425e-05,-4.875722515862435e-05,0.0,0.0,0.0
1.8081231246469542e-05,-4.930196882924065e-05,0.0,0.0,0.0
1.749394868966192e-05,-4.942170562571846e-05,0.0,0.0,0.0
1.7403013771399856e-05,-4.9627607950242236e-05,0.0,0.0,0.0
1.7178852431243286e-05,-5.0033926527248695e-05,0.0,0.0,0.0
1.677233012742363e-05,-4.9705791752785444e-05,0.0,0.0,0.0
1.7071002730517648e-05,-4.938869460602291e-05,0.0,0.0,0.0
1.715147664071992e-05,-4.932449519401416e-05,0.0,0.0,0.0
1.7348927940474823e-05,-4.987809734302573e-05,0.0,0.0,0.0
1.7755346561898477e-05,-4.9819896958069876e-05,0.0,0.0,0.0
1.7773929357645102e-05,-4.938356869388372e-05,0.0,0.0,0.0
1.780702586984262e-05,-4.960118531016633e-05,0.0,0.0,0.0
1.7354412193526514e-05,-4.946743865730241e-05,0.0,0.0,0.0
1.74987599166343e-05,-4.933166201226413e-05,0.0,0.0,0.0
1.7843143723439425e-05,-4.9361693527316675e-05,0.0,0.0,0.0
1.774953489075415e-05,-4.89740414195694e-05,0.0,0.0,0.0
1.765658271324355e-05,-4.884081135969609e-05,0.0,0.0,0.0
1.758349571900908e-05,-4.870196062256582e-05,0.0,0.0,0.0
1.781848186510615e-05,-4.8479858378414065e-05,0.0,0.0,0.0
1.7634027244639583e-05,-4.84048250655178e-05,0.0,0.0,0.0
1.7347963876090944e-05,-4.814026033272967e-05,0.0,0.0,0.0
1.7349748304695822e-05,-4.844065915676765e-05,0.0,0.0,0.0
1.7875350749818608e-05,-4.8467511078342795e-05,0.0,0.0,0.0
1.8135189748136327e-05,-4.793533298652619e-05,0.0,0.0,0.0
1.8033442756859586e-05,-4.7581423132214695e-05,0.0,0.0,0.0
1.7824489987106062e-05,-4.735666880151257e-05,0.0,0.0,0.0
1.7761922208592296e-05,-4.737858034786768e-05,0.0,0.0,0.0
1.7713331544655375e-05,-4.76553468615748e-05,0.0,0.0,0.0
1.7159343769890256e-05,-4.76821260235738e-05,0.0,0.0,0.0
1.7089105313061737e-05,-4.772101965500042e-05,0.0,0.0,0.0
1.714581230771728e-05,-4.823181370738894e-05,0.0,0.0,0.0
1.7100954210036434e-05,-4.7808498493395746e-05,0.0,0.0,0.0
1.7135513189714402e-05,-4.8126639740075916e-05,0.0,0.0,0.0
1.710982724034693e-05,-4.851931589655578e-05,0.0,0.0,0.0
1.712794619379565e-05,-4.8459420213475823e-05,0.0,0.0,0.0
1.7116206436185166e-05,-4.882936627836898e-05,0.0,0.0,0.0
1.712264565867372e-05,-4.8554175009485334e-05,0.0,0.0,0.0
1.7588468836038373e-05,-4.8770903958939016e-05,0.0,0.0,0.0
1.7839543943409808e-05,-4.8159188736462966e-05,0.0,0.0,0.0
1.7753929569153115e-05,-4.8437264922540635e-05,0.0,0.0,0.0
1.782181607268285e-05,-4.8716014134697616e-05,0.0,0.0,0.0
1.7769452824722975e-05,-4.8825033445609733e-05,0.0,0.0,0.0
1.7989124899031594e-05,-4.906765389023349e-05,0.0,0.0,0.0
1.795448042685166e-05,-4.912770600640215e-05,0.0,0.0,0.0
1.76279827428516e-05,-4.9404738092562184e-05,0.0,0.0,0.0
1.7609952919883654e-05,-4.929408896714449e-05,0.0,0.0,0.0
1.7783702787710354e-05,-4.939742575515993e-05,0.0,0.0,0.0
1.7928934539668262e-05,-4.9302037950837985e-05,0.0,0.0,0.0
1.8109101802110672e-05,-4.938900747220032e-05,0.0,0.0,0.0
1.803910890885163e-05,-4.931076182401739e-05,0.0,0.0,0.0
1.7790702258935198e-05,-4.938012716593221e-05,0.0,0.0,0.0
1.77092406374868e-05,-4.9234589823754504e-05,0.0,0.0,0.0
1.762423198670149e-05,-4.898317638435401e-05,0.0,0.0,0.0
1.8125534552382305e-05,-4.8663441702956334e-05,0.0,0.0,0.0
1.8383712813374586e-05,-4.8632704420015216e-05,0.0,0.0,0.0
1.783453262760304e-05,-4.84085721836891e-05,0.0,0.0,0.0
1.7722715710988268e-05,-4.861747584072873e-05,0.0,0.0,0.0
1.750620322127361e-05,-4.870676639256999e-05,0.0,0.0,0.0
1.7101843695854768e-05,-4.833710045204498e-05,0.0,0.0,0.0
1.713620986265596e-05,-4.8631904064677656e-05,0.0,0.0,0.0
1.710800643195398e-05,-4.8712499847169966e-05,0.0,0.0,0.0
1.73963671841193e-05,-4.8647467338014394e-05,0.0,0.0,0.0
1.7738633687258698e-05,-4.8187936044996604e-05,0.0,0.0,0.0
1.7799509805627167e-05,-4.743728641187772e-05,0.0,0.0,0.0
1.80205734068295e-05,-4.734060348710045e-05,0.0,0.0,0.0
1.7932408809429035e-05,-4.73310356028378e-05,0.0,0.0,0.0
1.7535940060042776e-05,-4.7331945097539574e-05,0.0,0.0,0.0
1.7271004253416322e-05,-4.754045221488923e-05,0.0,0.0,0.0
1.7094122085836716e-05,-4.7676039685029536e-05,0.0,0.0,0.0
1.7321186533081345e-05,-4.784789416589774e-05,0.0,0.0,0.0
1.728018651192542e-05,-4.801085378858261e-05,0.0,0.0,0.0
1.711839286144823e-05,-4.8322744987672195e-05,0.0,0.0,0.0
1.727385460981168e-05,-4.837820597458631e-05,0.0,0.0,0.0
1.730994335957803e-05,-4.8151698138099164e-05,0.0,0.0,0.0
1.7135382222477347e-05,-4.8451111069880426e-05,0.0,0.0,0.0
1.733955832605716e-05,-4.856943996855989e-05,0.0,0.0,0.0
1.7570269847055897e-05,-4.8552887164987624e-05,0.0,0.0,0.0
1.715729922580067e-05,-4.8889240133576095e-05,0.0,0.0,0.0
1.717601298878435e-05,-4.871500641456805e-05,0.0,0.0,0.0
1.745786539686378e-05,-4.864621951128356e-05,0.0,0.0,0.0
1.7520696928841062e-05,-4.876267848885618e-05,0.0,0.0,0.0
1.7761130948201753e-05,-4.9020309234037995e-05,0.0,0.0,0.0
1.781989703886211e-05,-4.939340578857809e-05,0.0,0.0,0.0
1.77032889041584e-05,-4.968036955688149e-05,0.0,0.0,0.0
1.7198588466271758e-05,-4.9964666686719283e-05,0.0,0.0,0.0
1.6742180378059857e-05,-4.944449756294489e-05,0.0,0.0,0.0
1.71078627317911e-05,-4.9550228141015396e-05,0.0,0.0,0.0
1.796180004021153e-05,-4.979756340617314e-05,0.0,0.0,0.0
1.7964424841920845e-05,-4.958667705068365e-05,0.0,0.0,0.0
1.7417674825992435e-05,-4.9508773372508585e-05,0.0,0.0,0.0
1.7277814549743198e-05,-4.9495189159642905e-05,0.0,0.0,0.0
1.727516428218223e-05,-4.9555794248590246e-05,0.0,0.0,0.0
1.7766025848686695e-05,-4.90148231619969e-05,0.0,0.0,0.0
1.7533799109514803e-05,-4.907707261736505e-05,0.0,0.0,0.0
1.7672271496849135e-05,-4.896401514997706e-05,0.0,0.0,0.0
1.7418720744899474e-05,-4.885341695626266e-05,0.0,0.0,0.0
1.708365925878752e-05,-4.864538641413674e-05,0.0,0.0,0.0
1.7157533875433728e-05,-4.8693786084186286e-05,0.0,0.0,0.0
1.7084263163269497e-05,-4.8670259275240824e-05,0.0,0.0,0.0
1.7155989553430118e-05,-4.8672594857634977e-05,0.0,0.0,0.0
1.7086631487472914e-05,-4.868802352575585e-05,0.0,0.0,0.0
1.7408152416464873e-05,-4.82751420349814e-05,0.0,0.0,0.0
1.7744254364515655e-05,-4.7601788537576795e-05,0.0,0.0,0.0
1.7728971215547062e-05,-4.7295481635956094e-05,0.0,0.0,0.0
1.7337109966319986e-05,-4.7468467528233305e-05,0.0,0.0,0.0
1.7245694834855385e-05,-4.744071702589281e-05,0.0,0.0,0.0
1.7473779735155404e-05,-4.7171393816825e-05,0.0,0.0,0.0
1.7688000298221596e-05,-4.7219087718985975e-05,0.0,0.0,0.0
1.7158072296297178e-05,-4.74874468636699e-05,0.0,0.0,0.0
1.7088195818359964e-05,-4.7549401642754674e-05,0.0,0.0,0.0
1.714861900836695e-05,-4.783567783306353e-05,0.0,0.0,0.0
1.7075250070774928e-05,-4.815536885871552e-05,0.0,0.0,0.0
1.684753442532383e-05,-4.8184196202782914e-05,0.0,0.0,0.0
1.673171209404245e-05,-4.785627606906928e-05,0.0,0.0,0.0
1.7106234736274928e-05,-4.812558472622186e-05,0.0,0.0,0.0
1.7121074051829055e-05,-4.8441128456033766e-05,0.0,0.0,0.0
1.737501224852167e-05,-4.881804852630012e-05,0.0,0.0,0.0
1.748851536831353e-05,-4.80768721899949e-05,0.0,0.0,0.0
1.7195263353642076e-05,-4.803141564480029e-05,0.0,0.0,0.0
1.75651930476306e-05,-4.844043360208161e-05,0.0,0.0,0.0
1.7411204680684023e-05,-4.8716501623857766e-05,0.0,0.0,0.0
1.704739588603843e-05,-4.8654419515514746e-05,0.0,0.0,0.0
1.718137900752481e-05,-4.887385875917971e-05,0.0,0.0,0.0
1.7071035472326912e-05,-4.9030266382033005e-05,0.0,0.0,0.0
1.716026417852845e-05,-4.9325080908602104e-05,0.0,0.0,0.0
1.6930262063397095e-05,-4.9886257329490036e-05,0.0,0.0,0.0
1.7104561266023666e-05,-4.982471000403166e-05,0.0,0.0,0.0
1.7436603229725733e-05,-4.9595124437473714e-05,0.0,0.0,0.0
1.747042733768467e-05,-4.930195791530423e-05,0.0,0.0,0.0
1.756402889441233e-05,-4.927702320856042e-05,0.0,0.0,0.0
1.767879439285025e-05,-4.91907776449807e-05,0.0,0.0,0.0
1.7384629245498218e-05,-4.959124999004416e-05,0.0,0.0,0.0
1.7286303773289546e-05,-4.927375994157046e-05,0.0,0.0,0.0
1.7754144209902734e-05,-4.895389065495692e-05,0.0,0.0,0.0
1.7822161680669524e-05,-4.8684203648008406e-05,0.0,0.0,0.0
1.7768647012417205e-05,-4.867239113082178e-05,0.0,0.0,0.0
1.7766973542165942e-05,-4.867714233114384e-05,0.0,0.0,0.0
1.7511070836917497e-05,-4.867756797466427e-05,0.0,0.0,0.0
1.7689093510853127e-05,-4.8652320401743054e-05,0.0,0.0,0.0
1.726834125292953e-05,-4.839658868149854e-05,0.0,0.0,0.0
1.7293583368882537e-05,-4.859185355599038e-05,0.0,0.0,0.0
1.7317626770818606e-05,-4.791822357219644e-05,0.0,0.0,0.0
1.6967778719845228e-05,-4.749653453473002e-05,0.0,0.0,0.0
1.7757078239810653e-05,-4.7556655772496015e-05,0.0,0.0,0.0
1.799709934857674e-05,-4.6942252083681524e-05,0.0,0.0,0.0
1.794975651137065e-05,-4.732085290015675e-05,0.0,0.0,0.0
1.7726149962982163e-05,-4.72908686788287e-05,0.0,0.0,0.0
1.7840886357589625e-05,-4.757341230288148e-05,0.0,0.0,0.0
1.7556027160026133e-05,-4.767324571730569e-05,0.0,0.0,0.0
1.7271308024646714e-05,-4.7465178795391694e-05,0.0,0.0,0.0
1.6930836864048615e-05,-4.7522757085971534e-05,0.0,0.0,0.0
1.6946980395005085e-05,-4.7660803829785436e-05,0.0,0.0,0.0
1.7139469491667114e-05,-4.7844925575191155e-05,0.0,0.0,0.0
1.7246706192963757e-05,-4.798356894752942e-05,0.0,0.0,0.0
1.734171928546857e-05,-4.830810212297365e-05,0.0,0.0,0.0
1.7227908756467514e-05,-4.863469075644389e-05,0.0,0.0,0.0
1.746980706229806e-05,-4.848555909120478e-05,0.0,0.0,0.0
1.73342450580094e-05,-4.819774767383933e-05,0.0,0.0,0.0
1.7057467630365863e-05,-4.866852395934984e-05,0.0,0.0,0.0
1.68575224961387e-05,-4.867756069870666e-05,0.0,0.0,0.0
1.718648309179116e-05,-4.875460217590444e-05,0.0,0.0,0.0
1.7435959307476878e-05,-4.8978803533827886e-05,0.0,0.0,0.0
1.74225806404138e-05,-4.915065073873848e-05,0.0,0.0,0.0
1.7091870176955126e-05,-4.9631100409897044e-05,0.0,0.0,0.0
1.6841628166730516e-05,-5.009892993257381e-05,0.0,0.0,0.0
1.708120180410333e-05,-5.025265272706747e-05,0.0,0.0,0.0
1.7477059373049997e-05,-5.0109032599721104e-05,0.0,0.0,0.0
1.773839903762564e-05,-4.934420940116979e-05,0.0,0.0,0.0
1.756041092448868e-05,-4.9625559768173844e-05,0.0,0.0,0.0
1.7647616914473474e-05,-4.9721853429218754e-05,0.0,0.0,0.0
1.7632110029808246e-05,-4.939385689795017e-05,0.0,0.0,0.0
1.759262704581488e-05,-4.9836373364087194e-05,0.0,0.0,0.0
1.790655733202584e-05,-4.91373248223681e-05,0.0,0.0,0.0
1.7701475371723063e-05,-4.8758782213553786e-05,0.0,0.0,0.0
1.7861158994492143e-05,-4.893457662547007e-05,0.0,0.0,0.0
1.774182055669371e-05,-4.8550758947385475e-05,0.0,0.0,0.0
1.7634176401770674e-05,-4.858260945184156e-05,0.0,0.0,0.0
1.7606747860554606e-05,-4.8256286390824243e-05,0.0,0.0,0.0
1.798603443603497e-05,-4.8571284423815086e-05,0.0,0.0,0.0
1.7803136870497838e-05,-4.8641060857335106e-05,0.0,0.0,0.0
1.7597607438801788e-05,-4.86945100419689e-05,0.0,0.0,0.0
1.7805445168050937e-05,-4.8257774324156344e-05,0.0,0.0,0.0
1.8027440091827884e-05,-4.75493652629666e-05,0.0,0.0,0.0
1.8236771211377345e-05,-4.734623871627264e-05,0.0,0.0,0.0
1.780285674612969e-05,-4.7418507165275514e-05,0.0,0.0,0.0
1.769336813595146e-05,-4.777760841534473e-05,0.0,0.0,0.0
1.73864664247958e-05,-4.7966226702556014e-05,0.0,0.0,0.0
1.713515848678071e-05,-4.804639320354909e-05,0.0,0.0,0.0
1.7103042409871705e-05,-4.783418262377381e-05,0.0,0.0,0.0
1.7193406165461056e-05,-4.754064866574481e-05,0.0,0.0,0.0
1.731853626552038e-05,-4.784929478773847e-05,0.0,0.0,0.0
1.6935624444158748e-05,-4.810971950064413e-05,0.0,0.0,0.0
1.6978636267594993e-05,-4.761021045851521e-05,0.0,0.0,0.0
1.7242186004295945e-05,-4.803220508620143e-05,0.0,0.0,0.0
1.701803194009699e-05,-4.79816590086557e-05,0.0,0.0,0.0
1.7205686162924394e-05,-4.802395778824575e-05,0.0,0.0,0.0
1.7051650502253324e-05,-4.85216842207592e-05,0.0,0.0,0.0
1.717491977615282e-05,-4.875606100540608e-05,0.0,0.0,0.0
1.732421515043825e-05,-4.885644375463016e-05,0.0,0.0,0.0
1.7747164747561328e-05,-4.909020208287984e-05,0.0,0.0,0.0
1.7774906154954806e-05,-4.850446566706523e-05,0.0,0.0,0.0
1.779971717041917e-05,-4.855617953580804e-05,0.0,0.0,0.0
1.779249396349769e-05,-4.890000127488747e-05,0.0,0.0,0.0
1.7784554074751213e-05,-4.938496203976683e-05,0.0,0.0,0.0
1.7805356037570164e-05,-4.9720376409823075e-05,0.0,0.0,0.0
1.777386205503717e-05,-4.947634079144336e-05,0.0,0.0,0.0
1.7654496332397684e-05,-4.953905590809882e-05,0.0,0.0,0.0
1.7727921658661216e-05,-4.96525717608165e-05,0.0,0.0,0.0
1.8013142835116014e-05,-4.9714410124579445e-05,0.0,0.0,0.0
1.777260513335932e-05,-4.952491872245446e-05,0.0,0.0,0.0
1.792955481505487e-05,-4.9386650061933324e-05,0.0,0.0,0.0
1.7988222680287436e-05,-4.9310769099975005e-05,0.0,0.0,0.0
1.774317934177816e-05,-4.928659109282307e-05,0.0,0.0,0.0
1.751733543642331e-05,-4.891339995083399e-05,0.0,0.0,0.0
1.779262674972415e-05,-4.8786365368869156e-05,0.0,0.0,0.0
1.7726057194522582e-05,-4.889065894531086e-05,0.0,0.0,0.0
1.7541342458571307e-05,-4.86488570459187e-05,0.0,0.0,0.0
1.7731890693539754e-05,-4.80861053802073e-05,0.0,0.0,0.0
1.7779857444111258e-05,-4.86088938487228e-05,0.0,0.0,0.0
1.7154130546259694e-05,-4.871245982940309e-05,0.0,0.0,0.0
1.710211108729709e-05,-4.8344547394663095e-05,0.0,0.0,0.0
1.743642133078538e-05,-4.863626236328855e-05,0.0,0.0,0.0
1.7749091057339683e-05,-4.78809597552754e-05,0.0,0.0,0.0
1.7816941181081347e-05,-4.7793026169529185e-05,0.0,0.0,0.0
1.777014767867513e-05,-4.764706682180986e-05,0.0,0.0,0.0
1.781121318344958e-05,-4.6901295718271285e-05,0.0,0.0,0.0
1.754120603436604e-05,-4.7356548748211935e-05,0.0,0.0,0.0
1.7223301256308332e-05,-4.770656596519984e-05,0.0,0.0,0.0
1.7106811355915852e-05,-4.8101159336511046e-05,0.0,0.0,0.0
1.733503995637875e-05,-4.833719867747277e-05,0.0,0.0,0.0
1.7459775335737504e-05,-4.837277811020613e-05,0.0,0.0,0.0
1.7273487173952162e-05,-4.792694380739704e-05,0.0,0.0,0.0
1.7113508874899708e-05,-4.8058092943392694e-05,0.0,0.0,0.0
1.7127375031122938e-05,-4.7973066102713346e-05,0.0,0.0,0.0
1.711421282379888e-05,-4.801842806045897e-05,0.0,0.0,0.0
1.712670382403303e-05,-4.8283229261869565e-05,0.0,0.0,0.0
1.724248613754753e-05,-4.839567918679677e-05,0.0,0.0,0.0
1.75700151885394e-05,-4.829071258427575e-05,0.0,0.0,0.0
1.7676107745501213e-05,-4.859569889958948e-05,0.0,0.0,0.0
1.7480289898230694e-05,-4.8660713218851015e-05,0.0,0.0,0.0
1.7435455447412096e-05,-4.836588050238788e-05,0.0,0.0,0.0
1.739988147164695e-05,-4.8788468120619655e-05,0.0,0.0,0.0
1.719437750580255e-05,-4.89468511659652e-05,0.0,0.0,0.0
1.741910818964243e-05,-4.9127287638839334e-05,0.0,0.0,0.0
1.7445448975195177e-05,-4.929986607749015e-05,0.0,0.0,0.0
1.7129252228187397e-05,-4.972926763002761e-05,0.0,0.0,0.0
1.71128376678098e-05,-4.966257984051481e-05,0.0,0.0,0.0
1.7138227121904492e-05,-5.000436067348346e-05,0.0,0.0,0.0
1.740490370139014e-05,-4.973077375325374e-05,0.0,0.0,0.0
1.7500031390227377e-05,-4.936756886309013e-05,0.0,0.0,0.0
1.7153763110400178e-05,-4.934240132570267e-05,0.0,0.0,0.0
1.762697138474323e-05,-4.935238030157052e-05,0.0,0.0,0.0
1.7858408682513982e-05,-4.909932249574922e-05,0.0,0.0,0.0
1.750205410644412e-05,-4.875272497883998e-05,0.0,0.0,0.0
1.7701779142953455e-05,-4.867385723628104e-05,0.0,0.0,0.0
1.8008058759733103e-05,-4.867720781476237e-05,0.0,0.0,0.0
1.8142000044463202e-05,-4.867692769039422e-05,0.0,0.0,0.0
1.811664151318837e-05,-4.867403185926378e-05,0.0,0.0,0.0
1.7955184375750832e-05,-4.8318517656298354e-05,0.0,0.0,0.0
1.7608172129257582e-05,-4.798379450221546e-05,0.0,0.0,0.0
1.7621363440412097e-05,-4.802437615580857e-05,0.0,0.0,0.0
1.7938795281224884e-05,-4.783791155205108e-05,0.0,0.0,0.0
1.78498503373703e-05,-4.768808503285982e-05,0.0,0.0,0.0
1.734192483127117e-05,-4.7523895773338154e-05,0.0,0.0,0.0
1.7233496691915207e-05,-4.7241741413017735e-05,0.0,0.0,0.0
1.744901601341553e-05,-4.709316635853611e-05,0.0,0.0,0.0
1.746152702253312e-05,-4.7328674554592e-05,0.0,0.0,0.0
1.7452897736802697e-05,-4.733655077870935e-05,0.0,0.0,0.0
1.7458251022617333e-05,-4.7406396333826706e-05,0.0,0.0,0.0
1.7455620763939805e-05,-4.7580284444848076e-05,0.0,0.0,0.0
1.7349677364109084e-05,-4.7437708417419344e-05,0.0,0.0,0.0
1.6892456187633798e-05,-4.7678106056991965e-05,0.0,0.0,0.0
1.7029435184667818e-05,-4.836694279219955e-05,0.0,0.0,0.0
1.7198090063175187e-05,-4.864267975790426e-05,0.0,0.0,0.0
1.707694354990963e-05,-4.868318501394242e-05,0.0,0.0,0.0
1.7755130102159455e-05,-4.8072128265630454e-05,0.0,0.0,0.0
1.7548760297358967e-05,-4.822355185751803e-05,0.0,0.0,0.0
1.7388712876709178e-05,-4.8427631554659456e-05,0.0,0.0,0.0
1.7514512364869006e-05,-4.8522750148549676e-05,0.0,0.0,0.0
1.7651316738920286e-05,-4.8767877160571516e-05,0.0,0.0,0.0
1.7861631931737065e-05,-4.8835125198820606e-05,0.0,0.0,0.0
1.751078525558114e-05,-4.909685594611801e-05,0.0,0.0,0.0
1.7695221686153673e-05,-4.9157006287714466e-05,0.0,0.0,0.0
1.7385351384291425e-05,-4.941793667967431e-05,0.0,0.0,0.0
1.7092070265789516e-05,-4.9293907068204135e-05,0.0,0.0,0.0
1.7145795936812647e-05,-4.9567777750780806e-05,0.0,0.0,0.0
1.7098611351684667e-05,-4.9664511607261375e-05,0.0,0.0,0.0
1.7458738511777483e-05,-4.969293513568118e-05,0.0,0.0,0.0
1.7629272406338714e-05,-4.953275856678374e-05,0.0,0.0,0.0
1.760887971613556e-05,-4.934500248054974e-05,0.0,0.0,0.0
1.7773942090570927e-05,-4.935568358632736e-05,0.0,0.0,0.0
1.7807937183533795e-05,-4.9218466301681474e-05,0.0,0.0,0.0
1.777812940417789e-05,-4.893311779596843e-05,0.0,0.0,0.0
1.7804011804400943e-05,-4.866349627263844e-05,0.0,0.0,0.0
1.778179284883663e-05,-4.869126496487297e-05,0.0,0.0,0.0
1.7726166333886795e-05,-4.865984737989493e-05,0.0,0.0,0.0
1.7538361134938896e-05,-4.869350232183933e-05,0.0,0.0,0.0
1.774755583028309e-05,-4.865883965976536e-05,0.0,0.0,0.0
1.782998879207298e-05,-4.8608377255732194e-05,0.0,0.0,0.0
1.7759943148121238e-05,-4.8090838390635327e-05,0.0,0.0,0.0
1.7797503460315056e-05,-4.8236393922707066e-05,0.0,0.0,0.0
1.7465632481616922e-05,-4.809408710571006e-05,0.0,0.0,0.0
1.7148058759630658e-05,-4.733257810585201e-05,0.0,0.0,0.0
1.765112392604351e-05,-4.7331366658909246e-05,0.0,0.0,0.0
1.788565168681089e-05,-4.733792957267724e-05,0.0,0.0,0.0
1.7714788555167615e-05,-4.7072106099221855e-05,0.0,0.0,0.0
1.7609938367968425e-05,-4.697396798292175e-05,0.0,0.0,0.0
1.737911043164786e-05,-4.7483652451774105e-05,0.0,0.0,0.0
1.7293927157879807e-05,-4.770519444718957e-05,0.0,0.0,0.0
1.7052921975846402e-05,-4.7849993279669434e-05,0.0,0.0,0.0
1.7374137314618565e-05,-4.805059143109247e-05,0.0,0.0,0.0
1.7242206013179384e-05,-4.815758438780904e-05,0.0,0.0,0.0
1.712229277472943e-05,-4.820321191800758e-05,0.0,0.0,0.0
1.712526318442542e-05,-4.8301943024853244e-05,0.0,0.0,0.0
1.7110825865529478e-05,-4.8400765081169084e-05,0.0,0.0,0.0
1.743229768180754e-05,-4.826658914680593e-05,0.0,0.0,0.0
1.749430703057442e-05,-4.8698413593228906e-05,0.0,0.0,0.0
1.7409980500815436e-05,-4.853501377510838e-05,0.0,0.0,0.0
1.7740350813255645e-05,-4.8472527851117775e-05,0.0,0.0,0.0
1.784091000445187e-05,-4.865679147769697e-05,0.0,0.0,0.0
1.7554813894093968e-05,-4.868764881393872e-05,0.0,0.0,0.0
1.720038562780246e-05,-4.8756970500107855e-05,0.0,0.0,0.0
1.7198761270265095e-05,-4.9062902689911425e-05,0.0,0.0,0.0
1.780348247848451e-05,-4.947515844833106e-05,0.0,0.0,0.0
1.767489629855845e-05,-4.9957110604736954e-05,0.0,0.0,0.0
1.7194364772876725e-05,-5.0076330808224156e-05,0.0,0.0,0.0
1.7057705917977728e-05,-4.993465336156078e-05,0.0,0.0,0.0
1.7194730389746837e-05,-4.9748472520150244e-05,0.0,0.0,0.0
1.7360256606480107e-05,-4.933509262627922e-05,0.0,0.0,0.0
1.7236296116607264e-05,-4.9958896852331236e-05,0.0,0.0,0.0
1.7578558981767856e-05,-4.9515867431182414e-05,0.0,0.0,0.0
1.7678103176876903e-05,-4.949735739501193e-05,0.0,0.0,0.0
1.7554420992382802e-05,-4.955827898811549e-05,0.0,0.0,0.0
1.7948326785699464e-05,-4.945495311403647e-05,0.0,0.0,0.0
1.7669404769549146e-05,-4.958809950039722e-05,0.0,0.0,0.0
1.7884722183225676e-05,-4.9212572776013985e-05,0.0,0.0,0.0
1.7725653378874995e-05,-4.90284692205023e-05,0.0,0.0,0.0
1.7835407561506145e-05,-4.8559839342487976e-05,0.0,0.0,0.0
1.7768457837519236e-05,-4.876437014900148e-05,0.0,0.0,0.0
1.7798689441406168e-05,-4.861289926338941e-05,0.0,0.0,0.0
1.762935789884068e-05,-4.837801316170953e-05,0.0,0.0,0.0
1.7273083358304575e-05,-4.797192741534673e-05,0.0,0.0,0.0
1.7300368199357763e-05,-4.772278407472186e-05,0.0,0.0,0.0
1.7416547052562237e-05,-4.733640525955707e-05,0.0,0.0,0.0
1.7628615751164034e-05,-4.719128628494218e-05,0.0,0.0,0.0
1.773538679117337e-05,-4.714735769084655e-05,0.0,0.0,0.0
1.7742924683261663e-05,-4.7282857849495485e-05,0.0,0.0,0.0
1.7415006368537433e-05,-4.748234641738236e-05,0.0,0.0,0.0
1.7583304725121707e-05,-4.759631701745093e-05,0.0,0.0,0.0
1.7579701307113282e-05,-4.773910768562928e-05,0.0,0.0,0.0
1.72938725881977e-05,-4.7666861064499244e-05,0.0,0.0,0.0
1.7330883565591648e-05,-4.8037913074949756e-05,0.0,0.0,0.0
1.7522637790534645e-05,-4.8015073843998834e-05,0.0,0.0,0.0
1.706277544144541e-05,-4.830428588320501e-05,0.0,0.0,0.0
1.71690098795807e-05,-4.804459967999719e-05,0.0,0.0,0.0
1.7081241821870208e-05,-4.798397276317701e-05,0.0,0.0,0.0
1.715150756353978e-05,-4.832011472899467e-05,0.0,0.0,0.0
1.7374182789353654e-05,-4.808314042747952e-05,0.0,0.0,0.0
1.777555917215068e-05,-4.8481633712071925e-05,0.0,0.0,0.0
1.8041295334114693e-05,-4.879174957750365e-05,0.0,0.0,0.0
1.7914209820446558e-05,-4.858026295551099e-05,0.0,0.0,0.0
1.7743634089129046e-05,-4.8754416638985276e-05,0.0,0.0,0.0
1.7603078958927654e-05,-4.883779547526501e-05,0.0,0.0,0.0
1.7200452930410393e-05,-4.950556831317954e-05,0.0,0.0,0.0
1.7131504137068987e-05,-4.9667749408399686e-05,0.0,0.0,0.0
1.731070369714871e-05,-4.94986743433401e-05,0.0,0.0,0.0
1.727996459521819e-05,-4.933751915814355e-05,0.0,0.0,0.0
1.7287262380705215e-05,-4.934913158649579e-05,0.0,0.0,0.0
1.7455562556278892e-05,-4.9513200792716816e-05,0.0,0.0,0.0
1.791203612810932e-05,-4.967234417563304e-05,0.0,0.0,0.0
1.816484655137174e-05,-4.9561749619897455e-05,0.0,0.0,0.0
1.7957629097509198e-05,-4.945956607116386e-05,0.0,0.0,0.0
1.8078400898957625e-05,-4.9577498430153355e-05,0.0,0.0,0.0
1.817741031118203e-05,-4.923799860989675e-05,0.0,0.0,0.0
1.7887095964397304e-05,-4.893989535048604e-05,0.0,0.0,0.0
1.7456530258641578e-05,-4.866961535299197e-05,0.0,0.0,0.0
1.7064699932234362e-05,-4.8537738621234894e-05,0.0,0.0,0.0
1.723618152027484e-05,-4.810620521311648e-05,0.0,0.0,0.0
1.7327212844975293e-05,-4.8337129555875435e-05,0.0,0.0,0.0
1.726209848129656e-05,-4.864599395659752e-05,0.0,0.0,0.0
1.730371150188148e-05,-4.836950029130094e-05,0.0,0.0,0.0
1.726183654682245e-05,-4.82697032566648e-05,0.0,0.0,0.0
1.7012716853059828e-05,-4.778028232976794e-05,0.0,0.0,0.0
1.7508802557131276e-05,-4.757241913466714e-05,0.0,0.0,0.0
1.796891046978999e-05,-4.747597631649114e-05,0.0,0.0,0.0
1.7966851373785175e-05,-4.722502490039915e-05,0.0,0.0,0.0
1.741967207635753e-05,-4.742399323731661e-05,0.0,0.0,0.0
1.776116005203221e-05,-4.725943290395662e-05,0.0,0.0,0.0
1.7543399735586718e-05,-4.739255746244453e-05,0.0,0.0,0.0
1.7435502741136588e-05,-4.7734632971696556e-05,0.0,0.0,0.0
1.7269734598812647e-05,-4.786786303156987e-05,0.0,0.0,0.0
1.7274500351049937e-05,-4.799784073838964e-05,0.0,0.0,0.0
1.732776581775397e-05,-4.8425968998344615e-05,0.0,0.0,0.0
1.7230335288331844e-05,-4.8096408136188984e-05,0.0,0.0,0.0
1.7189666323247366e-05,-4.8041005356935784e-05,0.0,0.0,0.0
1.6868492821231484e-05,-4.798416557605378e-05,0.0,0.0,0.0
1.7338108591502532e-05,-4.8012370825745165e-05,0.0,0.0,0.0
1.725601941870991e-05,-4.814685235032812e-05,0.0,0.0,0.0
1.7307458620052785e-05,-4.8194528062595055e-05,0.0,0.0,0.0
1.7513728380436078e-05,-4.803900810657069e-05,0.0,0.0,0.0
1.7724241843097843e-05,-4.8179179430007935e-05,0.0,0.0,0.0
1.7344060324830934e-05,-4.878263644059189e-05,0.0,0.0,0.0
1.715186590445228e-05,-4.897648614132777e-05,0.0,0.0,0.0
1.717023587843869e-05,-4.9123922508442774e-05,0.0,0.0,0.0
1.744996916386299e-05,-4.9283898988505825e-05,0.0,0.0,0.0
1.7411042790627107e-05,-4.9407713959226385e-05,0.0,0.0,0.0
1.7100786863011308e-05,-4.929182614432648e-05,0.0,0.0,0.0
1.683540722297039e-05,-4.9398993724025786e-05,0.0,0.0,0.0
1.706344664853532e-05,-4.927986810798757e-05,0.0,0.0,0.0
1.7171787476399913e-05,-4.908486152999103e-05,0.0,0.0,0.0
1.7075042705982924e-05,-4.864943548454903e-05,0.0,0.0,0.0
1.7437530914321542e-05,-4.9252252210862935e-05,0.0,0.0,0.0
1.7458472939324565e-05,-4.913826342090033e-05,0.0,0.0,0.0
1.7966460291063413e-05,-4.892973447567783e-05,0.0,0.0,0.0
1.7944139472092502e-05,-4.883636938757263e-05,0.0,0.0,0.0
1.7480911992606707e-05,-4.8825131671037525e-05,0.0,0.0,0.0
1.7717231457936577e-05,-4.9106671212939546e-05,0.0,0.0,0.0
1.757219069986604e-05,-4.872184945270419e-05,0.0,0.0,0.0
1.7441088857594877e-05,-4.872065983363427e-05,0.0,0.0,0.0
1.7472279068897478e-05,-4.845071453019045e-05,0.0,0.0,0.0
1.7259197193197906e-05,-4.799312227987684e-05,0.0,0.0,0.0
1.746944872138556e-05,-4.781494499184191e-05,0.0,0.0,0.0
1.7472302715759724e-05,-4.8026329750427976e-05,0.0,0.0,0.0
1.756829624355305e-05,-4.769295992446132e-05,0.0,0.0,0.0
1.811734000511933e-05,-4.748392530018464e-05,0.0,0.0,0.0
1.8140330212190747e-05,-4.7656827518949285e-05,0.0,0.0,0.0
1.7996486349147744e-05,-4.779363007401116e-05,0.0,0.0,0.0
1.7606707842787728e-05,-4.798940062755719e-05,0.0,0.0,0.0
1.7220716472365893e-05,-4.7919755161274225e-05,0.0,0.0,0.0
1.7436335838283412e-05,-4.768133658217266e-05,0.0,0.0,0.0
1.754556615196634e-05,-4.765645644511096e-05,0.0,0.0,0.0
1.7692482288111933e-05,-4.774588160216808e-05,0.0,0.0,0.0
1.7566406313562766e-05,-4.806990909855813e-05,0.0,0.0,0.0
1.7628837667871267e-05,-4.864888978772797e-05,0.0,0.0,0.0
1.7254984413739294e-05,-4.8698639147914946e-05,0.0,0.0,0.0
1.7009633666020818e-05,-4.863698632107116e-05,0.0,0.0,0.0
1.7210773876286112e-05,-4.8396821512142196e-05,0.0,0.0,0.0
1.704894020804204e-05,-4.829390309168957e-05,0.0,0.0,0.0
1.7176051187561825e-05,-4.865530718234368e-05,0.0,0.0,0.0
1.7345262676826678e-05,-4.8683265049476177e-05,0.0,0.0,0.0
1.777493889676407e-05,-4.892427386948839e-05,0.0,0.0,0.0
1.7531410776427947e-05,-4.929496208205819e-05,0.0,0.0,0.0
1.743565189826768e-05,-4.9342466809321195e-05,0.0,0.0,0.0
1.7256370483664796e-05,-4.979919322067872e-05,0.0,0.0,0.0
1.7499665773357265e-05,-4.984430051990785e-05,0.0,0.0,0.0
1.746732959873043e-05,-4.963429455528967e-05,0.0,0.0,0.0
1.740409243211616e-05,-4.991488822270185e-05,0.0,0.0,0.0
1.789997440937441e-05,-4.981736492482014e-05,0.0,0.0,0.0
1.7701020624372177e-05,-4.9691418098518625e-05,0.0,0.0,0.0
1.786741631804034e-05,-4.9518632295075804e-05,0.0,0.0,0.0
1.743311804602854e-05,-4.934928801958449e-05,0.0,0.0,0.0
1.7587695765541866e-05,-4.9485832278151065e-05,0.0,0.0,0.0
1.7815846149460413e-05,-4.929401256958954e-05,0.0,0.0,0.0
1.7634873074712232e-05,-4.8709262046031654e-05,0.0,0.0,0.0
1.7731901607476175e-05,-4.8646601499058306e-05,0.0,0.0,0.0
1.774269730958622e-05,-4.8702768253860995e-05,0.0,0.0,0.0
1.75258974195458e-05,-4.873794023296796e-05,0.0,0.0,0.0
1.7851925804279745e-05,-4.886158785666339e-05,0.0,0.0,0.0
1.80567913048435e-05,-4.8456051445100456e-05,0.0,0.0,0.0
1.7714741261443123e-05,-4.860389162786305e-05,0.0,0.0,0.0
1.7165406461572275e-05,-4.873725265497342e-05,0.0,0.0,0.0
1.710885771899484e-05,-4.852986239711754e-05,0.0,0.0,0.0
1.748115937516559e-05,-4.780522431246936e-05,0.0,0.0,0.0
1.7753120118868537e-05,-4.7243956942111254e-05,0.0,0.0,0.0
1.8128801457351074e-05,-4.740616714116186e-05,0.0,0.0,0.0
1.7570049749338068e-05,-4.727581108454615e-05,0.0,0.0,0.0
1.712238918116782e-05,-4.711201836471446e-05,0.0,0.0,0.0
1.7139633200713433e-05,-4.769630322698504e-05,0.0,0.0,0.0
1.7108653992181644e-05,-4.790497405338101e-05,0.0,0.0,0.0
1.7360667698085308e-05,-4.776013520313427e-05,0.0,0.0,0.0
1.747956957842689e-05,-4.8141613660845906e-05,0.0,0.0,0.0
1.7220614608959295e-05,-4.832482954952866e-05,0.0,0.0,0.0
1.7327174646197818e-05,-4.838580571231432e-05,0.0,0.0,0.0
1.7272886907448992e-05,-4.789228114532307e-05,0.0,0.0,0.0
1.746699126670137e-05,-4.8086210881592706e-05,0.0,0.0,0.0
1.7647631466388702e-05,-4.829097451874986e-05,0.0,0.0,0.0
1.7433276298106648e-05,-4.8716392484493554e-05,0.0,0.0,0.0
1.7770025806385092e-05,-4.865777009399608e-05,0.0,0.0,0.0
1.797534969227854e-05,-4.853844075114466e-05,0.0,0.0,0.0
1.7806423784350045e-05,-4.836045627598651e-05,0.0,0.0,0.0
1.7899408703669906e-05,-4.8426332796225324e-05,0.0,0.0,0.0
1.8014976376434788e-05,-4.870422708336264e-05,0.0,0.0,0.0
1.771956704033073e-05,-4.883166911895387e-05,0.0,0.0,0.0
1.745296140143182e-05,-4.952239032718353e-05,0.0,0.0,0.0
1.738647188176401e-05,-4.981227539246902e-05,0.0,0.0,0.0
1.7268183000851423e-05,-4.9520669563207775e-05,0.0,0.0,0.0
1.7718983144732192e-05,-4.955385156790726e-05,0.0,0.0,0.0
1.789546149666421e-05,-4.975728370482102e-05,0.0,0.0,0.0
1.8010377971222624e-05,-4.927948975819163e-05,0.0,0.0,0.0
1.785867971193511e-05,-4.9387203034712e-05,0.0,0.0,0.0
1.7114309230237268e-05,-4.9000645958585665e-05,0.0,0.0,0.0
1.7409973224857822e-05,-4.930930299451575e-05,0.0,0.0,0.0
1.7775042579160072e-05,-4.965673724655062e-05,0.0,0.0,0.0
1.7525808289065026e-05,-4.916157922707498e-05,0.0,0.0,0.0
1.7424414181732573e-05,-4.8935584345599636e-05,0.0,0.0,0.0
1.7725433281157166e-05,-4.907431866740808e-05,0.0,0.0,0.0
1.7801685316953808e-05,-4.8962643631966785e-05,0.0,0.0,0.0
1.7781574570108205e-05,-4.8826044803718105e-05,0.0,0.0,0.0
1.7377466065227054e-05,-4.862857531406917e-05,0.0,0.0,0.0
1.7074033166863956e-05,-4.8710597184253857e-05,0.0,0.0,0.0
1.7160842617158778e-05,-4.865391747443937e-05,0.0,0.0,0.0
1.7628755813348107e-05,-4.8326495743822306e-05,0.0,0.0,0.0
1.7839720385381952e-05,-4.7986541176214814e-05,0.0,0.0,0.0
1.7404530808562413e-05,-4.7693254600744694e-05,0.0,0.0,0.0
1.7646303604124114e-05,-4.748185892822221e-05,0.0,0.0,0.0
1.7481946997577325e-05,-4.7658817493356764e-05,0.0,0.0,0.0
1.741157211654354e-05,-4.7686786274425685e-05,0.0,0.0,0.0
1.7630771253607236e-05,-4.7762729082023725e-05,0.0,0.0,0.0
1.739613253448624e-05,-4.791449100594036e-05,0.0,0.0,0.0
1.719618376228027e-05,-4.785497367265634e-05,0.0,0.0,0.0
1.7365508028888144e-05,-4.8399964725831524e-05,0.0,0.0,0.0
1.7151858628494665e-05,-4.866979725193232e-05,0.0,0.0,0.0
1.7089811080950312e-05,-4.868802352575585e-05,0.0,0.0,0.0
1.7150685380329378e-05,-4.866050585405901e-05,0.0,0.0,0.0
1.704905844235327e-05,-4.8694986617192626e-05,0.0,0.0,0.0
1.687984331510961e-05,-4.8655620048521087e-05,0.0,0.0,0.0
1.7047146684490144e-05,-4.869803160545416e-05,0.0,0.0,0.0
1.7496711734565906e-05,-4.865418668487109e-05,0.0,0.0,0.0
1.7133925211965106e-05,-4.869807162322104e-05,0.0,0.0,0.0
1.7662941900198348e-05,-4.8931833589449525e-05,0.0,0.0,0.0
1.7876045603770763e-05,-4.90694037580397e-05,0.0,0.0,0.0
1.7467064026277512e-05,-4.89624471811112e-05,0.0,0.0,0.0
1.772677933331579e-05,-4.9298560043098405e-05,0.0,0.0,0.0
1.733211502141785e-05,-4.934066964779049e-05,0.0,0.0,0.0
1.706306284177117e-05,-4.95759304612875e-05,0.0,0.0,0.0
1.717016493785195e-05,-4.970170994056389e-05,0.0,0.0,0.0
1.748266731738113e-05,-4.9868645874084905e-05,0.0,0.0,0.0
1.7664802726358175e-05,-4.9857699195854366e-05,0.0,0.0,0.0
1.721158332657069e-05,-4.9645695980871096e-05,0.0,0.0,0.0
1.7164258679258637e-05,-4.988605360267684e-05,0.0,0.0,0.0
1.7086678781197406e-05,-4.983614053344354e-05,0.0,0.0,0.0
1.7443677279516123e-05,-4.970250301994383e-05,0.0,0.0,0.0
1.7493761333753355e-05,-4.9528214731253684e-05,0.0,0.0,0.0
1.740148763929028e-05,-4.911279756925069e-05,0.0,0.0,0.0
1.7522266716696322e-05,-4.86756835016422e-05,0.0,0.0,0.0
1.7384525563102216e-05,-4.867708412348293e-05,0.0,0.0,0.0
1.7625339751248248e-05,-4.867523966822773e-05,0.0,0.0,0.0
1.7446798665332608e-05,-4.8677575250621885e-05,0.0,0.0,0.0
1.715673897706438e-05,-4.8674737627152354e-05,0.0,0.0,0.0
1.7395273971487768e-05,-4.867805910180323e-05,0.0,0.0,0.0
1.7151633073808625e-05,-4.867429015575908e-05,0.0,0.0,0.0
1.713222445687279e-05,-4.8550835344940424e-05,0.0,0.0,0.0
1.7419577488908544e-05,-4.780460585607216e-05,0.0,0.0,0.0
1.715956568659749e-05,-4.78364345326554e-05,0.0,0.0,0.0
1.709124626358971e-05,-4.7522669774480164e-05,0.0,0.0,0.0
1.7716005459078588e-05,-4.774998888024129e-05,0.0,0.0,0.0
1.7860158550320193e-05,-4.766351776197553e-05,0.0,0.0,0.0
1.7465581549913622e-05,-4.7351095417980105e-05,0.0,0.0,0.0
1.721996522974223e-05,-4.790459934156388e-05,0.0,0.0,0.0
1.707179399090819e-05,-4.772627289639786e-05,0.0,0.0,0.0
1.7396858311258256e-05,-4.8177691496675834e-05,0.0,0.0,0.0
1.7221398593392223e-05,-4.809751771972515e-05,0.0,0.0,0.0
1.710937613097485e-05,-4.866823655902408e-05,0.0,0.0,0.0
1.712995617708657e-05,-4.841274130740203e-05,0.0,0.0,0.0
1.7112850400735624e-05,-4.816844375454821e-05,0.0,0.0,0.0
1.7488724552094936e-05,-4.799527960130945e-05,0.0,0.0,0.0
1.7461941752117127e-05,-4.8165369662456214e-05,0.0,0.0,0.0
1.710349170025438e-05,-4.8530080675845966e-05,0.0,0.0,0.0
1.743149186950177e-05,-4.863599315285683e-05,0.0,0.0,0.0
1.7640189980738796e-05,-4.8725760279921815e-05,0.0,0.0,0.0
1.7599428247194737e-05,-4.86201788589824e-05,0.0,0.0,0.0
1.7771570128388703e-05,-4.873672151006758e-05,0.0,0.0,0.0
1.759524820954539e-05,-4.871986311627552e-05,0.0,0.0,0.0
1.713947312964592e-05,-4.925138637190685e-05,0.0,0.0,0.0
1.7102556739700958e-05,-4.951169103151187e-05,0.0,0.0,0.0
1.728675124468282e-05,-4.9450631195213646e-05,0.0,0.0,0.0
1.772500945662614e-05,-4.938198617310263e-05,0.0,0.0,0.0
1.785055974323768e-05,-4.9992020649369806e-05,0.0,0.0,0.0
1.7741289411787875e-05,-4.969059955328703e-05,0.0,0.0,0.0
1.7835567632573657e-05,-4.967884888174012e-05,0.0,0.0,0.0
1.7776321328710765e-05,-4.964368781656958e-05,0.0,0.0,0.0
1.811676520446781e-05,-4.9104419304057956e-05,0.0,0.0,0.0
1.8137701772502623e-05,-4.923334563500248e-05,0.0,0.0,0.0
1.7842121451394632e-05,-4.944299143971875e-05,0.0,0.0,0.0
1.749665170791559e-05,-4.8738267651060596e-05,0.0,0.0,0.0
1.770112430676818e-05,-4.892404831480235e-05,0.0,0.0,0.0
1.783278457878623e-05,-4.880937558482401e-05,0.0,0.0,0.0
1.7757196474121884e-05,-4.860854096477851e-05,0.0,0.0,0.0
1.737478669383563e-05,-4.8737492761574686e-05,0.0,0.0,0.0
1.70537423400674e-05,-4.862099376623519e-05,0.0,0.0,0.0
1.7580030544195324e-05,-4.8524103476665914e-05,0.0,0.0,0.0
1.77761849045055e-05,-4.808968515135348e-05,0.0,0.0,0.0
1.7803678929340094e-05,-4.786527279065922e-05,0.0,0.0,0.0
1.7783997463993728e-05,-4.779471782967448e-05,0.0,0.0,0.0
1.7796903193811886e-05,-4.804849231732078e-05,0.0,0.0,0.0
1.7789809135138057e-05,-4.796734356204979e-05,0.0,0.0,0.0
1.765373053785879e-05,-4.7760400775587186e-05,0.0,0.0,0.0
1.7591224604984745e-05,-4.744488978758454e-05,0.0,0.0,0.0
1.754116965457797e-05,-4.779035589308478e-05,0.0,0.0,0.0
1.7161037249024957e-05,-4.799047019332647e-05,0.0,0.0,0.0
1.6988537026918493e-05,-4.8016048822319135e-05,0.0,0.0,0.0
1.6921163478400558e-05,-4.8166770284296945e-05,0.0,0.0,0.0
1.7053913325071335e-05,-4.856355008087121e-05,0.0,0.0,0.0
1.717805389489513e-05,-4.833612547372468e-05,0.0,0.0,0.0
1.7124932128353976e-05,-4.8035075451480225e-05,0.0,0.0,0.0
1.7422820747015066e-05,-4.828628880204633e-05,0.0,0.0,0.0
1.714921381790191e-05,-4.8113444790942594e-05,0.0,0.0,0.0
1.709525713522453e-05,-4.858301690546796e-05,0.0,0.0,0.0
1.71430529007921e-05,-4.906611138721928e-05,0.0,0.0,0.0
1.7100861441576853e-05,-4.868098767474294e-05,0.0,0.0,0.0
1.741446612868458e-05,-4.866984818363562e-05,0.0,0.0,0.0
1.7478942027082667e-05,-4.868410906055942e-05,0.0,0.0,0.0
1.7182725059683435e-05,-4.917783007840626e-05,0.0,0.0,0.0
1.6859419702086598e-05,-4.966426422470249e-05,0.0,0.0,0.0
1.677196632954292e-05,-4.988297587260604e-05,0.0,0.0,0.0
1.701818109722808e-05,-5.0073569582309574e-05,0.0,0.0,0.0
1.7134549125330523e-05,-4.9972757551586255e-05,0.0,0.0,0.0
1.710794458631426e-05,-5.0057918997481465e-05,0.0,0.0,0.0
1.7323534848401323e-05,-4.979557706974447e-05,0.0,0.0,0.0
1.7637972632655874e-05,-4.969811561750248e-05,0.0,0.0,0.0
1.7629818103159778e-05,-4.9672104069031775e-05,0.0,0.0,0.0
1.7604048480279744e-05,-4.953203824697994e-05,0.0,0.0,0.0
1.810115463740658e-05,-4.919208004139364e-05,0.0,0.0,0.0
1.8173390344600193e-05,-4.901795546174981e-05,0.0,0.0,0.0
1.794196941773407e-05,-4.8880898248171434e-05,0.0,0.0,0.0
1.798274024622515e-05,-4.86863027617801e-05,0.0,0.0,0.0
1.761539351718966e-05,-4.866922972723842e-05,0.0,0.0,0.0
1.712057382974308e-05,-4.868075484409928e-05,0.0,0.0,0.0
1.729037285258528e-05,-4.867400639341213e-05,0.0,0.0,0.0
1.759994847816415e-05,-4.8676698497729376e-05,0.0,0.0,0.0
1.7207576092914678e-05,-4.861359411734156e-05,0.0,0.0,0.0
1.710063406790141e-05,-4.831367186852731e-05,0.0,0.0,0.0
1.7527578165754676e-05,-4.7930789150996134e-05,0.0,0.0,0.0
1.7734437278704718e-05,-4.7393237764481455e-05,0.0,0.0,0.0
1.7796010070014745e-05,-4.7284145693993196e-05,0.0,0.0,0.0
1.7167792975669727e-05,-4.737354174721986e-05,0.0,0.0,0.0
1.7364689483656548e-05,-4.7301673475885764e-05,0.0,0.0,0.0
1.781302853487432e-05,-4.735804395750165e-05,0.0,0.0,0.0
1.7494283383712173e-05,-4.784701741300523e-05,0.0,0.0,0.0
1.719500323815737e-05,-4.808648009202443e-05,0.0,0.0,0.0
1.7093187125283293e-05,-4.793943662662059e-05,0.0,0.0,0.0
1.7144880985142663e-05,-4.852396159549244e-05,0.0,0.0,0.0
1.7322709027212113e-05,-4.890999844064936e-05,0.0,0.0,0.0
1.7495884094387293e-05,-4.880737833445892e-05,0.0,0.0,0.0
1.7220972949871793e-05,-4.865595474257134e-05,0.0,0.0,0.0
1.7516502339276485e-05,-4.868887481279671e-05,0.0,0.0,0.0
1.798485391191207e-05,-4.848942990065552e-05,0.0,0.0,0.0
1.7955026123672724e-05,-4.85034724988509e-05,0.0,0.0,0.0
1.7471000319346786e-05,-4.869105760008097e-05,0.0,0.0,0.0
1.7416858099750243e-05,-4.880915003013797e-05,0.0,0.0,0.0
1.7512935301056132e-05,-4.902660657535307e-05,0.0,0.0,0.0
1.726139453239739e-05,-4.899705163552426e-05,0.0,0.0,0.0
1.755290213623084e-05,-4.926076144329272e-05,0.0,0.0,0.0
1.779784361133352e-05,-4.96449283673428e-05,0.0,0.0,0.0
1.7786895114113577e-05,-4.981346501153894e-05,0.0,0.0,0.0
1.7796466636355035e-05,-4.997002542950213e-05,0.0,0.0,0.0
1.763932959875092e-05,-4.998703661840409e-05,0.0,0.0,0.0
1.7238256987184286e-05,-4.960874139214866e-05,0.0,0.0,0.0
1.7435171685065143e-05,-4.949139474774711e-05,0.0,0.0,0.0
1.782266735972371e-05,-4.988158616470173e-05,0.0,0.0,0.0
1.7703347111819312e-05,-4.976615673513152e-05,0.0,0.0,0.0
1.723876630421728e-05,-4.929110946250148e-05,0.0,0.0,0.0
1.7323300198768266e-05,-4.939244536217302e-05,0.0,0.0,0.0
1.7267055227421224e-05,-4.9313493946101516e-05,0.0,0.0,0.0
1.7276690414291807e-05,-4.992544199922122e-05,0.0,0.0,0.0
1.7591210053069517e-05,-4.928054477204569e-05,0.0,0.0,0.0
1.7603690139367245e-05,-4.8599569709040225e-05,0.0,0.0,0.0
1.790699207049329e-05,-4.878016625298187e-05,0.0,0.0,0.0
1.7703425328363664e-05,-4.858744432567619e-05,0.0,0.0,0.0
1.7634069081395864e-05,-4.8751378926681355e-05,0.0,0.0,0.0
1.7177328118123114e-05,-4.861365960096009e-05,0.0,0.0,0.0
1.735005025693681e-05,-4.8323494411306456e-05,0.0,0.0,0.0
1.764998523867689e-05,-4.7551802708767354e-05,0.0,0.0,0.0
1.779086233000271e-05,-4.736712799058296e-05,0.0,0.0,0.0
1.7803376977099106e-05,-4.7308440116466954e-05,0.0,0.0,0.0
1.761292151059024e-05,-4.719144635600969e-05,0.0,0.0,0.0
1.7629961803322658e-05,-4.713454836746678e-05,0.0,0.0,0.0
1.748344220686704e-05,-4.7337398427771404e-05,0.0,0.0,0.0
1.716713813948445e-05,-4.746234480990097e-05,0.0,0.0,0.0
1.707303454168141e-05,-4.80058733955957e-05,0.0,0.0,0.0
1.7168185877380893e-05,-4.865681330556981e-05,0.0,0.0,0.0
1.7074027709895745e-05,-4.8688973038224503e-05,0.0,0.0,0.0
1.716545011731796e-05,-4.866937160841189e-05,0.0,0.0,0.0
1.7152669897768646e-05,-4.867832103627734e-05,0.0,0.0,0.0
1.747043825162109e-05,-4.867827010457404e-05,0.0,0.0,0.0
1.749497459968552e-05,-4.867102325079031e-05,0.0,0.0,0.0
1.777433317329269e-05,-4.868410906055942e-05,0.0,0.0,0.0
1.777374382072594e-05,-4.866649760515429e-05,0.0,0.0,0.0
1.7484471754869446e-05,-4.8687456001061946e-05,0.0,0.0,0.0
1.743163556966465e-05,-4.8664202040527016e-05,0.0,0.0,0.0
1.747744499880355e-05,-4.868882751907222e-05,0.0,0.0,0.0
1.743878237903118e-05,-4.921664731227793e-05,0.0,0.0,0.0
1.7736190784489736e-05,-4.9435620894655585e-05,0.0,0.0,0.0
1.7305428627878428e-05,-4.927271947963163e-05,0.0,0.0,0.0
1.7036927602021024e-05,-4.965525658917613e-05,0.0,0.0,0.0
1.7425845726393163e-05,-4.9659181968308985e-05,0.0,0.0,0.0
1.764397347869817e-05,-4.9925547500606626e-05,0.0,0.0,0.0
1.8055830878438428e-05,-4.960086880601011e-05,0.0,0.0,0.0
1.810305730032269e-05,-4.930401701130904e-05,0.0,0.0,0.0
1.7956426745513454e-05,-4.957728015142493e-05,0.0,0.0,0.0
1.758379949023947e-05,-4.948057539877482e-05,0.0,0.0,0.0
1.7470478269387968e-05,-4.918917329632677e-05,0.0,0.0,0.0
1.7285830836044624e-05,-4.8996509576682e-05,0.0,0.0,0.0
1.7425409168936312e-05,-4.9025777116185054e-05,0.0,0.0,0.0
1.7782700524549e-05,-4.9137957830680534e-05,0.0,0.0,0.0
1.792725015548058e-05,-4.922554217046127e-05,0.0,0.0,0.0
1.8112828911398537e-05,-4.889889169135131e-05,0.0,0.0,0.0
1.814025017665699e-05,-4.868496398557909e-05,0.0,0.0,0.0
1.79258240677882e-05,-4.876447201240808e-05,0.0,0.0,0.0
1.7502339687780477e-05,-4.89146877953317e-05,0.0,0.0,0.0
1.7417327399016358e-05,-4.8634283302817494e-05,0.0,0.0,0.0
1.7552796634845436e-05,-4.840212204726413e-05,0.0,0.0,0.0
1.7736389054334722e-05,-4.848975731874816e-05,0.0,0.0,0.0
1.7795731764636002e-05,-4.774576154886745e-05,0.0,0.0,0.0
1.7485666830907576e-05,-4.733141395263374e-05,0.0,0.0,0.0
1.7753836800693534e-05,-4.794008782482706e-05,0.0,0.0,0.0
1.782610524969641e-05,-4.7437668399652466e-05,0.0,0.0,0.0
1.776180215529166e-05,-4.7243978769984096e-05,0.0,0.0,0.0
1.7818598280427977e-05,-4.768611688632518e-05,0.0,0.0,0.0
1.723710010992363e-05,-4.817473018192686e-05,0.0,0.0,0.0
1.7071750335162506e-05,-4.81756724184379e-05,0.0,0.0,0.0
1.716098813631106e-05,-4.814373824046925e-05,0.0,0.0,0.0
1.7087866581277922e-05,-4.868879841524176e-05,0.0,0.0,0.0
1.692328260105569e-05,-4.838511813431978e-05,0.0,0.0,0.0
1.6956446415861137e-05,-4.8584519390715286e-05,0.0,0.0,0.0
1.717079067020677e-05,-4.847081072512083e-05,0.0,0.0,0.0
1.7081340047298e-05,-4.8323909140890464e-05,0.0,0.0,0.0
1.7331103663309477e-05,-4.8540103307459503e-05,0.0,0.0,0.0
1.7442902390030213e-05,-4.866398376179859e-05,0.0,0.0,0.0
1.7463971744291484e-05,-4.869097756454721e-05,0.0,0.0,0.0
1.775133569026366e-05,-4.8808720748638734e-05,0.0,0.0,0.0
1.7983989891945384e-05,-4.9027516070054844e-05,0.0,0.0,0.0
1.755082303134259e-05,-4.899570194538683e-05,0.0,0.0,0.0
1.7122158169513568e-05,-4.902854925603606e-05,0.0,0.0,0.0
1.7122654753620736e-05,-4.920819992548786e-05,0.0,0.0,0.0
1.711572622298263e-05,-4.9764421419240534e-05,0.0,0.0,0.0
1.7127753380918875e-05,-4.992629328626208e-05,0.0,0.0,0.0
1.7260714230360463e-05,-4.96389766340144e-05,0.0,0.0,0.0
1.7751344785210676e-05,-4.940997314406559e-05,0.0,0.0,0.0
1.771805909811519e-05,-4.965685002389364e-05,0.0,0.0,0.0
1.7201900845975615e-05,-4.9662721721688285e-05,0.0,0.0,0.0
1.7417663912056014e-05,-4.933316813549027e-05,0.0,0.0,0.0
1.7815154933487065e-05,-4.9013840907718986e-05,0.0,0.0,0.0
1.7760659829946235e-05,-4.872028875979595e-05,0.0,0.0,0.0
1.7519856555736624e-05,-4.9237467464990914e-05,0.0,0.0,0.0
1.7402142475475557e-05,-4.916459511150606e-05,0.0,0.0,0.0
1.7767712051863782e-05,-4.863027061219327e-05,0.0,0.0,0.0
1.7788908735383302e-05,-4.8737467295723036e-05,0.0,0.0,0.0
1.7793563529266976e-05,-4.8627625801600516e-05,0.0,0.0,0.0
1.755796984070912e-05,-4.8947669711196795e-05,0.0,0.0,0.0
1.743057873682119e-05,-4.878568506683223e-05,0.0,0.0,0.0
1.7266445865971036e-05,-4.801532850251533e-05,0.0,0.0,0.0
1.7082604244933464e-05,-4.763886681757867e-05,0.0,0.0,0.0
1.734459692670498e-05,-4.749879735754803e-05,0.0,0.0,0.0
1.7620701328269206e-05,-4.730932050733827e-05,0.0,0.0,0.0
1.781390528776683e-05,-4.7518853534711525e-05,0.0,0.0,0.0
1.777378020051401e-05,-4.7825749788898975e-05,0.0,0.0,0.0
1.765811612131074e-05,-4.8003541451180354e-05,0.0,0.0,0.0
1.730805161059834e-05,-4.8011221224442124e-05,0.0,0.0,0.0
1.726118898659479e-05,-4.8249741666950285e-05,0.0,0.0,0.0
1.7320431652478874e-05,-4.8438414523843676e-05,0.0,0.0,0.0
1.7148000551969744e-05,-4.8028206947492436e-05,0.0,0.0,0.0
1.7193791791214608e-05,-4.818008164875209e-05,0.0,0.0,0.0
1.7370794012094848e-05,-4.8734240408521146e-05,0.0,0.0,0.0
1.714417157927528e-05,-4.894219455309212e-05,0.0,0.0,0.0
1.716324004519265e-05,-4.869456824962981e-05,0.0,0.0,0.0
1.7499798559583724e-05,-4.866349627263844e-05,0.0,0.0,0.0
1.7725047655403614e-05,-4.868447649641894e-05,0.0,0.0,0.0
1.7481181203038432e-05,-4.867184179602191e-05,0.0,0.0,0.0
1.7131847926066257e-05,-4.8677698941901326e-05,0.0,0.0,0.0
1.742290442052763e-05,-4.868785254075192e-05,0.0,0.0,0.0
1.748474642226938e-05,-4.896402606391348e-05,0.0,0.0,0.0
1.7432401364203542e-05,-4.933075251756236e-05,0.0,0.0,0.0
1.7476191715104505e-05,-4.934864409733564e-05,0.0,0.0,0.0
1.7440070223528892e-05,-4.985819759895094e-05,0.0,0.0,0.0
1.7224750990862958e-05,-4.983599501429126e-05,0.0,0.0,0.0
1.7082635167753324e-05,-4.960481601301581e-05,0.0,0.0,0.0
1.7374779417878017e-05,-4.997110227122903e-05,0.0,0.0,0.0
1.745303234201856e-05,-4.9775666411733255e-05,0.0,0.0,0.0
1.725552101561334e-05,-4.9688842409523204e-05,0.0,0.0,0.0
1.710653850750532e-05,-4.948976493324153e-05,0.0,0.0,0.0
1.713075653242413e-05,-4.9336013034917414e-05,0.0,0.0,0.0
1.7454220142099075e-05,-4.935939432471059e-05,0.0,0.0,0.0
1.7804937670007348e-05,-4.933619129587896e-05,0.0,0.0,0.0
1.7932394257513806e-05,-4.935868491884321e-05,0.0,0.0,0.0
1.7853873941930942e-05,-4.933733362122439e-05,0.0,0.0,0.0
1.759517181199044e-05,-4.922958032693714e-05,0.0,0.0,0.0
1.753677861415781e-05,-4.9012105591828004e-05,0.0,0.0,0.0
1.7272092009079643e-05,-4.901198190054856e-05,0.0,0.0,0.0
1.739968683978077e-05,-4.8916270316112787e-05,0.0,0.0,0.0
1.7506961739854887e-05,-4.860975604970008e-05,0.0,0.0,0.0
1.7336960809188895e-05,-4.842139969696291e-05,0.0,0.0,0.0
1.7313035641564056e-05,-4.838986205868423e-05,0.0,0.0,0.0
1.7678878066362813e-05,-4.7528199502266943e-05,0.0,0.0,0.0
1.784572123142425e-05,-4.755923509947024e-05,0.0,0.0,0.0
1.7378917618771084e-05,-4.8066322051454335e-05,0.0,0.0,0.0
1.7196001863339916e-05,-4.760936280945316e-05,0.0,0.0,0.0
1.705902104731649e-05,-4.7405348595930263e-05,0.0,0.0,0.0
1.7169799320981838e-05,-4.727561827166937e-05,0.0,0.0,0.0
1.7082578779081814e-05,-4.737892959383316e-05,0.0,0.0,0.0
1.741464075166732e-05,-4.7564873966621235e-05,0.0,0.0,0.0
1.7471344108344056e-05,-4.798375448444858e-05,0.0,0.0,0.0
1.7194795873365365e-05,-4.799071029992774e-05,0.0,0.0,0.0
1.7345137166557834e-05,-4.824592178920284e-05,0.0,0.0,0.0
1.7261272660107352e-05,-4.858731699641794e-05,0.0,0.0,0.0
1.729279938444961e-05,-4.8460507969139144e-05,0.0,0.0,0.0
1.7503365597804077e-05,-4.853180507780053e-05,0.0,0.0,0.0
1.7422182281734422e-05,-4.869544864050113e-05,0.0,0.0,0.0
1.766004970704671e-05,-4.86648095829878e-05,0.0,0.0,0.0
1.7786582247936167e-05,-4.8681264161132276e-05,0.0,0.0,0.0
1.7631278751650825e-05,-4.867666939389892e-05,0.0,0.0,0.0
1.7610645954846404e-05,-4.8671521653886884e-05,0.0,0.0,0.0
1.7779686459107324e-05,-4.882274879491888e-05,0.0,0.0,0.0
1.780803722795099e-05,-4.899572377325967e-05,0.0,0.0,0.0
1.7890246454044245e-05,-4.9146514356834814e-05,0.0,0.0,0.0
1.7923626728588715e-05,-4.942373197991401e-05,0.0,0.0,0.0
1.74756241904106e-05,-4.9696820497047156e-05,0.0,0.0,0.0
1.744341898302082e-05,-4.975459887646139e-05,0.0,0.0,0.0
1.738947321427986e-05,-4.9862017476698384e-05,0.0,0.0,0.0
1.7270282114623114e-05,-4.9403610319131985e-05,0.0,0.0,0.0
1.7766220480552875e-05,-4.93015832034871e-05,0.0,0.0,0.0
1.8122791516361758e-05,-4.9342605052515864e-05,0.0,0.0,0.0
1.7761913113645278e-05,-4.904920933768153e-05,0.0,0.0,0.0
1.7515640138299204e-05,-4.9281348765362054e-05,0.0,0.0,0.0
1.771712959452998e-05,-4.9083129852078855e-05,0.0,0.0,0.0
1.78555965248961e-05,-4.8651156248524785e-05,0.0,0.0,0.0
1.8015440218732692e-05,-4.925075336359441e-05,0.0,0.0,0.0
1.820888792281039e-05,-4.8873494961299e-05,0.0,0.0,0.0
1.7295946236117743e-05,-4.830378748010844e-05,0.0,0.0,0.0
1.732423697831109e-05,-4.8162517487071455e-05,0.0,0.0,0.0
1.7755806766217574e-05,-4.8156849516090006e-05,0.0,0.0,0.0
1.7758698959369212e-05,-4.843148781219497e-05,0.0,0.0,0.0
1.782241633918602e-05,-4.805490607395768e-05,0.0,0.0,0.0
1.776435055944603e-05,-4.7842109779594466e-05,0.0,0.0,0.0
1.781713763193693e-05,-4.762621392728761e-05,0.0,0.0,0.0
1.776929093466606e-05,-4.75194574391935e-05,0.0,0.0,0.0
1.7642345483181998e-05,-4.747497587231919e-05,0.0,0.0,0.0
1.7433387256460264e-05,-4.7851666749920696e-05,0.0,0.0,0.0
1.7625188775127754e-05,-4.784398333868012e-05,0.0,0.0,0.0
1.7496182408649474e-05,-4.781378811458126e-05,0.0,0.0,0.0
1.714815152809024e-05,-4.787201396538876e-05,0.0,0.0,0.0
1.709672505967319e-05,-4.779423034051433e-05,0.0,0.0,0.0
1.7141162970801815e-05,-4.820340109290555e-05,0.0,0.0,0.0
1.7103180653066374e-05,-4.8653259000275284e-05,0.0,0.0,0.0
1.722029992379248e-05,-4.870024713454768e-05,0.0,0.0,0.0
1.727343988022767e-05,-4.8652007535565645e-05,0.0,0.0,0.0
1.6863932614796795e-05,-4.863649883191101e-05,0.0,0.0,0.0
1.6878107999218628e-05,-4.839907705900259e-05,0.0,0.0,0.0
1.775100827217102e-05,-4.859967157244682e-05,0.0,0.0,0.0
1.7828866475610994e-05,-4.843449642066844e-05,0.0,0.0,0.0
1.775907185219694e-05,-4.858730608248152e-05,0.0,0.0,0.0
1.7810687495511957e-05,-4.877046376350336e-05,0.0,0.0,0.0
1.7475647837272845e-05,-4.919845741824247e-05,0.0,0.0,0.0
1.77172951225657e-05,-4.9194073653779924e-05,0.0,0.0,0.0
1.784193045750726e-05,-4.9140595365315676e-05,0.0,0.0,0.0
1.749610783008393e-05,-5.000289820600301e-05,0.0,0.0,0.0
1.770222297636792e-05,-4.972148599335924e-05,0.0,0.0,0.0
1.782065191946458e-05,-4.969290966982953e-05,0.0,0.0,0.0
1.776628050720319e-05,-4.990592788089998e-05,0.0,0.0,0.0
1.781499850039836e-05,-4.982113387086429e-05,0.0,0.0,0.0
1.7771662896848284e-05,-4.986219937563874e-05,0.0,0.0,0.0
1.7618463971302845e-05,-4.966318010701798e-05,0.0,0.0,0.0
1.779117519618012e-05,-4.949065260007046e-05,0.0,0.0,0.0
1.816598705772776e-05,-4.971537055098452e-05,0.0,0.0,0.0
1.8096310668624938e-05,-4.9504909839015454e-05,0.0,0.0,0.0
1.8004038793151267e-05,-4.9354439397575334e-05,0.0,0.0,0.0
1.7497943190392107e-05,-4.907297989120707e-05,0.0,0.0,0.0
1.7399355783709325e-05,-4.8678375605959445e-05,0.0,0.0,0.0
1.787358269211836e-05,-4.868079486186616e-05,0.0,0.0,0.0
1.7931241018231958e-05,-4.877293395111337e-05,0.0,0.0,0.0
1.7475522327004e-05,-4.881879431195557e-05,0.0,0.0,0.0
1.7352331269648857e-05,-4.837470987695269e-05,0.0,0.0,0.0
1.7309956092503853e-05,-4.8241272452287376e-05,0.0,0.0,0.0
1.7640999431023374e-05,-4.798352165380493e-05,0.0,0.0,0.0
1.750772207742557e-05,-4.76123605039902e-05,0.0,0.0,0.0
1.706272996671032e-05,-4.740735312225297e-05,0.0,0.0,0.0
1.7169855709653348e-05,-4.761069067171775e-05,0.0,0.0,0.0
1.707931915007066e-05,-4.7736808483023196e-05,0.0,0.0,0.0
1.715470352792181e-05,-4.792706749867648e-05,0.0,0.0,0.0
1.70930870808661e-05,-4.806735523743555e-05,0.0,0.0,0.0
1.7142265278380364e-05,-4.8232279368676245e-05,0.0,0.0,0.0
1.7104252037825063e-05,-4.84159063489642e-05,0.0,0.0,0.0
1.7132313587353565e-05,-4.802616240340285e-05,0.0,0.0,0.0
1.735765181365423e-05,-4.8263525968650356e-05,0.0,0.0,0.0
1.7254142221645452e-05,-4.859520049649291e-05,0.0,0.0,0.0
1.7295438738074154e-05,-4.867914685746655e-05,0.0,0.0,0.0
1.7302339983871207e-05,-4.8677851737011224e-05,0.0,0.0,0.0
1.7461472452851012e-05,-4.8671245167497545e-05,0.0,0.0,0.0
1.7869542716653086e-05,-4.868391988566145e-05,0.0,0.0,0.0
1.755181983753573e-05,-4.866678500548005e-05,0.0,0.0,0.0
1.7662083337199874e-05,-4.885713497060351e-05,0.0,0.0,0.0
1.76138237293344e-05,-4.900519343209453e-05,0.0,0.0,0.0
1.7612994270166382e-05,-4.9317684897687286e-05,0.0,0.0,0.0
1.7513337297714315e-05,-4.980889571015723e-05,0.0,0.0,0.0
1.7127158571383916e-05,-4.9771224439609796e-05,0.0,0.0,0.0
1.7237522115465254e-05,-4.9591395509196445e-05,0.0,0.0,0.0
1.7332755305687897e-05,-4.998748772777617e-05,0.0,0.0,0.0
1.715571306704078e-05,-4.994982373318635e-05,0.0,0.0,0.0
1.7171119907288812e-05,-4.9680020310916007e-05,0.0,0.0,0.0
1.754230288497638e-05,-4.968563371221535e-05,0.0,0.0,0.0
1.77534093381837e-05,-4.968190842191689e-05,0.0,0.0,0.0
1.788110785128083e-05,-4.9631125875748694e-05,0.0,0.0,0.0
1.8020236893789843e-05,-4.9336500524077564e-05,0.0,0.0,0.0
1.7884301996673457e-05,-4.905247260467149e-05,0.0,0.0,0.0
1.7691427274257876e-05,-4.92589533678256e-05,0.0,0.0,0.0
1.7565471353009343e-05,-4.878893741988577e-05,0.0,0.0,0.0
1.7364802260999568e-05,-4.8281402996508405e-05,0.0,0.0,0.0
1.753168362483848e-05,-4.866617746301927e-05,0.0,0.0,0.0
1.7661544916336425e-05,-4.893982986686751e-05,0.0,0.0,0.0
1.736332160362508e-05,-4.879174957750365e-05,0.0,0.0,0.0
1.6994285033433698e-05,-4.9106511141872033e-05,0.0,0.0,0.0
1.7688698790152557e-05,-4.8982819862430915e-05,0.0,0.0,0.0
1.7540885892231017e-05,-4.8097106628119946e-05,0.0,0.0,0.0
1.7663229300524108e-05,-4.785671262652613e-05,0.0,0.0,0.0
1.7822763766162097e-05,-4.760242882184684e-05,0.0,0.0,0.0
1.794990930648055e-05,-4.752776294481009e-05,0.0,0.0,0.0
1.7993612345890142e-05,-4.728692147182301e-05,0.0,0.0,0.0
1.7568139810464345e-05,-4.736536357086152e-05,0.0,0.0,0.0
1.7502650734968483e-05,-4.763331526191905e-05,0.0,0.0,0.0
1.741212145134341e-05,-4.8015812353696674e-05,0.0,0.0,0.0
1.7359814592055045e-05,-4.8003876145230606e-05,0.0,0.0,0.0
1.7214613762916997e-05,-4.799768066732213e-05,0.0,0.0,0.0
1.7244945411221124e-05,-4.8252706619678065e-05,0.0,0.0,0.0
1.6894136933842674e-05,-4.863311187364161e-05,0.0,0.0,0.0
1.719983629300259e-05,-4.872007048106752e-05,0.0,0.0,0.0
1.7365620806231163e-05,-4.8632718971930444e-05,0.0,0.0,0.0
1.722279739624355e-05,-4.8644425987731665e-05,0.0,0.0,0.0
1.7406708138878457e-05,-4.838871245738119e-05,0.0,0.0,0.0
1.7551945347804576e-05,-4.866498420597054e-05,0.0,0.0,0.0
1.7639262296142988e-05,-4.868237010668963e-05,0.0,0.0,0.0
1.734345278237015e-05,-4.873815123573877e-05,0.0,0.0,0.0
1.7884480257635005e-05,-4.926920519210398e-05,0.0,0.0,0.0
1.7997897884924896e-05,-4.94167506985832e-05,0.0,0.0,0.0
1.7023645341396332e-05,-4.928761700284667e-05,0.0,0.0,0.0
1.7748723621480167e-05,-4.9675654736347497e-05,0.0,0.0,0.0
1.7280171960010193e-05,-4.994365735910833e-05,0.0,0.0,0.0
1.6771949958638288e-05,-5.005772618460469e-05,0.0,0.0,0.0
1.7084114006138407e-05,-4.998761141905561e-05,0.0,0.0,0.0
1.7564056179253384e-05,-5.004386912332848e-05,0.0,0.0,0.0
1.7867603673948906e-05,-5.000040619052015e-05,0.0,0.0,0.0
1.7723272321745753e-05,-4.981945676263422e-05,0.0,0.0,0.0
1.785413405741565e-05,-4.94554296892602e-05,0.0,0.0,0.0
1.7736314475769177e-05,-4.9160036724060774e-05,0.0,0.0,0.0
1.7841553926700726e-05,-4.91819555463735e-05,0.0,0.0,0.0
1.774839620338753e-05,-4.9190570280188695e-05,0.0,0.0,0.0
1.7830005162977614e-05,-4.884123700321652e-05,0.0,0.0,0.0
1.7908267182065174e-05,-4.8679765313863754e-05,0.0,0.0,0.0
1.7876729543786496e-05,-4.8816164053278044e-05,0.0,0.0,0.0
1.7573860532138497e-05,-4.887303657596931e-05,0.0,0.0,0.0
1.7790296624298207e-05,-4.869923577643931e-05,0.0,0.0,0.0
1.768908441590611e-05,-4.8545869503868744e-05,0.0,0.0,0.0
1.746674024616368e-05,-4.838058885070495e-05,0.0,0.0,0.0
1.744945620885119e-05,-4.821757829631679e-05,0.0,0.0,0.0
1.760888881108258e-05,-4.80625094496645e-05,0.0,0.0,0.0
1.8012417058344e-05,-4.7825375077081844e-05,0.0,0.0,0.0
1.78621121449396e-05,-4.743707904708572e-05,0.0,0.0,0.0
1.773523945303168e-05,-4.7243906010407954e-05,0.0,0.0,0.0
1.780495949788019e-05,-4.744196485262364e-05,0.0,0.0,0.0
1.7439424482290633e-05,-4.7566038119839504e-05,0.0,0.0,0.0
1.7154681700048968e-05,-4.77553803648334e-05,0.0,0.0,0.0
1.7095844668801874e-05,-4.759845251101069e-05,0.0,0.0,0.0
1.7413805835531093e-05,-4.800241003977135e-05,0.0,0.0,0.0
1.721853004710283e-05,-4.853029895457439e-05,0.0,0.0,0.0
1.705838440102525e-05,-4.874644218944013e-05,0.0,0.0,0.0
1.7176516848849133e-05,-4.862195055466145e-05,0.0,0.0,0.0
1.7070806279662065e-05,-4.871653800364584e-05,0.0,0.0,0.0
1.7387972548021935e-05,-4.887175964540802e-05,0.0,0.0,0.0
1.7438973372918554e-05,-4.883746078121476e-05,0.0,0.0,0.0
1.7472071704105474e-05,-4.863322101300582e-05,0.0,0.0,0.0
1.7633648894843645e-05,-4.870504199061543e-05,0.0,0.0,0.0
1.7815642422647215e-05,-4.865986920776777e-05,0.0,0.0,0.0
1.7772103092283942e-05,-4.88523073727265e-05,0.0,0.0,0.0
1.7648935681791045e-05,-4.901952706859447e-05,0.0,0.0,0.0
1.7590768038644455e-05,-4.914698001812212e-05,0.0,0.0,0.0
1.7524436771054752e-05,-4.9364509322913364e-05,0.0,0.0,0.0
1.738077844493091e-05,-4.9454545660410076e-05,0.0,0.0,0.0
1.7651173038757406e-05,-4.969825749867596e-05,0.0,0.0,0.0
1.749122384353541e-05,-4.9665450205793604e-05,0.0,0.0,0.0
1.7519831089884974e-05,-4.970340523868799e-05,0.0,0.0,0.0
1.7888034562929533e-05,-4.9747144657885656e-05,0.0,0.0,0.0
1.8020093193626963e-05,-4.994449409423396e-05,0.0,0.0,0.0
1.7974985894397832e-05,-4.9641832447377965e-05,0.0,0.0,0.0
1.835756302170921e-05,-4.936018740409054e-05,0.0,0.0,0.0
1.8469305359758437e-05,-4.9334397772327065e-05,0.0,0.0,0.0
1.7785216186894104e-05,-4.9329257308272645e-05,0.0,0.0,0.0
1.7797163309296593e-05,-4.9016081902664155e-05,0.0,0.0,0.0
1.7777731045498513e-05,-4.870870543527417e-05,0.0,0.0,0.0
1.7503878552815877e-05,-4.894698940915987e-05,0.0,0.0,0.0
1.741689266054891e-05,-4.9067813961301e-05,0.0,0.0,0.0
1.7222542737727053e-05,-4.869888289249502e-05,0.0,0.0,0.0
1.706067268969491e-05,-4.893625737167895e-05,0.0,0.0,0.0
1.7658185242908075e-05,-4.855089355260134e-05,0.0,0.0,0.0
1.7575644960743375e-05,-4.826034273719415e-05,0.0,0.0,0.0
1.7637732526054606e-05,-4.818512388737872e-05,0.0,0.0,0.0
1.763793989084661e-05,-4.750149309984408e-05,0.0,0.0,0.0
1.7993868823396042e-05,-4.7362376790260896e-05,0.0,0.0,0.0
1.8182478015660308e-05,-4.750179505208507e-05,0.0,0.0,0.0
1.768474066921044e-05,-4.7879289923002943e-05,0.0,0.0,0.0
1.7709699022816494e-05,-4.833010825677775e-05,0.0,0.0,0.0
1.7221851521753706e-05,-4.853696736972779e-05,0.0,0.0,0.0
1.7475569620728493e-05,-4.847335731028579e-05,0.0,0.0,0.0
1.7606638721190393e-05,-4.840879046241753e-05,0.0,0.0,0.0
1.7496196960564703e-05,-4.8266079829772934e-05,0.0,0.0,0.0
1.742811218718998e-05,-4.865062874159776e-05,0.0,0.0,0.0
1.7368052795063704e-05,-4.870136399404146e-05,0.0,0.0,0.0
1.712659650365822e-05,-4.874777368968353e-05,0.0,0.0,0.0
1.7194561223732308e-05,-4.893133518635295e-05,0.0,0.0,0.0
1.737515594868455e-05,-4.8692425480112433e-05,0.0,0.0,0.0
1.7273830962949432e-05,-4.8664402129361406e-05,0.0,0.0,0.0
1.771823735907674e-05,-4.868453834205866e-05,0.0,0.0,0.0
1.776440694811754e-05,-4.8671059630578384e-05,0.0,0.0,0.0
1.714795689622406e-05,-4.871089549851604e-05,0.0,0.0,0.0
1.7112959540099837e-05,-4.89727062813472e-05,0.0,0.0,0.0
1.745479676174e-05,-4.90543752675876e-05,0.0,0.0,0.0
1.7752374333213083e-05,-4.92772669531405e-05,0.0,0.0,0.0
1.7830094293458387e-05,-4.995840572519228e-05,0.0,0.0,0.0
1.7224194380105473e-05,-4.9782269343268126e-05,0.0,0.0,0.0
1.7085489162127487e-05,-4.9622431106399745e-05,0.0,0.0,0.0
1.7636120901443064e-05,-4.9980626499745995e-05,0.0,0.0,0.0
1.7828837371780537e-05,-4.976795753464103e-05,0.0,0.0,0.0
1.7311562260147184e-05,-4.967358472640626e-05,0.0,0.0,0.0
1.753430115059018e-05,-4.94786690978799e-05,0.0,0.0,0.0
1.7835483959061094e-05,-4.912129224976525e-05,0.0,0.0,0.0
1.7566457245266065e-05,-4.901743523078039e-05,0.0,0.0,0.0
1.7471222236054018e-05,-4.9188569391844794e-05,0.0,0.0,0.0
1.761639941832982e-05,-4.9188569391844794e-05,0.0,0.0,0.0
1.780269667506218e-05,-4.8998696001945063e-05,0.0,0.0,0.0
1.778550722519867e-05,-4.902228829450905e-05,0.0,0.0,0.0
1.7933405615622178e-05,-4.8865975259104744e-05,0.0,0.0,0.0
1.7994245354202576e-05,-4.855961742578074e-05,0.0,0.0,0.0
1.7803913578973152e-05,-4.834081482840702e-05,0.0,0.0,0.0
1.7677015421213582e-05,-4.844571594730951e-05,0.0,0.0,0.0
1.7573407603777014e-05,-4.847146919928491e-05,0.0,0.0,0.0
1.7756277884473093e-05,-4.7882702347123995e-05,0.0,0.0,0.0
1.7746937373885885e-05,-4.7337362047983333e-05,0.0,0.0,0.0
1.758544567564968e-05,-4.7265282773878425e-05,0.0,0.0,0.0
1.8014743545791134e-05,-4.7084340621950105e-05,0.0,0.0,0.0
1.783330117177684e-05,-4.731481021735817e-05,0.0,0.0,0.0
1.742004133120645e-05,-4.7718334826640785e-05,0.0,0.0,0.0
1.7465397831983864e-05,-4.795166023541242e-05,0.0,0.0,0.0
1.7137679606094025e-05,-4.8049787437776104e-05,0.0,0.0,0.0
1.7104955986724235e-05,-4.854184226132929e-05,0.0,0.0,0.0
1.7135047528427094e-05,-4.8788893764140084e-05,0.0,0.0,0.0
1.6841444448800758e-05,-4.8583406169200316e-05,0.0,0.0,0.0
1.701801193121355e-05,-4.875139711657539e-05,0.0,0.0,0.0
1.716910264804028e-05,-4.861703928327188e-05,0.0,0.0,0.0
1.7315600416623056e-05,-4.8721431085141376e-05,0.0,0.0,0.0
1.7287960872636177e-05,-4.8643538320902735e-05,0.0,0.0,0.0
1.7056179785868153e-05,-4.8272795538650826e-05,0.0,0.0,0.0
1.7575199308339506e-05,-4.815870852326043e-05,0.0,0.0,0.0
1.7400141587131657e-05,-4.85806267533917e-05,0.0,0.0,0.0
1.710147444100585e-05,-4.88344558107201e-05,0.0,0.0,0.0
1.7140593627118506e-05,-4.9031728849513456e-05,0.0,0.0,0.0
1.7100241166190244e-05,-4.916232865070924e-05,0.0,0.0,0.0
1.714104655547999e-05,-4.9646987463347614e-05,0.0,0.0,0.0
1.710048491077032e-05,-5.0021142669720575e-05,0.0,0.0,0.0
1.714018981147092e-05,-4.988292857888155e-05,0.0,0.0,0.0
1.7101872799685225e-05,-4.970574445906095e-05,0.0,0.0,0.0
1.735104524414055e-05,-4.965822154190391e-05,0.0,0.0,0.0
1.7744770957506262e-05,-4.980604717275128e-05,0.0,0.0,0.0
1.7833544916356914e-05,-4.988741420675069e-05,0.0,0.0,0.0
1.7755928638507612e-05,-4.967497079633176e-05,0.0,0.0,0.0
1.7886783098219894e-05,-4.924933455185965e-05,0.0,0.0,0.0
1.807294574973639e-05,-4.907272523269057e-05,0.0,0.0,0.0
1.813113885873463e-05,-4.8915720981312916e-05,0.0,0.0,0.0
1.7789421690395102e-05,-4.8790330765768886e-05,0.0,0.0,0.0
1.775006421667058e-05,-4.886067472398281e-05,0.0,0.0,0.0
1.7205693438882008e-05,-4.8516085371375084e-05,0.0,0.0,0.0
1.7621054212213494e-05,-4.9055095587391406e-05,0.0,0.0,0.0
1.7384798411512747e-05,-4.9315247451886535e-05,0.0,0.0,0.0
1.6922147551667877e-05,-4.850823825108819e-05,0.0,0.0,0.0
1.728598181216512e-05,-4.8578604037174955e-05,0.0,0.0,0.0
1.6985059119178914e-05,-4.7698082198621705e-05,0.0,0.0,0.0
1.7463500626035966e-05,-4.7730267397128046e-05,0.0,0.0,0.0
1.761891871865373e-05,-4.7854446165729314e-05,0.0,0.0,0.0
1.7431741071050055e-05,-4.78315087093506e-05,0.0,0.0,0.0
1.7442149328417145e-05,-4.743057070299983e-05,0.0,0.0,0.0
1.788169174687937e-05,-4.733489913633093e-05,0.0,0.0,0.0
1.7364985978929326e-05,-4.734697722597048e-05,0.0,0.0,0.0
1.7149259292636998e-05,-4.764808909385465e-05,0.0,0.0,0.0
1.71070932992734e-05,-4.836853622691706e-05,0.0,0.0,0.0
1.7419230061932467e-05,-4.84796728414949e-05,0.0,0.0,0.0
1.7797519831219688e-05,-4.8256795707857236e-05,0.0,0.0,0.0
1.7777874745661393e-05,-4.795296263182536e-05,0.0,0.0,0.0
1.7812993974075653e-05,-4.8292698920704424e-05,0.0,0.0,0.0
1.7553149518789724e-05,-4.8597819841234013e-05,0.0,0.0,0.0
1.7181251678266563e-05,-4.8750727728474885e-05,0.0,0.0,0.0
1.706194416328799e-05,-4.8606587370159104e-05,0.0,0.0,0.0
1.725104812067002e-05,-4.8815072659635916e-05,0.0,0.0,0.0
1.7314523574896157e-05,-4.892809738521464e-05,0.0,0.0,0.0
1.732601594994776e-05,-4.908598566544242e-05,0.0,0.0,0.0
1.7640979422139935e-05,-4.8947684263112023e-05,0.0,0.0,0.0
1.785811582522001e-05,-4.909872222924605e-05,0.0,0.0,0.0
1.7087631931644864e-05,-4.928462294628844e-05,0.0,0.0,0.0
1.7147107428172603e-05,-4.9711194151313975e-05,0.0,0.0,0.0
1.7387455955031328e-05,-4.9662696255836636e-05,0.0,0.0,0.0
1.7788417608244345e-05,-4.969736619386822e-05,0.0,0.0,0.0
1.7786351236281916e-05,-4.9675571062834933e-05,0.0,0.0,0.0
1.779288322723005e-05,-4.9430280341766775e-05,0.0,0.0,0.0
1.7795480744098313e-05,-4.931951843900606e-05,0.0,0.0,0.0
1.801869075279683e-05,-4.960006845067255e-05,0.0,0.0,0.0
1.7939502868102863e-05,-4.947474008076824e-05,0.0,0.0,0.0
1.7737027519615367e-05,-4.9308368033962324e-05,0.0,0.0,0.0
1.804410931072198e-05,-4.9184152885572985e-05,0.0,0.0,0.0
1.8096889107255265e-05,-4.876848834101111e-05,0.0,0.0,0.0
1.833747955970466e-05,-4.871337296208367e-05,0.0,0.0,0.0
1.8274044123245403e-05,-4.8811034503160045e-05,0.0,0.0,0.0
1.814198367355857e-05,-4.8890578909777105e-05,0.0,0.0,0.0
1.8261927834828384e-05,-4.849097604164854e-05,0.0,0.0,0.0
1.8199656551587395e-05,-4.8513931687921286e-05,0.0,0.0,0.0
1.7662459868006408e-05,-4.863920185016468e-05,0.0,0.0,0.0
1.7467989891883917e-05,-4.8592413804726675e-05,0.0,0.0,0.0
1.744505607348401e-05,-4.821698894375004e-05,0.0,0.0,0.0
1.756274650688283e-05,-4.7939749492798e-05,0.0,0.0,0.0
1.7678234144113958e-05,-4.757641363539733e-05,0.0,0.0,0.0
1.7652397218625993e-05,-4.743636236526072e-05,0.0,0.0,0.0
1.797269214875996e-05,-4.761996024171822e-05,0.0,0.0,0.0
1.7951342670130543e-05,-4.771040767082013e-05,0.0,0.0,0.0
1.7963933714781888e-05,-4.763531615026295e-05,0.0,0.0,0.0
1.786453867680393e-05,-4.77282446809113e-05,0.0,0.0,0.0
1.708515264908783e-05,-4.7945224650902674e-05,0.0,0.0,0.0
1.7146527170552872e-05,-4.807443110621534e-05,0.0,0.0,0.0
1.7103180653066374e-05,-4.8547783080721274e-05,0.0,0.0,0.0
1.713064921204932e-05,-4.878170875599608e-05,0.0,0.0,0.0
1.7382893929607235e-05,-4.859159162151627e-05,0.0,0.0,0.0
1.7233629478141665e-05,-4.874244041275233e-05,0.0,0.0,0.0
1.7556511011207476e-05,-4.83819458168e-05,0.0,0.0,0.0
1.7652799215284176e-05,-4.881599306827411e-05,0.0,0.0,0.0
1.7358797776978463e-05,-4.8838053771760315e-05,0.0,0.0,0.0
1.7743304852047004e-05,-4.860734043177217e-05,0.0,0.0,0.0
1.775595774233807e-05,-4.873962825513445e-05,0.0,0.0,0.0
1.7622020095586777e-05,-4.861847264692187e-05,0.0,0.0,0.0
1.7616946934140287e-05,-4.8909430915955454e-05,0.0,0.0,0.0
1.763742693583481e-05,-4.914298915537074e-05,0.0,0.0,0.0
1.7288595699938014e-05,-4.938769416185096e-05,0.0,0.0,0.0
1.711673212412279e-05,-4.9461188609711826e-05,0.0,0.0,0.0
1.7132946595666e-05,-4.9712183681549504e-05,0.0,0.0,0.0
1.735684236336965e-05,-4.953116877004504e-05,0.0,0.0,0.0
1.7798724002204835e-05,-4.9493952246848494e-05,0.0,0.0,0.0
1.7779313566279598e-05,-4.9540620238985866e-05,0.0,0.0,0.0
1.771357528923545e-05,-4.939318387187086e-05,0.0,0.0,0.0
1.753951801219955e-05,-4.931013972964138e-05,0.0,0.0,0.0
1.7776792446966283e-05,-4.93034822284244e-05,0.0,0.0,0.0
1.7800330169848166e-05,-4.901366992271505e-05,0.0,0.0,0.0
1.7789252524380572e-05,-4.906126923742704e-05,0.0,0.0,0.0
1.7790463971323334e-05,-4.9278969527222216e-05,0.0,0.0,0.0
1.779682315827813e-05,-4.9066955398302525e-05,0.0,0.0,0.0
1.77849069586955e-05,-4.8946843890007585e-05,0.0,0.0,0.0
1.7789992853067815e-05,-4.875213198829442e-05,0.0,0.0,0.0
1.749214789015241e-05,-4.861565321334638e-05,0.0,0.0,0.0
1.71511583175743e-05,-4.8723344661993906e-05,0.0,0.0,0.0
1.7637223209021613e-05,-4.864120273850858e-05,0.0,0.0,0.0
1.7874825061880983e-05,-4.8700854677008465e-05,0.0,0.0,0.0
1.7966749510378577e-05,-4.817161607206799e-05,0.0,0.0,0.0
1.7979415133595467e-05,-4.772296597366221e-05,0.0,0.0,0.0
1.7474278138251975e-05,-4.791326500708237e-05,0.0,0.0,0.0
1.729840187181253e-05,-4.779137088917196e-05,0.0,0.0,0.0
1.746520501910709e-05,-4.7656438255216926e-05,0.0,0.0,0.0
1.7674381524557248e-05,-4.767543214256875e-05,0.0,0.0,0.0
1.7389604181516916e-05,-4.784914563060738e-05,0.0,0.0,0.0
1.7504822608316317e-05,-4.800917668035254e-05,0.0,0.0,0.0
1.742384301905986e-05,-4.832465492654592e-05,0.0,0.0,0.0
1.7325961380265653e-05,-4.8525103920837864e-05,0.0,0.0,0.0
1.7116170056397095e-05,-4.8210749810095876e-05,0.0,0.0,0.0
1.7114994989242405e-05,-4.7998797526815906e-05,0.0,0.0,0.0
1.7251604731427506e-05,-4.8130819777725264e-05,0.0,0.0,0.0
1.7317148376605473e-05,-4.8423840780742466e-05,0.0,0.0,0.0
1.7172469597426243e-05,-4.877947867498733e-05,0.0,0.0,0.0
1.71535702975234e-05,-4.889922638540156e-05,0.0,0.0,0.0
1.7560316337039694e-05,-4.872416684520431e-05,0.0,0.0,0.0
1.7799045963329263e-05,-4.863367576035671e-05,0.0,0.0,0.0
1.8046699551632628e-05,-4.882006760453805e-05,0.0,0.0,0.0
1.7493894119979814e-05,-4.933640957460739e-05,0.0,0.0,0.0
1.7428648789064027e-05,-5.003037222195417e-05,0.0,0.0,0.0
1.7454389308113605e-05,-4.9989143008133397e-05,0.0,0.0,0.0
1.7150116036646068e-05,-4.974205876351334e-05,0.0,0.0,0.0
1.7091915651690215e-05,-4.993459879187867e-05,0.0,0.0,0.0
1.742450513120275e-05,-5.008854350307956e-05,0.0,0.0,0.0
1.7468481019022875e-05,-4.996320785721764e-05,0.0,0.0,0.0
1.74482829606859e-05,-5.006267747376114e-05,0.0,0.0,0.0
1.770572089299094e-05,-4.9986429075943306e-05,0.0,0.0,0.0
1.7817490515881218e-05,-5.004199920222163e-05,0.0,0.0,0.0
1.77694146259455e-05,-5.0004680815618485e-05,0.0,0.0,0.0
1.7598949852981605e-05,-4.960066144121811e-05,0.0,0.0,0.0
1.7623937310418114e-05,-4.910930510959588e-05,0.0,0.0,0.0
1.80263195943553e-05,-4.88308141939342e-05,0.0,0.0,0.0
1.8104321497958153e-05,-4.8662241169949993e-05,0.0,0.0,0.0
1.8145519788959064e-05,-4.8682053602533415e-05,0.0,0.0,0.0
1.7955528164748102e-05,-4.883698784396984e-05,0.0,0.0,0.0
1.7798771295929328e-05,-4.8857393267098814e-05,0.0,0.0,0.0
1.7789026969694532e-05,-4.868914038524963e-05,0.0,0.0,0.0
1.7919281162903644e-05,-4.865949085797183e-05,0.0,0.0,0.0
1.8122293113265187e-05,-4.869601980317384e-05,0.0,0.0,0.0
1.8023116354015656e-05,-4.844177237828262e-05,0.0,0.0,0.0
1.780882121238392e-05,-4.7962985263438895e-05,0.0,0.0,0.0
1.768961374182254e-05,-4.763784454553388e-05,0.0,0.0,0.0
1.7570360796526074e-05,-4.762479875353165e-05,0.0,0.0,0.0
1.77303245436633e-05,-4.73942345706746e-05,0.0,0.0,0.0
1.7846787159214728e-05,-4.764540062751621e-05,0.0,0.0,0.0
1.7743752323440276e-05,-4.7687462938483804e-05,0.0,0.0,0.0
1.7770391423255205e-05,-4.768741564475931e-05,0.0,0.0,0.0
1.7140047930297442e-05,-4.799744419869967e-05,0.0,0.0,0.0
1.6792653696029447e-05,-4.832454942516051e-05,0.0,0.0,0.0
1.7064961866708472e-05,-4.806596916751005e-05,0.0,0.0,0.0
1.7168120393762365e-05,-4.850716140936129e-05,0.0,0.0,0.0
1.7612379451747984e-05,-4.8793444875627756e-05,0.0,0.0,0.0
1.7638767531025223e-05,-4.8579553549643606e-05,0.0,0.0,0.0
1.7585529349162243e-05,-4.875484592048451e-05,0.0,0.0,0.0
1.7914027921506204e-05,-4.861374691245146e-05,0.0,0.0,0.0
1.769371192494873e-05,-4.8948080802801996e-05,0.0,0.0,0.0
1.786913344403729e-05,-4.899691339232959e-05,0.0,0.0,0.0
1.7733724234858528e-05,-4.902008731733076e-05,0.0,0.0,0.0
1.7833735910244286e-05,-4.8818215873325244e-05,0.0,0.0,0.0
1.776477620296646e-05,-4.902429282083176e-05,0.0,0.0,0.0
1.7466443750890903e-05,-4.988920773030259e-05,0.0,0.0,0.0
1.7107424355344847e-05,-5.017979128751904e-05,0.0,0.0,0.0
1.7420696167391725e-05,-5.003403566661291e-05,0.0,0.0,0.0
1.7656420823186636e-05,-5.000342207495123e-05,0.0,0.0,0.0
1.7579050108906813e-05,-5.003491969546303e-05,0.0,0.0,0.0
1.767796311469283e-05,-5.0003443902824074e-05,0.0,0.0,0.0
1.756528035912197e-05,-4.982144309906289e-05,0.0,0.0,0.0
1.768514994182624e-05,-4.945988621329889e-05,0.0,0.0,0.0
1.747851274558343e-05,-4.956644988851622e-05,0.0,0.0,0.0
1.751751551637426e-05,-4.93960251333192e-05,0.0,0.0,0.0
1.7772541468730196e-05,-4.9243531975662336e-05,0.0,0.0,0.0
1.7813739759731106e-05,-4.9020723963622004e-05,0.0,0.0,0.0
1.776895805960521e-05,-4.86568060296122e-05,0.0,0.0,0.0
1.7783733710530214e-05,-4.869130134466104e-05,0.0,0.0,0.0
1.7450145605835132e-05,-4.8665053327567875e-05,0.0,0.0,0.0
1.715265716484282e-05,-4.8684305511415005e-05,0.0,0.0,0.0
1.7090818801079877e-05,-4.838378299609758e-05,0.0,0.0,0.0
1.7424401448806748e-05,-4.8026155127445236e-05,0.0,0.0,0.0
1.7203692550538108e-05,-4.800004535354674e-05,0.0,0.0,0.0
1.7076288713724352e-05,-4.775294291903265e-05,0.0,0.0,0.0
1.7156582543975674e-05,-4.788060687133111e-05,0.0,0.0,0.0
1.732583586999681e-05,-4.8293673899024725e-05,0.0,0.0,0.0
1.750340379658155e-05,-4.809699021279812e-05,0.0,0.0,0.0
1.720588443276938e-05,-4.7573794290656224e-05,0.0,0.0,0.0
1.7132440916611813e-05,-4.7506095143035054e-05,0.0,0.0,0.0
1.7495514839538373e-05,-4.789813101524487e-05,0.0,0.0,0.0
1.781925129762385e-05,-4.798675581696443e-05,0.0,0.0,0.0
1.743101529427804e-05,-4.818802699446678e-05,0.0,0.0,0.0
1.7126623788499273e-05,-4.817704393644817e-05,0.0,0.0,0.0
1.7117361494456418e-05,-4.830266334465705e-05,0.0,0.0,0.0
1.712171797407791e-05,-4.8535686801187694e-05,0.0,0.0,0.0
1.7376429241267033e-05,-4.84743359265849e-05,0.0,0.0,0.0
1.7772783394320868e-05,-4.854632425121963e-05,0.0,0.0,0.0
1.7597129044588655e-05,-4.846925367019139e-05,0.0,0.0,0.0
1.7230806406587362e-05,-4.864256698056124e-05,0.0,0.0,0.0
1.751099989633076e-05,-4.8789406719151884e-05,0.0,0.0,0.0
1.772094219631981e-05,-4.896695463685319e-05,0.0,0.0,0.0
1.7543234207550995e-05,-4.911313590127975e-05,0.0,0.0,0.0
1.7690006643533707e-05,-4.928851922159083e-05,0.0,0.0,0.0
1.7487476725364104e-05,-4.948156129103154e-05,0.0,0.0,0.0
1.709361640678253e-05,-4.987703505321406e-05,0.0,0.0,0.0
1.7142558135674335e-05,-4.9770660552894697e-05,0.0,0.0,0.0
1.7103309801314026e-05,-4.8988811613526195e-05,0.0,0.0,0.0
1.7708038285491057e-05,-4.960185106028803e-05,0.0,0.0,0.0
1.8141297914553434e-05,-5.003295882488601e-05,0.0,0.0,0.0
1.783706284186337e-05,-4.9991784180747345e-05,0.0,0.0,0.0
1.828978020057548e-05,-4.953453753842041e-05,0.0,0.0,0.0
1.8535449271439575e-05,-4.975023330189288e-05,0.0,0.0,0.0
1.817040356399957e-05,-4.944735701428726e-05,0.0,0.0,0.0
1.792730290617328e-05,-4.9052156100515276e-05,0.0,0.0,0.0
1.77541787707014e-05,-4.9095538997789845e-05,0.0,0.0,0.0
1.7820799257606268e-05,-4.849901961279102e-05,0.0,0.0,0.0
1.757976679073181e-05,-4.8627487558405846e-05,0.0,0.0,0.0
1.745902409311384e-05,-4.839848043047823e-05,0.0,0.0,0.0
1.7627704437472858e-05,-4.877756873611361e-05,0.0,0.0,0.0
1.779211379471235e-05,-4.8283429350703955e-05,0.0,0.0,0.0
1.7795502571971156e-05,-4.834994615521282e-05,0.0,0.0,0.0
1.7647387721808627e-05,-4.8644753405824304e-05,0.0,0.0,0.0
1.7597985788597725e-05,-4.8435376811539754e-05,0.0,0.0,0.0
1.776816316123586e-05,-4.802250987268053e-05,0.0,0.0,0.0
1.7709013263811357e-05,-4.787113721249625e-05,0.0,0.0,0.0
1.75448785739718e-05,-4.762392200063914e-05,0.0,0.0,0.0
1.7781601854949258e-05,-4.729810461867601e-05,0.0,0.0,0.0
1.7724576537148096e-05,-4.75225861009676e-05,0.0,0.0,0.0
1.7477448636782356e-05,-4.784697375725955e-05,0.0,0.0,0.0
1.7383530575898476e-05,-4.783938857144676e-05,0.0,0.0,0.0
1.7255626516998746e-05,-4.7866455133771524e-05,0.0,0.0,0.0
1.761431667546276e-05,-4.81279130326584e-05,0.0,0.0,0.0
1.729478026391007e-05,-4.7896712203510106e-05,0.0,0.0,0.0
1.697379229881335e-05,-4.810945029021241e-05,0.0,0.0,0.0
1.72425734490389e-05,-4.821497350349091e-05,0.0,0.0,0.0
1.702120243862737e-05,-4.872292629443109e-05,0.0,0.0,0.0
1.719976353342645e-05,-4.8626541683916e-05,0.0,0.0,0.0
1.7314850992988795e-05,-4.871537021244876e-05,0.0,0.0,0.0
1.728775714582298e-05,-4.864702350459993e-05,0.0,0.0,0.0
1.7270102034672163e-05,-4.869654367212206e-05,0.0,0.0,0.0
1.776694080035668e-05,-4.88874975417275e-05,0.0,0.0,0.0
1.732365126372315e-05,-4.903794979327358e-05,0.0,0.0,0.0
1.7313343050773256e-05,-4.8794019676279277e-05,0.0,0.0,0.0
1.748828981362749e-05,-4.8860194510780275e-05,0.0,0.0,0.0
1.7601167201064527e-05,-4.921667277812958e-05,0.0,0.0,0.0
1.7668484360910952e-05,-4.9669641157379374e-05,0.0,0.0,0.0
1.740490370139014e-05,-5.0049788114847615e-05,0.0,0.0,0.0
1.7506210497231223e-05,-4.998777149012312e-05,0.0,0.0,0.0
1.7270283933612518e-05,-4.991225796402432e-05,0.0,0.0,0.0
1.7426451449864544e-05,-4.97852306580171e-05,0.0,0.0,0.0
1.7727592421579175e-05,-4.98021072417032e-05,0.0,0.0,0.0
1.785029235179536e-05,-4.935402830597013e-05,0.0,0.0,0.0
1.7644191757426597e-05,-4.934495882480405e-05,0.0,0.0,0.0
1.760609302436933e-05,-4.934742901241407e-05,0.0,0.0,0.0
1.778847763489466e-05,-4.935027754982002e-05,0.0,0.0,0.0
1.8168844690080732e-05,-4.934327444061637e-05,0.0,0.0,0.0
1.8146776710636914e-05,-4.924704262521118e-05,0.0,0.0,0.0
1.8373904822510667e-05,-4.873361103818752e-05,0.0,0.0,0.0
1.7836411643656902e-05,-4.8629117372911423e-05,0.0,0.0,0.0
1.740679181239102e-05,-4.871450437349267e-05,0.0,0.0,0.0
1.7188192941830494e-05,-4.863522917730734e-05,0.0,0.0,0.0
1.7061767721315846e-05,-4.840946712647565e-05,0.0,0.0,0.0
1.7448137441533618e-05,-4.8284455260727555e-05,0.0,0.0,0.0
1.7715994545142166e-05,-4.8119596613105386e-05,0.0,0.0,0.0
1.7832586308941245e-05,-4.742491728393361e-05,0.0,0.0,0.0
1.8001786884269677e-05,-4.757108763442375e-05,0.0,0.0,0.0
1.7951246263692155e-05,-4.747212733491324e-05,0.0,0.0,0.0
1.749596958688926e-05,-4.727526174974628e-05,0.0,0.0,0.0
1.7495449355919845e-05,-4.759704461321235e-05,0.0,0.0,0.0
1.7222640963154845e-05,-4.7845202061580494e-05,0.0,0.0,0.0
1.732250166242011e-05,-4.8041969421319664e-05,0.0,0.0,0.0
1.7460361050325446e-05,-4.797372093889862e-05,0.0,0.0,0.0
1.728133975120727e-05,-4.8370842705480754e-05,0.0,0.0,0.0
1.728096503939014e-05,-4.866486415266991e-05,0.0,0.0,0.0
1.74554133991478e-05,-4.853605423704721e-05,0.0,0.0,0.0
1.732046621327754e-05,-4.847480158787221e-05,0.0,0.0,0.0
1.7250056771445088e-05,-4.867266397923231e-05,0.0,0.0,0.0
1.7330328773823567e-05,-4.8447345761815086e-05,0.0,0.0,0.0
1.7139291230705567e-05,-4.823540075449273e-05,0.0,0.0,0.0
1.7201371520059183e-05,-4.863212234340608e-05,0.0,0.0,0.0
1.7449367078370415e-05,-4.8712139687268063e-05,0.0,0.0,0.0
1.753781361912843e-05,-4.864787479164079e-05,0.0,0.0,0.0
1.7759701222530566e-05,-4.8761849029688165e-05,0.0,0.0,0.0
1.7767211829777807e-05,-4.9020633014151827e-05,0.0,0.0,0.0
1.742107815516647e-05,-4.939331847708672e-05,0.0,0.0,0.0
1.71818865055684e-05,-4.9680435040500015e-05,0.0,0.0,0.0
1.7371279682265595e-05,-4.998571967007592e-05,0.0,0.0,0.0
1.7227186617674306e-05,-4.973878094460815e-05,0.0,0.0,0.0
1.733047429297585e-05,-4.963340325048193e-05,0.0,0.0,0.0
1.7837834093370475e-05,-4.9728132580639794e-05,0.0,0.0,0.0
1.7743601347319782e-05,-4.990947127225809e-05,0.0,0.0,0.0
1.7829775970312767e-05,-4.957806959282607e-05,0.0,0.0,0.0
1.7763719370123e-05,-4.971538874087855e-05,0.0,0.0,0.0
1.7811998986871913e-05,-4.994240589439869e-05,0.0,0.0,0.0
1.777928991941735e-05,-4.930555951432325e-05,0.0,0.0,0.0
1.8011198335443623e-05,-4.902683576801792e-05,0.0,0.0,0.0
1.794232775864657e-05,-4.855824590777047e-05,0.0,0.0,0.0
1.7759461115929298e-05,-4.876838647760451e-05,0.0,0.0,0.0
1.7822902009356767e-05,-4.860716580878943e-05,0.0,0.0,0.0
1.7762989955372177e-05,-4.8555011744610965e-05,0.0,0.0,0.0
1.7819054846768267e-05,-4.8464284191140905e-05,0.0,0.0,0.0
1.776708450051956e-05,-4.8697176680434495e-05,0.0,0.0,0.0
1.781477840268053e-05,-4.8531368520343676e-05,0.0,0.0,0.0
1.7771479178918526e-05,-4.7957808419596404e-05,0.0,0.0,0.0
1.7927308363141492e-05,-4.760403317050077e-05,0.0,0.0,0.0
1.8099597582477145e-05,-4.772640750161372e-05,0.0,0.0,0.0
1.8056265616905876e-05,-4.743026147480123e-05,0.0,0.0,0.0
1.779009289748501e-05,-4.732697561848909e-05,0.0,0.0,0.0
1.7793228835216723e-05,-4.773306136485189e-05,0.0,0.0,0.0
1.7791546270018443e-05,-4.760819501825608e-05,0.0,0.0,0.0
1.7791753634810448e-05,-4.772668398800306e-05,0.0,0.0,0.0
1.7750466213328764e-05,-4.765820631291717e-05,0.0,0.0,0.0
1.745801819197368e-05,-4.8018762754509225e-05,0.0,0.0,0.0
1.7131631466327235e-05,-4.8032812628662214e-05,0.0,0.0,0.0
1.711004733806476e-05,-4.860710760112852e-05,0.0,0.0,0.0
1.7130778360296972e-05,-4.873311991104856e-05,0.0,0.0,0.0
1.7110880435211584e-05,-4.8630114179104567e-05,0.0,0.0,0.0
1.686407813394908e-05,-4.897914550383575e-05,0.0,0.0,0.0
1.6996817066683434e-05,-4.9017235141946e-05,0.0,0.0,0.0
1.743353459460195e-05,-4.9005848268279806e-05,0.0,0.0,0.0
1.7426606063963845e-05,-4.878448453382589e-05,0.0,0.0,0.0
1.7480942915426567e-05,-4.8645415517967194e-05,0.0,0.0,0.0
1.7648972061579116e-05,-4.9127960664918646e-05,0.0,0.0,0.0
1.782581784937065e-05,-4.9159447371494025e-05,0.0,0.0,0.0
1.738208084134385e-05,-4.9176960601471364e-05,0.0,0.0,0.0
1.7300124454777688e-05,-4.974284456693567e-05,0.0,0.0,0.0
1.763687760103494e-05,-5.0006743549602106e-05,0.0,0.0,0.0
1.746763700793963e-05,-5.0029637350235134e-05,0.0,0.0,0.0
1.727278322505299e-05,-5.000993769499473e-05,0.0,0.0,0.0
1.744981636875309e-05,-4.975055708200671e-05,0.0,0.0,0.0
1.7463644326198846e-05,-4.93513944093138e-05,0.0,0.0,0.0
1.75653985934332e-05,-4.9461450544185936e-05,0.0,0.0,0.0
1.7894608390633948e-05,-4.956761404173449e-05,0.0,0.0,0.0
1.8018548871623352e-05,-4.9371399654773995e-05,0.0,0.0,0.0
1.7738422684487887e-05,-4.932703814120032e-05,0.0,0.0,0.0
1.7524745999253355e-05,-4.929111310048029e-05,0.0,0.0,0.0
1.777268698788248e-05,-4.895807433058508e-05,0.0,0.0,0.0
1.7807720723794773e-05,-4.869659460382536e-05,0.0,0.0,0.0
1.7736969311954454e-05,-4.8573725507594645e-05,0.0,0.0,0.0
1.7501326510682702e-05,-4.815416832570918e-05,0.0,0.0,0.0
1.7397816918673925e-05,-4.852663914789446e-05,0.0,0.0,0.0
1.7203479728777893e-05,-4.878106483374722e-05,0.0,0.0,0.0
1.735142541292589e-05,-4.799063390237279e-05,0.0,0.0,0.0
1.7266531358473003e-05,-4.773733962792903e-05,0.0,0.0,0.0
1.7012423995765857e-05,-4.815877400687896e-05,0.0,0.0,0.0
1.771855568222236e-05,-4.7931000153766945e-05,0.0,0.0,0.0
1.7785243471735157e-05,-4.752641325467266e-05,0.0,0.0,0.0
1.802685801521875e-05,-4.778349830303341e-05,0.0,0.0,0.0
1.7709575331537053e-05,-4.78034999105148e-05,0.0,0.0,0.0
1.738560968078673e-05,-4.809274832950905e-05,0.0,0.0,0.0
1.7317206584266387e-05,-4.794015330844559e-05,0.0,0.0,0.0
1.7050548194674775e-05,-4.804944546776824e-05,0.0,0.0,0.0
1.7181133443955332e-05,-4.797772999154404e-05,0.0,0.0,0.0
1.706901821307838e-05,-4.835750951315276e-05,0.0,0.0,0.0
1.7004456822178327e-05,-4.868557152803987e-05,0.0,0.0,0.0
1.704570240690373e-05,-4.880751293967478e-05,0.0,0.0,0.0
1.7343507352052256e-05,-4.889590491075069e-05,0.0,0.0,0.0
1.7234740880667232e-05,-4.8654408601578325e-05,0.0,0.0,0.0
1.7572843717061915e-05,-4.870243719778955e-05,0.0,0.0,0.0
1.767757385096047e-05,-4.864714719587937e-05,0.0,0.0,0.0
1.757084100972861e-05,-4.870723932981491e-05,0.0,0.0,0.0
1.767568028299138e-05,-4.8644502385286614e-05,0.0,0.0,0.0
1.757585778250359e-05,-4.870800694334321e-05,0.0,0.0,0.0
1.7795849998947233e-05,-4.8709149268688634e-05,0.0,0.0,0.0
1.8039721908280626e-05,-4.911922223982401e-05,0.0,0.0,0.0
1.7466521967435256e-05,-4.9573620344744995e-05,0.0,0.0,0.0
1.7106673112721182e-05,-4.947400884702802e-05,0.0,0.0,0.0
1.7157639376819134e-05,-4.9584828957449645e-05,0.0,0.0,0.0
1.740801781124901e-05,-5.007864456274547e-05,0.0,0.0,0.0
1.7800097339204513e-05,-4.997004725737497e-05,0.0,0.0,0.0
1.7505934010841884e-05,-4.978180368198082e-05,0.0,0.0,0.0
1.7695057977107354e-05,-4.98812623845879e-05,0.0,0.0,0.0
1.7846703485702164e-05,-4.959654324920848e-05,0.0,0.0,0.0
1.799357596610207e-05,-4.897169492323883e-05,0.0,0.0,0.0
1.818837881728541e-05,-4.9088295781984925e-05,0.0,0.0,0.0
1.785722270142287e-05,-4.9178710469277576e-05,0.0,0.0,0.0
1.7593538359506056e-05,-4.940800499753095e-05,0.0,0.0,0.0
1.743085522321053e-05,-4.9104157369583845e-05,0.0,0.0,0.0
1.7664644474280067e-05,-4.883102883468382e-05,0.0,0.0,0.0
1.761278872436378e-05,-4.866623203270137e-05,0.0,0.0,0.0
1.7272692275582813e-05,-4.8674537538317963e-05,0.0,0.0,0.0
1.7290703908656724e-05,-4.868786709266715e-05,0.0,0.0,0.0
1.7296126316068694e-05,-4.835887375520542e-05,0.0,0.0,0.0
1.7412288798368536e-05,-4.78968104289379e-05,0.0,0.0,0.0
1.776500721462071e-05,-4.751207961817272e-05,0.0,0.0,0.0
1.7935280993697233e-05,-4.737563358503394e-05,0.0,0.0,0.0
1.7771482816897333e-05,-4.728982821688987e-05,0.0,0.0,0.0
1.7296475562034175e-05,-4.747332422994077e-05,0.0,0.0,0.0
1.7282256521866657e-05,-4.7691915824543685e-05,0.0,0.0,0.0
1.721957050904166e-05,-4.7966826969059184e-05,0.0,0.0,0.0
1.703617635939736e-05,-4.7659254050813615e-05,0.0,0.0,0.0
1.7191659935633652e-05,-4.773432738147676e-05,0.0,0.0,0.0
1.7019377992255613e-05,-4.800231181434356e-05,0.0,0.0,0.0
1.6867636077222414e-05,-4.83779440401122e-05,0.0,0.0,0.0
1.669654193392489e-05,-4.861013439949602e-05,0.0,0.0,0.0
1.656543645367492e-05,-4.8442994739161804e-05,0.0,0.0,0.0
1.6954265447566286e-05,-4.8852361942408606e-05,0.0,0.0,0.0
1.72560139617417e-05,-4.886992246611044e-05,0.0,0.0,0.0
1.67471280292375e-05,-4.8527181206736714e-05,0.0,0.0,0.0
1.7343849322060123e-05,-4.8542802687734365e-05,0.0,0.0,0.0
1.7730846593622118e-05,-4.845707007916644e-05,0.0,0.0,0.0
1.778629666659981e-05,-4.880472624790855e-05,0.0,0.0,0.0
1.7805026800488122e-05,-4.857706153416075e-05,0.0,0.0,0.0
1.7773088984540664e-05,-4.8962203436531126e-05,0.0,0.0,0.0
1.7411497537977993e-05,-4.938362690154463e-05,0.0,0.0,0.0
1.7447306163376197e-05,-4.9536542064743116e-05,0.0,0.0,0.0
1.7867976566776633e-05,-4.967306085745804e-05,0.0,0.0,0.0
1.772313771652989e-05,-4.988204818801023e-05,0.0,0.0,0.0
1.753486503730528e-05,-4.950516449753195e-05,0.0,0.0,0.0
1.7360876881866716e-05,-4.949697540723719e-05,0.0,0.0,0.0
1.769957634678576e-05,-4.9556394515093416e-05,0.0,0.0,0.0
1.755056655383669e-05,-4.920288120047189e-05,0.0,0.0,0.0
1.781063838279806e-05,-4.904746310785413e-05,0.0,0.0,0.0
1.777792385837529e-05,-4.9076548748416826e-05,0.0,0.0,0.0
1.7706173821352422e-05,-4.928282578475773e-05,0.0,0.0,0.0
1.755411722115241e-05,-4.899480700260028e-05,0.0,0.0,0.0
1.7756452507455833e-05,-4.8960766434902325e-05,0.0,0.0,0.0
1.788889494491741e-05,-4.873781654168852e-05,0.0,0.0,0.0
1.790880924090743e-05,-4.883272777078673e-05,0.0,0.0,0.0
1.7269405361730605e-05,-4.819627429242246e-05,0.0,0.0,0.0
1.6992302334983833e-05,-4.852135316468775e-05,0.0,0.0,0.0
1.7251579265575856e-05,-4.873772195423953e-05,0.0,0.0,0.0
1.7332255083601922e-05,-4.769563383888453e-05,0.0,0.0,0.0
1.7859789295471273e-05,-4.763948527397588e-05,0.0,0.0,0.0
1.746034831739962e-05,-4.7700785216875374e-05,0.0,0.0,0.0
1.7728356397128664e-05,-4.737097697216086e-05,0.0,0.0,0.0
1.7568765542819165e-05,-4.758636714541353e-05,0.0,0.0,0.0
1.7395816030330025e-05,-4.745342084788717e-05,0.0,0.0,0.0
1.7743033822625875e-05,-4.751941014546901e-05,0.0,0.0,0.0
1.7547619791002944e-05,-4.7953366447472945e-05,0.0,0.0,0.0
1.724102367006708e-05,-4.797913788934238e-05,0.0,0.0,0.0
1.7104151993407868e-05,-4.802238254342228e-05,0.0,0.0,0.0
1.7326445231446996e-05,-4.8185545892920345e-05,0.0,0.0,0.0
1.727430208120495e-05,-4.817637091036886e-05,0.0,0.0,0.0
1.711414552119095e-05,-4.798665031557903e-05,0.0,0.0,0.0
1.712551420496311e-05,-4.833568164031021e-05,0.0,0.0,0.0
1.7414862668374553e-05,-4.8672245611669496e-05,0.0,0.0,0.0
1.7652002497925423e-05,-4.86770695715677e-05,0.0,0.0,0.0
1.7464268239564262e-05,-4.86778917547781e-05,0.0,0.0,0.0
1.733140743453987e-05,-4.8672995035303757e-05,0.0,0.0,0.0
1.745950066833757e-05,-4.868062387686223e-05,0.0,0.0,0.0
1.796800825104583e-05,-4.867139068664983e-05,0.0,0.0,0.0
1.778116711648181e-05,-4.8681289626983926e-05,0.0,0.0,0.0
1.748905924614519e-05,-4.867148891207762e-05,0.0,0.0,0.0
1.780201455403585e-05,-4.880820415564813e-05,0.0,0.0,0.0
1.7784086594474502e-05,-4.93399566039443e-05,0.0,0.0,0.0
1.771299503161572e-05,-4.9660320655675605e-05,0.0,0.0,0.0
1.721872467896901e-05,-4.936737968819216e-05,0.0,0.0,0.0
1.7339471014565788e-05,-4.932968658977188e-05,0.0,0.0,0.0
1.724383582768496e-05,-4.938543861499056e-05,0.0,0.0,0.0
1.701679138932377e-05,-4.99134257552214e-05,0.0,0.0,0.0
1.7759943148121238e-05,-4.928013004246168e-05,0.0,0.0,0.0
1.7796994143282063e-05,-4.8821781092556193e-05,0.0,0.0,0.0
1.778544537955895e-05,-4.942632949678227e-05,0.0,0.0,0.0
1.828905806178227e-05,-4.9003072490449995e-05,0.0,0.0,0.0
1.8276265109307133e-05,-4.9064292397815734e-05,0.0,0.0,0.0
1.806642467272468e-05,-4.8972662625601515e-05,0.0,0.0,0.0
1.7963348000193946e-05,-4.903992157778703e-05,0.0,0.0,0.0
1.7737302187015302e-05,-4.8791833251016214e-05,0.0,0.0,0.0
1.7642190869082697e-05,-4.86713761347346e-05,0.0,0.0,0.0
1.7234213373740204e-05,-4.8685804358683527e-05,0.0,0.0,0.0
1.7482381736044772e-05,-4.866305971518159e-05,0.0,0.0,0.0
1.7788566765375435e-05,-4.837331653106958e-05,0.0,0.0,0.0
1.793877709133085e-05,-4.783532858709805e-05,0.0,0.0,0.0
1.7717573427944444e-05,-4.7692479711258784e-05,0.0,0.0,0.0
1.738371793180704e-05,-4.751828601001762e-05,0.0,0.0,0.0
1.7888440197566524e-05,-4.724806785816327e-05,0.0,0.0,0.0
1.8023747543338686e-05,-4.7086541599128395e-05,0.0,0.0,0.0
1.7808501070248894e-05,-4.743097088066861e-05,0.0,0.0,0.0
1.7689892047201283e-05,-4.764730329043232e-05,0.0,0.0,0.0
1.749546754581388e-05,-4.768934377352707e-05,0.0,0.0,0.0
