1.6647896700305864e-05,-4.92737817694433e-05,0.0,0.0,0.0
1.6839161617099307e-05,-4.913186785415746e-05,0.0,0.0,0.0
1.7327587556792423e-05,-4.892536890110932e-05,0.0,0.0,0.0
1.695409264357295e-05,-4.8826532292878255e-05,0.0,0.0,0.0
1.749599505274091e-05,-4.859036926063709e-05,0.0,0.0,0.0
1.7384751117788255e-05,-4.897768667433411e-05,0.0,0.0,0.0
1.7505210053059272e-05,-4.898535553365946e-05,0.0,0.0,0.0
1.763951513567008e-05,-4.924109816784039e-05,0.0,0.0,0.0
1.8025064491666853e-05,-4.915576573694125e-05,0.0,0.0,0.0
1.7745076547726057e-05,-4.879157859249972e-05,0.0,0.0,0.0
1.7603206288185902e-05,-4.88756486447528e-05,0.0,0.0,0.0
1.7838738131104037e-05,-4.8999045247910544e-05,0.0,0.0,0.0
1.7584001398063265e-05,-4.902791988570243e-05,0.0,0.0,0.0
1.7801832655095495e-05,-4.89938429382164e-05,0.0,0.0,0.0
1.7937758457264863e-05,-4.903158333036117e-05,0.0,0.0,0.0
1.772014729795046e-05,-4.8863923439057544e-05,0.0,0.0,0.0
1.752909884089604e-05,-4.882268694927916e-05,0.0,0.0,0.0
1.76091562025249e-05,-4.886552778771147e-05,0.0,0.0,0.0
1.702705594652798e-05,-4.8824105761013925e-05,0.0,0.0,0.0
1.7059212041203864e-05,-4.886176611762494e-05,0.0,0.0,0.0
1.7633603420108557e-05,-4.875516606261954e-05,0.0,0.0,0.0
1.7618098354432732e-05,-4.860847184318118e-05,0.0,0.0,0.0
1.7573654986335896e-05,-4.8733752919360995e-05,0.0,0.0,0.0
1.727857488731388e-05,-4.8628400691086426e-05,0.0,0.0,0.0
1.7020882296492346e-05,-4.8715315642766654e-05,0.0,0.0,0.0
1.750403862388339e-05,-4.864534275839105e-05,0.0,0.0,0.0
1.710952346911654e-05,-4.869985059485771e-05,0.0,0.0,0.0
1.7123762518167496e-05,-4.865935261477716e-05,0.0,0.0,0.0
1.6847987353685312e-05,-4.8687270464142784e-05,0.0,0.0,0.0
1.700308348517865e-05,-4.867053939960897e-05,0.0,0.0,0.0
1.6946471077972092e-05,-4.8677426093490794e-05,0.0,0.0,0.0
1.6924361261771992e-05,-4.867909228778444e-05,0.0,0.0,0.0
1.7475644199294038e-05,-4.867011011810973e-05,0.0,0.0,0.0
1.715216967568267e-05,-4.868523683398962e-05,0.0,0.0,0.0
1.716991391731426e-05,-4.8665067879483104e-05,0.0,0.0,0.0
1.7077314623747952e-05,-4.889131014351733e-05,0.0,0.0,0.0
1.7541186025482602e-05,-4.882080611423589e-05,0.0,0.0,0.0
1.7781940186978318e-05,-4.866825838689692e-05,0.0,0.0,0.0
1.746096859278623e-05,-4.88496407342609e-05,0.0,0.0,0.0
1.7103120626416057e-05,-4.885783346253447e-05,0.0,0.0,0.0
1.758191137923859e-05,-4.8667341616237536e-05,0.0,0.0,0.0
1.7833048332249746e-05,-4.8686531954444945e-05,0.0,0.0,0.0
1.761012572387699e-05,-4.866515882895328e-05,0.0,0.0,0.0
1.776095450622961e-05,-4.868787800660357e-05,0.0,0.0,0.0
1.7818350897869095e-05,-4.86645512864925e-05,0.0,0.0,0.0
1.7770074919098988e-05,-4.8783553211251274e-05,0.0,0.0,0.0
1.7809916244004853e-05,-4.8982157750288025e-05,0.0,0.0,0.0
1.770338712958619e-05,-4.896400059806183e-05,0.0,0.0,0.0
1.7620068319956772e-05,-4.8678411985747516e-05,0.0,0.0,0.0
1.809432069421746e-05,-4.872792851529084e-05,0.0,0.0,0.0
1.837562012951821e-05,-4.8938625695882365e-05,0.0,0.0,0.0
1.753085780364927e-05,-4.8801539378473535e-05,0.0,0.0,0.0
1.7369002307532355e-05,-4.921874278807081e-05,0.0,0.0,0.0
1.7220721929334104e-05,-4.945591354044154e-05,0.0,0.0,0.0
1.7321359337074682e-05,-4.8971112846629694e-05,0.0,0.0,0.0
1.7571279386174865e-05,-4.8766800318844616e-05,0.0,0.0,0.0
1.762542342476081e-05,-4.888156763627194e-05,0.0,0.0,0.0
1.7651525922701694e-05,-4.9093225243268535e-05,0.0,0.0,0.0
1.7331005437881686e-05,-4.870407428825274e-05,0.0,0.0,0.0
1.75580116774654e-05,-4.869586700806394e-05,0.0,0.0,0.0
1.715240978228394e-05,-4.866602102993056e-05,0.0,0.0,0.0
1.73740008904133e-05,-4.867855386692099e-05,0.0,0.0,0.0
1.7648439097683877e-05,-4.868073665420525e-05,0.0,0.0,0.0
1.78084010258317e-05,-4.866625022259541e-05,0.0,0.0,0.0
1.7784976080292836e-05,-4.8871603212319314e-05,0.0,0.0,0.0
1.7450869563617744e-05,-4.9001810111803934e-05,0.0,0.0,0.0
1.6799824152258225e-05,-4.902627188130282e-05,0.0,0.0,0.0
1.6739029888412915e-05,-4.884563168161549e-05,0.0,0.0,0.0
1.712945413601119e-05,-4.869811164098792e-05,0.0,0.0,0.0
1.7235326595255174e-05,-4.8653018893674016e-05,0.0,0.0,0.0
1.734663783281576e-05,-4.8700279876356944e-05,0.0,0.0,0.0
1.7121990822488442e-05,-4.865215305471793e-05,0.0,0.0,0.0
1.7123424186138436e-05,-4.870001066592522e-05,0.0,0.0,0.0
1.7199648937094025e-05,-4.8653393605491146e-05,0.0,0.0,0.0
1.7368371118209325e-05,-4.8772395530249923e-05,0.0,0.0,0.0
1.728209463180974e-05,-4.896650352748111e-05,0.0,0.0,0.0
1.765554588928353e-05,-4.899874693364836e-05,0.0,0.0,0.0
1.7556300008436665e-05,-4.871619603363797e-05,0.0,0.0,0.0
1.7342699720757082e-05,-4.897900726064108e-05,0.0,0.0,0.0
1.722482920740731e-05,-4.9018832214642316e-05,0.0,0.0,0.0
1.703642374195624e-05,-4.869426993536763e-05,0.0,0.0,0.0
1.7187205230584368e-05,-4.866109520662576e-05,0.0,0.0,0.0
1.7069442037609406e-05,-4.868874020758085e-05,0.0,0.0,0.0
1.7158445189124905e-05,-4.866643212153576e-05,0.0,0.0,0.0
1.7094276699936017e-05,-4.919412458548322e-05,0.0,0.0,0.0
1.713721576379612e-05,-4.940486542182043e-05,0.0,0.0,0.0
1.7580143321538344e-05,-4.929873102810234e-05,0.0,0.0,0.0
1.7395976101397537e-05,-4.916588659398258e-05,0.0,0.0,0.0
1.7041422324837185e-05,-4.8955902457237244e-05,0.0,0.0,0.0
1.7180842405650765e-05,-4.905854075332172e-05,0.0,0.0,0.0
1.7268275769311003e-05,-4.8973903176374733e-05,0.0,0.0,0.0
1.7677977666608058e-05,-4.886172609985806e-05,0.0,0.0,0.0
1.7773032595869154e-05,-4.8644502385286614e-05,0.0,0.0,0.0
1.780067032086663e-05,-4.8860256356419995e-05,0.0,0.0,0.0
1.7494114217697643e-05,-4.899516352452338e-05,0.0,0.0,0.0
1.7118027244578116e-05,-4.9023685278370976e-05,0.0,0.0,0.0
1.7128801118815318e-05,-4.900465501123108e-05,0.0,0.0,0.0
1.710815922706388e-05,-4.901558713754639e-05,0.0,0.0,0.0
1.72425734490389e-05,-4.901147622149438e-05,0.0,0.0,0.0
1.732751843519509e-05,-4.891421485808678e-05,0.0,0.0,0.0
1.7256525097764097e-05,-4.8784138925839216e-05,0.0,0.0,0.0
1.731328302412294e-05,-4.889387855655514e-05,0.0,0.0,0.0
1.7334466974716634e-05,-4.8740719648776576e-05,0.0,0.0,0.0
1.7606638721190393e-05,-4.861998604610562e-05,0.0,0.0,0.0
1.7601156287128106e-05,-4.876750608673319e-05,0.0,0.0,0.0
1.72385207406478e-05,-4.890318450634368e-05,0.0,0.0,0.0
1.6666210285620764e-05,-4.877985702478327e-05,0.0,0.0,0.0
1.6268992112600245e-05,-4.8589485231786966e-05,0.0,0.0,0.0
1.688326483417768e-05,-4.846068623010069e-05,0.0,0.0,0.0
1.6432646589237265e-05,-4.8794736358104274e-05,0.0,0.0,0.0
1.6732987205614336e-05,-4.890134368906729e-05,0.0,0.0,0.0
1.681300636846572e-05,-4.8771467845654115e-05,0.0,0.0,0.0
1.675264138611965e-05,-4.917093610856682e-05,0.0,0.0,0.0
1.7054420823114924e-05,-4.865292794420384e-05,0.0,0.0,0.0
1.7107218809542246e-05,-4.8523528676014394e-05,0.0,0.0,0.0
1.7565087546245195e-05,-4.869649637839757e-05,0.0,0.0,0.0
1.780412821972277e-05,-4.9094251153292134e-05,0.0,0.0,0.0
1.7980926713789813e-05,-4.876418097410351e-05,0.0,0.0,0.0
1.795265961845871e-05,-4.8699090257287025e-05,0.0,0.0,0.0
1.7616781406104565e-05,-4.86705030198209e-05,0.0,0.0,0.0
1.7448368453187868e-05,-4.866785820922814e-05,0.0,0.0,0.0
1.7321302948403172e-05,-4.8696299927541986e-05,0.0,0.0,0.0
1.710425021883566e-05,-4.8785288527142256e-05,0.0,0.0,0.0
1.7395699615008198e-05,-4.891528078587726e-05,0.0,0.0,0.0
1.763535510690417e-05,-4.864832226303406e-05,0.0,0.0,0.0
1.76135672518285e-05,-4.881572021986358e-05,0.0,0.0,0.0
1.7633177776588127e-05,-4.896004611509852e-05,0.0,0.0,0.0
1.761749263096135e-05,-4.91488171974197e-05,0.0,0.0,0.0
1.762802457960788e-05,-4.927516056341119e-05,0.0,0.0,0.0
1.7623426174395718e-05,-4.9287176807411015e-05,0.0,0.0,0.0
1.772803625499364e-05,-4.867228199145757e-05,0.0,0.0,0.0
1.810971116356086e-05,-4.868274481850676e-05,0.0,0.0,0.0
1.7439815565012395e-05,-4.866832750849426e-05,0.0,0.0,0.0
1.7122280041803606e-05,-4.8684894863981754e-05,0.0,0.0,0.0
1.6810156012070365e-05,-4.8667694500181824e-05,0.0,0.0,0.0
1.7047530491254292e-05,-4.89714220748283e-05,0.0,0.0,0.0
1.7185611795866862e-05,-4.8769579734653234e-05,0.0,0.0,0.0
1.7063004634110257e-05,-4.8609825171297416e-05,0.0,0.0,0.0
1.7171543731819838e-05,-4.873198122368194e-05,0.0,0.0,0.0
1.732038799673319e-05,-4.911913492833264e-05,0.0,0.0,0.0
1.7523436326882802e-05,-4.8973601224133745e-05,0.0,0.0,0.0
1.7622212908463553e-05,-4.854975122725591e-05,0.0,0.0,0.0
1.7649183064349927e-05,-4.87801808048971e-05,0.0,0.0,0.0
1.7178035705001093e-05,-4.8592402890790254e-05,0.0,0.0,0.0
1.716893893899396e-05,-4.874254227615893e-05,0.0,0.0,0.0
1.726252412481699e-05,-4.826382428291254e-05,0.0,0.0,0.0
1.7324573491350748e-05,-4.836696098209359e-05,0.0,0.0,0.0
1.7086524167098105e-05,-4.867211100645363e-05,0.0,0.0,0.0
1.7294847566518e-05,-4.8675312427803874e-05,0.0,0.0,0.0
1.729830364638474e-05,-4.8543090088060126e-05,0.0,0.0,0.0
1.713908204692416e-05,-4.846536467084661e-05,0.0,0.0,0.0
1.7225514966412447e-05,-4.879035259364173e-05,0.0,0.0,0.0
1.7238224245375022e-05,-4.889315096079372e-05,0.0,0.0,0.0
1.6823980331537314e-05,-4.8800764488987625e-05,0.0,0.0,0.0
1.683303344179876e-05,-4.896631435258314e-05,0.0,0.0,0.0
1.7133330402430147e-05,-4.897844701190479e-05,0.0,0.0,0.0
1.7234684491995722e-05,-4.8729176342021674e-05,0.0,0.0,0.0
1.7801930880523287e-05,-4.9046640924643725e-05,0.0,0.0,0.0
1.8002672732109204e-05,-4.928835915052332e-05,0.0,0.0,0.0
1.719478314043954e-05,-4.9030091759050265e-05,0.0,0.0,0.0
1.6752577721490525e-05,-4.8651018005330116e-05,0.0,0.0,0.0
1.7125357771874405e-05,-4.838546738028526e-05,0.0,0.0,0.0
1.711600270937197e-05,-4.859030741499737e-05,0.0,0.0,0.0
1.7677977666608058e-05,-4.90244165121112e-05,0.0,0.0,0.0
1.733186400088016e-05,-4.8725283704698086e-05,0.0,0.0,0.0
1.6992145901895128e-05,-4.916759644402191e-05,0.0,0.0,0.0
1.7716169168124907e-05,-4.942829764331691e-05,0.0,0.0,0.0
1.776106728357263e-05,-4.9044265324482694e-05,0.0,0.0,0.0
1.7814709281083196e-05,-4.904677189188078e-05,0.0,0.0,0.0
1.7351067072013393e-05,-4.919496859656647e-05,0.0,0.0,0.0
1.7094409486162476e-05,-4.9188554839929566e-05,0.0,0.0,0.0
1.752866228343919e-05,-4.8770329158287495e-05,0.0,0.0,0.0
1.779051308403723e-05,-4.8706235247664154e-05,0.0,0.0,0.0
1.7796101019484922e-05,-4.865241498919204e-05,0.0,0.0,0.0
1.7466894860262983e-05,-4.869473195867613e-05,0.0,0.0,0.0
1.7274591300520115e-05,-4.86626049678307e-05,0.0,0.0,0.0
1.7308993847109377e-05,-4.868577525485307e-05,0.0,0.0,0.0
1.73916487256065e-05,-4.867041570832953e-05,0.0,0.0,0.0
1.7875534467748366e-05,-4.8796009650686756e-05,0.0,0.0,0.0
1.8040398572338745e-05,-4.899983832729049e-05,0.0,0.0,0.0
1.7789197954698466e-05,-4.902024375041947e-05,0.0,0.0,0.0
1.7795970052247867e-05,-4.892196739092469e-05,0.0,0.0,0.0
1.7787306205718778e-05,-4.8700378101784736e-05,0.0,0.0,0.0
1.766956120263785e-05,-4.8657810111762956e-05,0.0,0.0,0.0
1.7278909581364132e-05,-4.86898425151594e-05,0.0,0.0,0.0
1.764219814504031e-05,-4.870950215263292e-05,0.0,0.0,0.0
1.754970617184881e-05,-4.898238694295287e-05,0.0,0.0,0.0
1.7054770069080405e-05,-4.90180027554743e-05,0.0,0.0,0.0
1.7173708329210058e-05,-4.8693222197471187e-05,0.0,0.0,0.0
1.707881165202707e-05,-4.866344897891395e-05,0.0,0.0,0.0
1.715254802547861e-05,-4.896208338323049e-05,0.0,0.0,0.0
1.6565552868996747e-05,-4.9043450417229906e-05,0.0,0.0,0.0
1.665149648033548e-05,-4.872899080510251e-05,0.0,0.0,0.0
1.7108486645156518e-05,-4.8913971113506705e-05,0.0,0.0,0.0
1.707965202513151e-05,-4.904484740109183e-05,0.0,0.0,0.0
1.738007449603174e-05,-4.898530460195616e-05,0.0,0.0,0.0
1.7446005585952662e-05,-4.903320223093033e-05,0.0,0.0,0.0
1.7263771951547824e-05,-4.879345578956418e-05,0.0,0.0,0.0
1.7288934031967074e-05,-4.886551687377505e-05,0.0,0.0,0.0
1.748708564264234e-05,-4.9026362830772996e-05,0.0,0.0,0.0
1.7090611436287872e-05,-4.899889972875826e-05,0.0,0.0,0.0
1.6955782484728843e-05,-4.934277239954099e-05,0.0,0.0,0.0
1.7261983884964138e-05,-4.952655945089646e-05,0.0,0.0,0.0
1.745984991430305e-05,-4.908073242404498e-05,0.0,0.0,0.0
1.7582089640200138e-05,-4.867813549935818e-05,0.0,0.0,0.0
1.7783637304091826e-05,-4.867495226790197e-05,0.0,0.0,0.0
1.7800603018258698e-05,-4.867721509071998e-05,0.0,0.0,0.0
1.778331170498859e-05,-4.867561438004486e-05,0.0,0.0,0.0
1.7715696230879985e-05,-4.876185266766697e-05,0.0,0.0,0.0
1.7544038200867362e-05,-4.891513162874617e-05,0.0,0.0,0.0
1.775657437974587e-05,-4.878453546552919e-05,0.0,0.0,0.0
1.7820904758991674e-05,-4.889243427896872e-05,0.0,0.0,0.0
1.7768999896361493e-05,-4.8764250095700845e-05,0.0,0.0,0.0
1.780983257049229e-05,-4.86343888042029e-05,0.0,0.0,0.0
1.7778789697331376e-05,-4.9013142415788025e-05,0.0,0.0,0.0
1.780125057848636e-05,-4.870130942435935e-05,0.0,0.0,0.0
1.7786238458938897e-05,-4.865282608079724e-05,0.0,0.0,0.0
1.7241845853277482e-05,-4.8698104365030304e-05,0.0,0.0,0.0
1.7044734704541042e-05,-4.8656122089596465e-05,0.0,0.0,0.0
1.7437210772186518e-05,-4.8694761062506586e-05,0.0,0.0,0.0
1.7683601981843822e-05,-4.8659476306056604e-05,0.0,0.0,0.0
1.7830949218478054e-05,-4.8691421397961676e-05,0.0,0.0,0.0
1.7539699911139905e-05,-4.866276867687702e-05,0.0,0.0,0.0
1.7242811736650765e-05,-4.86882017867174e-05,0.0,0.0,0.0
1.690534918452613e-05,-4.8665890062693506e-05,0.0,0.0,0.0
1.6968901036307216e-05,-4.8685204092180356e-05,0.0,0.0,0.0
1.7141866919700988e-05,-4.866875315201469e-05,0.0,0.0,0.0
1.6929307093960233e-05,-4.868249379796907e-05,0.0,0.0,0.0
1.696058825473301e-05,-4.8671296099200845e-05,0.0,0.0,0.0
1.725441325106658e-05,-4.8829009756445885e-05,0.0,0.0,0.0
1.7331354683847167e-05,-4.900710337096825e-05,0.0,0.0,0.0
1.7112757632276043e-05,-4.888819603365846e-05,0.0,0.0,0.0
1.72457530425163e-05,-4.8682115448173136e-05,0.0,0.0,0.0
1.7329810361843556e-05,-4.867072493652813e-05,0.0,0.0,0.0
1.715419966785703e-05,-4.868156247539446e-05,0.0,0.0,0.0
1.709125172055792e-05,-4.8841429816093296e-05,0.0,0.0,0.0
1.7145954188890755e-05,-4.92339713673573e-05,0.0,0.0,0.0
1.7099138858611695e-05,-4.907032416667789e-05,0.0,0.0,0.0
1.713846722850576e-05,-4.8963054723571986e-05,0.0,0.0,0.0
1.7106191080529243e-05,-4.905238893115893e-05,0.0,0.0,0.0
1.709997741272673e-05,-4.897921098745428e-05,0.0,0.0,0.0
1.6815189155749977e-05,-4.901664942735806e-05,0.0,0.0,0.0
1.6757883713580668e-05,-4.86983080918435e-05,0.0,0.0,0.0
1.7670456145424396e-05,-4.8942492867354304e-05,0.0,0.0,0.0
1.7617314369999804e-05,-4.9349309847457334e-05,0.0,0.0,0.0
1.7334663425572217e-05,-4.880089909420349e-05,0.0,0.0,0.0
1.7810840290621854e-05,-4.862126297666691e-05,0.0,0.0,0.0
1.749932016537059e-05,-4.9210244469577447e-05,0.0,0.0,0.0
1.7697904695523903e-05,-4.9133665015688166e-05,0.0,0.0,0.0
1.7592004951438867e-05,-4.874549267697148e-05,0.0,0.0,0.0
1.762322790455073e-05,-4.8692785640014336e-05,0.0,0.0,0.0
1.7852833479992114e-05,-4.886335591436364e-05,0.0,0.0,0.0
1.7545788068673573e-05,-4.903996523353271e-05,0.0,0.0,0.0
1.7674939954304136e-05,-4.880725828115828e-05,0.0,0.0,0.0
1.759542283252813e-05,-4.868855103268288e-05,0.0,0.0,0.0
1.7476237189839594e-05,-4.8825520934769884e-05,0.0,0.0,0.0
1.728859933791682e-05,-4.917052501696162e-05,0.0,0.0,0.0
1.7140284398919903e-05,-4.90616075694561e-05,0.0,0.0,0.0
1.7102433048421517e-05,-4.869456824962981e-05,0.0,0.0,0.0
1.7137232134700753e-05,-4.866110612056218e-05,0.0,0.0,0.0
1.7212018065038137e-05,-4.868860560236499e-05,0.0,0.0,0.0
1.735849946271628e-05,-4.876225648331456e-05,0.0,0.0,0.0
1.7140931959147565e-05,-4.8915622755885124e-05,0.0,0.0,0.0
1.7103329810197465e-05,-4.8783364036353305e-05,0.0,0.0,0.0
1.7135300367954187e-05,-4.889409683528356e-05,0.0,0.0,0.0
1.7108202882809564e-05,-4.8804802645463496e-05,0.0,0.0,0.0
1.708856871118769e-05,-4.887317481916398e-05,0.0,0.0,0.0
1.6811367459013127e-05,-4.879293919657357e-05,0.0,0.0,0.0
1.6783720639068633e-05,-4.85784730699379e-05,0.0,0.0,0.0
1.709748357825447e-05,-4.8757057811599225e-05,0.0,0.0,0.0
1.714075551717542e-05,-4.8897945816861466e-05,0.0,0.0,0.0
1.7103177015087567e-05,-4.910486677545123e-05,0.0,0.0,0.0
1.713567144179251e-05,-4.9203859816771e-05,0.0,0.0,0.0
1.6852471162565053e-05,-4.943931708112359e-05,0.0,0.0,0.0
1.7009428120218217e-05,-4.9031954404199496e-05,0.0,0.0,0.0
1.7165002645924687e-05,-4.927117333863862e-05,0.0,0.0,0.0
1.70841103681596e-05,-4.913474549539387e-05,0.0,0.0,0.0
1.7150041458080523e-05,-4.918776176054962e-05,0.0,0.0,0.0
1.709756179479882e-05,-4.899892519460991e-05,0.0,0.0,0.0
1.713803067104891e-05,-4.859498585574329e-05,0.0,0.0,0.0
1.728899405861739e-05,-4.874907972407527e-05,0.0,0.0,0.0
1.7472268154961057e-05,-4.8951973440125585e-05,0.0,0.0,0.0
1.728611096041277e-05,-4.941358929499984e-05,0.0,0.0,0.0
1.7423297322238795e-05,-4.899338455288671e-05,0.0,0.0,0.0
1.7509895769762807e-05,-4.900467683910392e-05,0.0,0.0,0.0
1.7389224012731574e-05,-4.916569741908461e-05,0.0,0.0,0.0
1.7881977328215726e-05,-4.906610774924047e-05,0.0,0.0,0.0
1.8030837964033708e-05,-4.896724203717895e-05,0.0,0.0,0.0
1.7896780263981782e-05,-4.914381497655995e-05,0.0,0.0,0.0
1.8014445231528953e-05,-4.921563231619075e-05,0.0,0.0,0.0
1.78396931005409e-05,-4.9071131797973067e-05,0.0,0.0,0.0
1.781390528776683e-05,-4.89649100927636e-05,0.0,0.0,0.0
1.8082411770592444e-05,-4.8995028919307515e-05,0.0,0.0,0.0
1.7816879335441627e-05,-4.872420686297119e-05,0.0,0.0,0.0
1.7771171769709326e-05,-4.89676276629325e-05,0.0,0.0,0.0
1.7788068362278864e-05,-4.905401874566451e-05,0.0,0.0,0.0
1.748400609358214e-05,-4.8972338845487684e-05,0.0,0.0,0.0
1.714523386908695e-05,-4.90491402160842e-05,0.0,0.0,0.0
1.7099979231716134e-05,-4.8977355618262663e-05,0.0,0.0,0.0
1.7137763279606588e-05,-4.8778147174743935e-05,0.0,0.0,0.0
1.7617032426642254e-05,-4.8612404498271644e-05,0.0,0.0,0.0
1.7621034203330055e-05,-4.873182479059324e-05,0.0,0.0,0.0
1.7133654182543978e-05,-4.8628488002577797e-05,0.0,0.0,0.0
1.7392143490724266e-05,-4.894021913059987e-05,0.0,0.0,0.0
1.7226759155164473e-05,-4.878645995631814e-05,0.0,0.0,0.0
1.711430559225846e-05,-4.866878589382395e-05,0.0,0.0,0.0
1.7319858670816757e-05,-4.887442628387362e-05,0.0,0.0,0.0
1.7277821825700812e-05,-4.883630754193291e-05,0.0,0.0,0.0
1.7283378838328645e-05,-4.8834939661901444e-05,0.0,0.0,0.0
1.7145486708614044e-05,-4.902514410787262e-05,0.0,0.0,0.0
1.6927211618167348e-05,-4.8853515181690454e-05,0.0,0.0,0.0
1.7120848497143015e-05,-4.840821566176601e-05,0.0,0.0,0.0
1.7251490135095082e-05,-4.8010169848566875e-05,0.0,0.0,0.0
1.732457531034015e-05,-4.8232202971121296e-05,0.0,0.0,0.0
1.7148466213257052e-05,-4.876631646766327e-05,0.0,0.0,0.0
1.709386197035201e-05,-4.8912996135186404e-05,0.0,0.0,0.0
1.731620250211563e-05,-4.878483014181256e-05,0.0,0.0,0.0
1.7724149074638262e-05,-4.8967995098792017e-05,0.0,0.0,0.0
1.778786099748686e-05,-4.905120295006782e-05,0.0,0.0,0.0
1.7433059838367626e-05,-4.908357368549332e-05,0.0,0.0,0.0
1.747661917761434e-05,-4.952240124111995e-05,0.0,0.0,0.0
1.740699190122541e-05,-4.887352042715065e-05,0.0,0.0,0.0
1.7173882952192798e-05,-4.913701195619069e-05,0.0,0.0,0.0
1.707588671706617e-05,-4.921235449728556e-05,0.0,0.0,0.0
1.7444672266719863e-05,-4.884590089204721e-05,0.0,0.0,0.0
1.7744141587172635e-05,-4.8870751925278455e-05,0.0,0.0,0.0
1.7818767446442507e-05,-4.879660264123231e-05,0.0,0.0,0.0
1.7260761524084955e-05,-4.916133912047371e-05,0.0,0.0,0.0
1.7563019355293363e-05,-4.865082519245334e-05,0.0,0.0,0.0
1.812276605051011e-05,-4.8736103053670377e-05,0.0,0.0,0.0
1.806991349440068e-05,-4.863708090852015e-05,0.0,0.0,0.0
1.7963824575417675e-05,-4.869778422289528e-05,0.0,0.0,0.0
1.7531439880258404e-05,-4.866976087214425e-05,0.0,0.0,0.0
1.7681357348919846e-05,-4.867031020694412e-05,0.0,0.0,0.0
1.777635952748824e-05,-4.887324757874012e-05,0.0,0.0,0.0
1.780371712811757e-05,-4.899556370219216e-05,0.0,0.0,0.0
1.762426290952135e-05,-4.903613080387004e-05,0.0,0.0,0.0
1.7758091416908428e-05,-4.89819394715596e-05,0.0,0.0,0.0
1.8121692846762016e-05,-4.890799755230546e-05,0.0,0.0,0.0
1.8004160665441304e-05,-4.864464426646009e-05,0.0,0.0,0.0
1.7915330317919143e-05,-4.859302134718746e-05,0.0,0.0,0.0
1.800273821572773e-05,-4.842431371798739e-05,0.0,0.0,0.0
1.763302498147823e-05,-4.868513860856183e-05,0.0,0.0,0.0
1.7129286788986064e-05,-4.866461313213222e-05,0.0,0.0,0.0
1.7039446902344935e-05,-4.8689722461858764e-05,0.0,0.0,0.0
1.6879121176316403e-05,-4.866194649366662e-05,0.0,0.0,0.0
1.706679722701665e-05,-4.869075564783998e-05,0.0,0.0,0.0
1.716550650598947e-05,-4.870481643592939e-05,0.0,0.0,0.0
1.7083755665225908e-05,-4.895782331004739e-05,0.0,0.0,0.0
1.715034341032151e-05,-4.873313446296379e-05,0.0,0.0,0.0
1.709723255771678e-05,-4.862852074438706e-05,0.0,0.0,0.0
1.7138443581643514e-05,-4.871617420576513e-05,0.0,0.0,0.0
1.738416904117912e-05,-4.891965363640338e-05,0.0,0.0,0.0
1.7768708858056925e-05,-4.907709080725908e-05,0.0,0.0,0.0
1.7789787307265215e-05,-4.870278644375503e-05,0.0,0.0,0.0
1.779130252543837e-05,-4.893394361715764e-05,0.0,0.0,0.0
1.7795153326005675e-05,-4.903003355138935e-05,0.0,0.0,0.0
1.7563615983817726e-05,-4.899590203422122e-05,0.0,0.0,0.0
1.7654429029789753e-05,-4.92386898258701e-05,0.0,0.0,0.0
1.7415606635040604e-05,-4.91515347675886e-05,0.0,0.0,0.0
1.707096271275077e-05,-4.880110645899549e-05,0.0,0.0,0.0
1.752062962623313e-05,-4.868123505730182e-05,0.0,0.0,0.0
1.7438875147490762e-05,-4.884227382717654e-05,0.0,0.0,0.0
1.743784741847776e-05,-4.9179645429831e-05,0.0,0.0,0.0
1.7799020497477613e-05,-4.934215758112259e-05,0.0,0.0,0.0
1.7645545085542835e-05,-4.9075988499680534e-05,0.0,0.0,0.0
1.7598365957383066e-05,-4.868281030212529e-05,0.0,0.0,0.0
1.788602639862802e-05,-4.867054303758778e-05,0.0,0.0,0.0
1.803072700568009e-05,-4.8787565901875496e-05,0.0,0.0,0.0
1.779806007107254e-05,-4.899247505818494e-05,0.0,0.0,0.0
1.7702819604892284e-05,-4.894343874184415e-05,0.0,0.0,0.0
1.7480910173617303e-05,-4.875891318079084e-05,0.0,0.0,0.0
1.7436173948226497e-05,-4.8979229177348316e-05,0.0,0.0,0.0
1.7419444702682085e-05,-4.893390723736957e-05,0.0,0.0,0.0
1.7182133888127282e-05,-4.84228330606129e-05,0.0,0.0,0.0
1.7372178263030946e-05,-4.863916910835542e-05,0.0,0.0,0.0
1.7204090909217484e-05,-4.90315978822764e-05,0.0,0.0,0.0
1.704988426354248e-05,-4.8996244004229084e-05,0.0,0.0,0.0
1.7179709175252356e-05,-4.873711077379994e-05,0.0,0.0,0.0
1.7348651454085484e-05,-4.862598507315852e-05,0.0,0.0,0.0
1.779882950359024e-05,-4.871712008025497e-05,0.0,0.0,0.0
1.7764701624400914e-05,-4.864387301495299e-05,0.0,0.0,0.0
1.7322521671303548e-05,-4.9190421123057604e-05,0.0,0.0,0.0
1.705202339508105e-05,-4.915093086310662e-05,0.0,0.0,0.0
1.6727381080272608e-05,-4.873056968790479e-05,0.0,0.0,0.0
1.679231718298979e-05,-4.8705569497542456e-05,0.0,0.0,0.0
1.7219585060956888e-05,-4.8852514737518504e-05,0.0,0.0,0.0
1.7044583728420548e-05,-4.8857618821784854e-05,0.0,0.0,0.0
1.7176487745018676e-05,-4.881445420323871e-05,0.0,0.0,0.0
1.6912199498619884e-05,-4.9055248382501304e-05,0.0,0.0,0.0
1.66439131135121e-05,-4.897678081761114e-05,0.0,0.0,0.0
1.6739233615226112e-05,-4.9039885197998956e-05,0.0,0.0,0.0
1.6975513062789105e-05,-4.8575850087217987e-05,0.0,0.0,0.0
1.7060854588635266e-05,-4.803663250640966e-05,0.0,0.0,0.0
1.7412079614587128e-05,-4.8214078560704365e-05,0.0,0.0,0.0
1.739652725518681e-05,-4.8777121264720336e-05,0.0,0.0,0.0
1.708828676783014e-05,-4.90042548335623e-05,0.0,0.0,0.0
1.7155263776658103e-05,-4.893070217804052e-05,0.0,0.0,0.0
1.708476702333428e-05,-4.877227183897048e-05,0.0,0.0,0.0
1.70929342857562e-05,-4.9029353249352425e-05,0.0,0.0,0.0
1.6831172615638934e-05,-4.930788418278098e-05,0.0,0.0,0.0
1.7098651369451545e-05,-4.903048466076143e-05,0.0,0.0,0.0
1.7135667803813703e-05,-4.903006993117742e-05,0.0,0.0,0.0
1.708994386717677e-05,-4.9276295612799004e-05,0.0,0.0,0.0
1.6831761968205683e-05,-4.878653271589428e-05,0.0,0.0,0.0
1.7035126802511513e-05,-4.858128886553459e-05,0.0,0.0,0.0
1.7190224752994254e-05,-4.903374065179378e-05,0.0,0.0,0.0
1.733075077936519e-05,-4.898164115729742e-05,0.0,0.0,0.0
1.778974365151953e-05,-4.8781614168547094e-05,0.0,0.0,0.0
1.7271773685934022e-05,-4.862527202931233e-05,0.0,0.0,0.0
1.7555270460434258e-05,-4.8717578465584666e-05,0.0,0.0,0.0
1.7425585610908456e-05,-4.86437238578219e-05,0.0,0.0,0.0
1.7221404050360434e-05,-4.891371645499021e-05,0.0,0.0,0.0
1.7568791008670814e-05,-4.9012014642357826e-05,0.0,0.0,0.0
1.736289050313644e-05,-4.881749555352144e-05,0.0,0.0,0.0
1.7713131455820985e-05,-4.8851463361643255e-05,0.0,0.0,0.0
1.773970143403858e-05,-4.885119051323272e-05,0.0,0.0,0.0
1.7512522390461527e-05,-4.866733434027992e-05,0.0,0.0,0.0
1.7090016626752913e-05,-4.868000905844383e-05,0.0,0.0,0.0
1.7278469385928474e-05,-4.86769677081611e-05,0.0,0.0,0.0
1.7440979718230665e-05,-4.8671921831555665e-05,0.0,0.0,0.0
1.74626966327196e-05,-4.868363248533569e-05,0.0,0.0,0.0
1.7457638023188338e-05,-4.866656308877282e-05,0.0,0.0,0.0
1.735279511194676e-05,-4.8687794333091006e-05,0.0,0.0,0.0
1.715248617983889e-05,-4.8578403948340565e-05,0.0,0.0,0.0
1.7012711396091618e-05,-4.8450649046571925e-05,0.0,0.0,0.0
1.6844598576426506e-05,-4.8618170694680884e-05,0.0,0.0,0.0
1.6781967133283615e-05,-4.872771751252003e-05,0.0,0.0,0.0
1.7141024727607146e-05,-4.8673733545001596e-05,0.0,0.0,0.0
1.7067430235329084e-05,-4.898386760032736e-05,0.0,0.0,0.0
1.6866393707459792e-05,-4.8711386625654995e-05,0.0,0.0,0.0
1.702458757790737e-05,-4.864663060288876e-05,0.0,0.0,0.0
1.7204270989168435e-05,-4.8701127525419e-05,0.0,0.0,0.0
1.704860733298119e-05,-4.865563823841512e-05,0.0,0.0,0.0
1.6915897504077293e-05,-4.8693262215238065e-05,0.0,0.0,0.0
1.7209915313287638e-05,-4.8407229769509286e-05,0.0,0.0,0.0
1.8078186258208007e-05,-4.8565158067503944e-05,0.0,0.0,0.0
1.7840809960034676e-05,-4.895519668934867e-05,0.0,0.0,0.0
1.7361344362143427e-05,-4.877556784776971e-05,0.0,0.0,0.0
1.7282049157074653e-05,-4.866557355853729e-05,0.0,0.0,0.0
1.7512009435449727e-05,-4.888786133960821e-05,0.0,0.0,0.0
1.760703707986977e-05,-4.8635156417731196e-05,0.0,0.0,0.0
1.78307163878344e-05,-4.849459583056159e-05,0.0,0.0,0.0
1.776688986865338e-05,-4.870537304668687e-05,0.0,0.0,0.0
1.7805366951506585e-05,-4.865368100581691e-05,0.0,0.0,0.0
1.7788775949156843e-05,-4.884197551291436e-05,0.0,0.0,0.0
1.7786725948099047e-05,-4.899820851278491e-05,0.0,0.0,0.0
1.7804391973186284e-05,-4.9021185986930504e-05,0.0,0.0,0.0
1.7890892195282504e-05,-4.8889753088587895e-05,0.0,0.0,0.0
1.803194209060166e-05,-4.869015538133681e-05,0.0,0.0,0.0
1.7696040231385268e-05,-4.8666955990483984e-05,0.0,0.0,0.0
1.7651511370786466e-05,-4.86816861666739e-05,0.0,0.0,0.0
1.78332302311901e-05,-4.867420648224652e-05,0.0,0.0,0.0
1.732628334139008e-05,-4.867556708632037e-05,0.0,0.0,0.0
1.7302614651271142e-05,-4.8679277824703604e-05,0.0,0.0,0.0
1.758986218192149e-05,-4.867145617026836e-05,0.0,0.0,0.0
1.7309695977019146e-05,-4.8682515625841916e-05,0.0,0.0,0.0
1.7256455976166762e-05,-4.866901144850999e-05,0.0,0.0,0.0
1.7006841517286375e-05,-4.86842509417329e-05,0.0,0.0,0.0
1.7501350157544948e-05,-4.8667905502952635e-05,0.0,0.0,0.0
1.7422198652639054e-05,-4.868479663855396e-05,0.0,0.0,0.0
1.7480591850471683e-05,-4.866784001933411e-05,0.0,0.0,0.0
1.7185633623739704e-05,-4.868445103056729e-05,0.0,0.0,0.0
1.7341737475362606e-05,-4.866853487328626e-05,0.0,0.0,0.0
1.727529706840869e-05,-4.868347241426818e-05,0.0,0.0,0.0
1.6823292753542773e-05,-4.8669742682250217e-05,0.0,0.0,0.0
1.704296300886199e-05,-4.868208634434268e-05,0.0,0.0,0.0
1.7096537703764625e-05,-4.867125244345516e-05,0.0,0.0,0.0
1.676160900387913e-05,-4.868049654760398e-05,0.0,0.0,0.0
1.6765034160926007e-05,-4.8672885895939544e-05,0.0,0.0,0.0
1.7177437257487327e-05,-4.867885581916198e-05,0.0,0.0,0.0
1.7071293768822215e-05,-4.867450115852989e-05,0.0,0.0,0.0
1.7311907868133858e-05,-4.867729148827493e-05,0.0,0.0,0.0
1.727999006106984e-05,-4.867598909186199e-05,0.0,0.0,0.0
1.7158134141936898e-05,-4.8675898142391816e-05,0.0,0.0,0.0
1.708919990051072e-05,-4.8677276936359704e-05,0.0,0.0,0.0
1.714647441986017e-05,-4.878107938566245e-05,0.0,0.0,0.0
1.7195554391946644e-05,-4.909436756861396e-05,0.0,0.0,0.0
1.7453836335334927e-05,-4.916955003864132e-05,0.0,0.0,0.0
1.7385760656907223e-05,-4.8802314267959446e-05,0.0,0.0,0.0
1.720466752885841e-05,-4.887815157417208e-05,0.0,0.0,0.0
1.735906334943138e-05,-4.881801942246966e-05,0.0,0.0,0.0
1.71880928974133e-05,-4.890495984000154e-05,0.0,0.0,0.0
1.706566399661824e-05,-4.9101905460702255e-05,0.0,0.0,0.0
1.7164371456601657e-05,-4.8916233936324716e-05,0.0,0.0,0.0
1.708685522316955e-05,-4.877876563114114e-05,0.0,0.0,0.0
1.7145574020105414e-05,-4.887979230261408e-05,0.0,0.0,0.0
1.7103397112805396e-05,-4.884331065113656e-05,0.0,0.0,0.0
1.7397022020304576e-05,-4.881833228864707e-05,0.0,0.0,0.0
1.748597605910618e-05,-4.8889403842622414e-05,0.0,0.0,0.0
1.742753192957025e-05,-4.854091821471229e-05,0.0,0.0,0.0
1.7250020391657017e-05,-4.8781312216306105e-05,0.0,0.0,0.0
1.7293150449404493e-05,-4.859797627432272e-05,0.0,0.0,0.0
1.7097230738727376e-05,-4.894392259302549e-05,0.0,0.0,0.0
1.7096070223487914e-05,-4.899508712696843e-05,0.0,0.0,0.0
1.756381243467331e-05,-4.882323264610022e-05,0.0,0.0,0.0
1.7186423065140843e-05,-4.867421739618294e-05,0.0,0.0,0.0
1.7355352611048147e-05,-4.866668678005226e-05,0.0,0.0,0.0
1.725028414512053e-05,-4.885484304395504e-05,0.0,0.0,0.0
1.7154792658402584e-05,-4.883784640696831e-05,0.0,0.0,0.0
1.709586831566412e-05,-4.870968041359447e-05,0.0,0.0,0.0
1.7392321751685813e-05,-4.876618186244741e-05,0.0,0.0,0.0
1.7765349184628576e-05,-4.8926805902738124e-05,0.0,0.0,0.0
1.7597478290554136e-05,-4.8653870180714875e-05,0.0,0.0,0.0
1.714057543722447e-05,-4.8701753257773817e-05,0.0,0.0,0.0
1.701364635664504e-05,-4.864896254730411e-05,0.0,0.0,0.0
1.683017580944579e-05,-4.870438715443015e-05,0.0,0.0,0.0
1.6805917766760103e-05,-4.864828588324599e-05,0.0,0.0,0.0
1.7132180801127106e-05,-4.8650232201907784e-05,0.0,0.0,0.0
1.7022446627379395e-05,-4.834690480493009e-05,0.0,0.0,0.0
1.653391336731147e-05,-4.836900916416198e-05,0.0,0.0,0.0
1.64172233780846e-05,-4.863914364250377e-05,0.0,0.0,0.0
1.7101781850215048e-05,-4.870882912655361e-05,0.0,0.0,0.0
1.6848423911142163e-05,-4.864835864282213e-05,0.0,0.0,0.0
1.7008715076372027e-05,-4.8976115067489445e-05,0.0,0.0,0.0
1.746742236719001e-05,-4.876502862316556e-05,0.0,0.0,0.0
1.767972207744606e-05,-4.888007970293984e-05,0.0,0.0,0.0
1.735851401463151e-05,-4.884269219473936e-05,0.0,0.0,0.0
1.702078225207515e-05,-4.8818677896633744e-05,0.0,0.0,0.0
1.7424430552637205e-05,-4.888980038231239e-05,0.0,0.0,0.0
1.7201429727720097e-05,-4.8571342631476e-05,0.0,0.0,0.0
1.7133555957116187e-05,-4.876218008575961e-05,0.0,0.0,0.0
1.749729926814325e-05,-4.860725675825961e-05,0.0,0.0,0.0
1.7634196410654113e-05,-4.873043508268893e-05,0.0,0.0,0.0
1.760425220709294e-05,-4.863513822783716e-05,0.0,0.0,0.0
1.7810045392252505e-05,-4.870612610829994e-05,0.0,0.0,0.0
1.763343607308343e-05,-4.880504639004357e-05,0.0,0.0,0.0
1.7461146853747778e-05,-4.9021746235666797e-05,0.0,0.0,0.0
1.7329652109765448e-05,-4.888146577286534e-05,0.0,0.0,0.0
1.735771365929395e-05,-4.8799211072036996e-05,0.0,0.0,0.0
1.7875940102385357e-05,-4.889335832558572e-05,0.0,0.0,0.0
1.8031958461506292e-05,-4.8793310270411894e-05,0.0,0.0,0.0
1.772940595401451e-05,-4.8894307838054374e-05,0.0,0.0,0.0
1.738126047712285e-05,-4.8721933126216754e-05,0.0,0.0,0.0
1.7213247701874934e-05,-4.864149013883434e-05,0.0,0.0,0.0
1.740050174703356e-05,-4.8701705964049324e-05,0.0,0.0,0.0
1.74633642018307e-05,-4.865884693572298e-05,0.0,0.0,0.0
1.714428981358651e-05,-4.871887358603999e-05,0.0,0.0,0.0
1.7446745914639905e-05,-4.894702942692675e-05,0.0,0.0,0.0
1.7775782907847315e-05,-4.875139711657539e-05,0.0,0.0,0.0
1.7806265532271937e-05,-4.8616595449857414e-05,0.0,0.0,0.0
1.7779819245333783e-05,-4.87224679091014e-05,0.0,0.0,0.0
1.7536287487018853e-05,-4.864180300501175e-05,0.0,0.0,0.0
1.7669013686827384e-05,-4.870068732998334e-05,0.0,0.0,0.0
1.7368780390825123e-05,-4.8660436732461676e-05,0.0,0.0,0.0
1.701130167930387e-05,-4.8450961912749335e-05,0.0,0.0,0.0
1.7209524230565876e-05,-4.809007441508584e-05,0.0,0.0,0.0
1.7050095266313292e-05,-4.842732232646085e-05,0.0,0.0,0.0
1.7174734239233658e-05,-4.871885903412476e-05,0.0,0.0,0.0
1.7081067198887467e-05,-4.8636844439897686e-05,0.0,0.0,0.0
1.7328184185316786e-05,-4.8712376155890524e-05,0.0,0.0,0.0
1.7278398445341736e-05,-4.864365473622456e-05,0.0,0.0,0.0
1.6956246327026747e-05,-4.870537304668687e-05,0.0,0.0,0.0
1.6943209629971534e-05,-4.865073424298316e-05,0.0,0.0,0.0
1.7242273315787315e-05,-4.869831900577992e-05,0.0,0.0,0.0
1.7471498722443357e-05,-4.865766459261067e-05,0.0,0.0,0.0
1.732055716274772e-05,-4.86915887449868e-05,0.0,0.0,0.0
1.7154110537376255e-05,-4.877047103946097e-05,0.0,0.0,0.0
1.7086977095459588e-05,-4.891008939011954e-05,0.0,0.0,0.0
1.7238899090443738e-05,-4.870170960202813e-05,0.0,0.0,0.0
1.7253210899070837e-05,-4.880191045231186e-05,0.0,0.0,0.0
1.701272776699625e-05,-4.931832154397853e-05,0.0,0.0,0.0
1.736434751364868e-05,-4.926491965306923e-05,0.0,0.0,0.0
1.7799871784518473e-05,-4.8721820348873734e-05,0.0,0.0,0.0
1.7144087905762717e-05,-4.866763629252091e-05,0.0,0.0,0.0
1.7423973986296915e-05,-4.89880439999979e-05,0.0,0.0,0.0
1.7484948330093175e-05,-4.8719230107963085e-05,0.0,0.0,0.0
1.771805909811519e-05,-4.921544677927159e-05,0.0,0.0,0.0
1.7855711121228524e-05,-4.9457925342721865e-05,0.0,0.0,0.0
1.7737515008775517e-05,-4.8991365474648774e-05,0.0,0.0,0.0
1.7327860405202955e-05,-4.8794998292578384e-05,0.0,0.0,0.0
1.701934525044635e-05,-4.861697743763216e-05,0.0,0.0,0.0
1.7673010006546974e-05,-4.8955564125208184e-05,0.0,0.0,0.0
1.777155375748407e-05,-4.9003421736415476e-05,0.0,0.0,0.0
1.780741149559617e-05,-4.9226695409743115e-05,0.0,0.0,0.0
1.7780965208658017e-05,-4.8964833695208654e-05,0.0,0.0,0.0
1.7799400666262954e-05,-4.8624573537381366e-05,0.0,0.0,0.0
1.7787706383387558e-05,-4.872366480412893e-05,0.0,0.0,0.0
1.762364809110295e-05,-4.880338383372873e-05,0.0,0.0,0.0
1.7292495613219216e-05,-4.889576666755602e-05,0.0,0.0,0.0
1.7269989257329144e-05,-4.863693902734667e-05,0.0,0.0,0.0
1.7317162928520702e-05,-4.884842928731814e-05,0.0,0.0,0.0
1.7380802091793157e-05,-4.8850226448848844e-05,0.0,0.0,0.0
1.765430897648912e-05,-4.8713664000388235e-05,0.0,0.0,0.0
1.737912680255249e-05,-4.864514994551428e-05,0.0,0.0,0.0
1.7015925550367683e-05,-4.870162229053676e-05,0.0,0.0,0.0
1.6895619410206564e-05,-4.865626397076994e-05,0.0,0.0,0.0
1.7077452866942622e-05,-4.8691435949876904e-05,0.0,0.0,0.0
1.7156629837700166e-05,-4.8729336413089186e-05,0.0,0.0,0.0
1.709099524305202e-05,-4.893696677754633e-05,0.0,0.0,0.0
1.7144600860774517e-05,-4.872927820542827e-05,0.0,0.0,0.0
1.7101619960158132e-05,-4.869276381214149e-05,0.0,0.0,0.0
1.7135273083113134e-05,-4.927000918542035e-05,0.0,0.0,0.0
1.7109752661781386e-05,-4.878832623944618e-05,0.0,0.0,0.0
1.7128240870079026e-05,-4.858326065004803e-05,0.0,0.0,0.0
1.6839268937474117e-05,-4.8752164730103686e-05,0.0,0.0,0.0
1.7015550838550553e-05,-4.888160401606001e-05,0.0,0.0,0.0
1.7185993783641607e-05,-4.934856769978069e-05,0.0,0.0,0.0
1.7309634131379426e-05,-4.907058973913081e-05,0.0,0.0,0.0
1.7764721633284353e-05,-4.900618296233006e-05,0.0,0.0,0.0
1.7531558114569634e-05,-4.9022157327272e-05,0.0,0.0,0.0
1.7464837583247572e-05,-4.8998292186297476e-05,0.0,0.0,0.0
1.7248818039661273e-05,-4.9028378271032125e-05,0.0,0.0,0.0
1.7491694961790927e-05,-4.899358827969991e-05,0.0,0.0,0.0
1.7825997929321602e-05,-4.9031707021640614e-05,0.0,0.0,0.0
1.7932532500708476e-05,-4.916165198665112e-05,0.0,0.0,0.0
1.815793802961707e-05,-4.921344589092769e-05,0.0,0.0,0.0
1.8102120520779863e-05,-4.898661427432671e-05,0.0,0.0,0.0
1.8010860003414564e-05,-4.9035457777790725e-05,0.0,0.0,0.0
1.7779819245333783e-05,-4.899054692941718e-05,0.0,0.0,0.0
1.7801416106522083e-05,-4.903125227428973e-05,0.0,0.0,0.0
1.7891456081997603e-05,-4.899493796983734e-05,0.0,0.0,0.0
1.8021370124188252e-05,-4.902675937046297e-05,0.0,0.0,0.0
1.7821039364207536e-05,-4.8999456339515746e-05,0.0,0.0,0.0
1.7766082237358205e-05,-4.894783705822192e-05,0.0,0.0,0.0
1.7751250197761692e-05,-4.875726153841242e-05,0.0,0.0,0.0
1.7464630218455568e-05,-4.8967885959427804e-05,0.0,0.0,0.0
1.7449789083912037e-05,-4.905027890345082e-05,0.0,0.0,0.0
1.7429387298761867e-05,-4.894696394330822e-05,0.0,0.0,0.0
1.7176877008751035e-05,-4.8722071369411424e-05,0.0,0.0,0.0
1.738414357532747e-05,-4.832547710975632e-05,0.0,0.0,0.0
1.7230586308869533e-05,-4.864022048423067e-05,0.0,0.0,0.0
1.7027945432346314e-05,-4.87071301904507e-05,0.0,0.0,0.0
1.7197631677845493e-05,-4.8916121158981696e-05,0.0,0.0,0.0
1.7057740478776395e-05,-4.9068021326093e-05,0.0,0.0,0.0
1.7170843420899473e-05,-4.872110002906993e-05,0.0,0.0,0.0
1.6847712686285377e-05,-4.8685931687941775e-05,0.0,0.0,0.0
1.7012751413858496e-05,-4.866988456342369e-05,0.0,0.0,0.0
1.6716492609702982e-05,-4.8679816245567054e-05,0.0,0.0,0.0
1.6796155250631273e-05,-4.8877282097237185e-05,0.0,0.0,0.0
1.7200622096424922e-05,-4.8642588808434084e-05,0.0,0.0,0.0
1.705163231235929e-05,-4.848983735428192e-05,0.0,0.0,0.0
1.7009308066917583e-05,-4.870789416600019e-05,0.0,0.0,0.0
1.689035889285151e-05,-4.881252607447095e-05,0.0,0.0,0.0
1.7017588106682524e-05,-4.8880334361456335e-05,0.0,0.0,0.0
1.6888432583073154e-05,-4.8806094127940014e-05,0.0,0.0,0.0
1.7141936041298322e-05,-4.8881745897233486e-05,0.0,0.0,0.0
1.7222835595021024e-05,-4.8808720748638734e-05,0.0,0.0,0.0
1.734695615596138e-05,-4.908865230390802e-05,0.0,0.0,0.0
1.7046613720594905e-05,-4.9266149289906025e-05,0.0,0.0,0.0
1.6866406440385617e-05,-4.892975266557187e-05,0.0,0.0,0.0
1.7105186998378485e-05,-4.869922122452408e-05,0.0,0.0,0.0
1.7130385458585806e-05,-4.865354276262224e-05,0.0,0.0,0.0
1.7115735317929648e-05,-4.87516081193462e-05,0.0,0.0,0.0
1.716391670925077e-05,-4.895876918453723e-05,0.0,0.0,0.0
1.745563895383384e-05,-4.902727232547477e-05,0.0,0.0,0.0
1.7756561646820046e-05,-4.869472832069732e-05,0.0,0.0,0.0
1.7513635611976497e-05,-4.8973251978168264e-05,0.0,0.0,0.0
1.7404669051757082e-05,-4.904418165097013e-05,0.0,0.0,0.0
1.7779013433028013e-05,-4.898547558696009e-05,0.0,0.0,0.0
1.7522970665595494e-05,-4.876765888184309e-05,0.0,0.0,0.0
1.717105806164909e-05,-4.8624562623444945e-05,0.0,0.0,0.0
1.7602142179384828e-05,-4.847402306040749e-05,0.0,0.0,0.0
1.7387881598551758e-05,-4.851266203331761e-05,0.0,0.0,0.0
1.701698602118995e-05,-4.89740923512727e-05,0.0,0.0,0.0
1.7207534256158397e-05,-4.876057573710568e-05,0.0,0.0,0.0
1.7251013559871353e-05,-4.868786345468834e-05,0.0,0.0,0.0
1.7337277313345112e-05,-4.828680175705813e-05,0.0,0.0,0.0
1.723281638987828e-05,-4.834655919694342e-05,0.0,0.0,0.0
1.734720717649907e-05,-4.871128112426959e-05,0.0,0.0,0.0
1.7070236935978755e-05,-4.8645200877217576e-05,0.0,0.0,0.0
1.7454378394177184e-05,-4.870355041930452e-05,0.0,0.0,0.0
1.7626241969992407e-05,-4.865267692366615e-05,0.0,0.0,0.0
1.760576560627669e-05,-4.869638360105455e-05,0.0,0.0,0.0
1.753765536705032e-05,-4.8659498133929446e-05,0.0,0.0,0.0
1.7261654647882096e-05,-4.8689944378566e-05,0.0,0.0,0.0
1.7322208805126138e-05,-4.866551898885518e-05,0.0,0.0,0.0
1.7080439647543244e-05,-4.859927867073566e-05,0.0,0.0,0.0
1.6849646272021346e-05,-4.84314005007036e-05,0.0,0.0,0.0
1.7033145923051052e-05,-4.8635622079018503e-05,0.0,0.0,0.0
1.6840109310578555e-05,-4.871218334301375e-05,0.0,0.0,0.0
1.6774652976891957e-05,-4.864473521593027e-05,0.0,0.0,0.0
1.713533856673166e-05,-4.870383418165147e-05,0.0,0.0,0.0
1.7103720892919227e-05,-4.8631103709340096e-05,0.0,0.0,0.0
1.7138927432824858e-05,-4.84030824736692e-05,0.0,0.0,0.0
1.7388741980539635e-05,-4.857467138208449e-05,0.0,0.0,0.0
1.7240041415789165e-05,-4.903835360892117e-05,0.0,0.0,0.0
1.702979534456972e-05,-4.897868348052725e-05,0.0,0.0,0.0
1.745351983117871e-05,-4.903846638626419e-05,0.0,0.0,0.0
1.7177446352434345e-05,-4.899154373561032e-05,0.0,0.0,0.0
1.7354894225718454e-05,-4.8793106543598697e-05,0.0,0.0,0.0
1.7258276784559712e-05,-4.864137736149132e-05,0.0,0.0,0.0
1.7077150914701633e-05,-4.891568823950365e-05,0.0,0.0,0.0
1.7157932234113105e-05,-4.8808244173415005e-05,0.0,0.0,0.0
1.7280171960010193e-05,-4.8660236643627286e-05,0.0,0.0,0.0
1.7675420167506672e-05,-4.869241456617601e-05,0.0,0.0,0.0
1.7597638361621648e-05,-4.8660298489267007e-05,0.0,0.0,0.0
1.763154796208255e-05,-4.86918943352066e-05,0.0,0.0,0.0
1.8077804270433262e-05,-4.8661215259926394e-05,0.0,0.0,0.0
1.8193073628935963e-05,-4.869064287049696e-05,0.0,0.0,0.0
1.7797898181015626e-05,-4.866274684900418e-05,0.0,0.0,0.0
1.7903343177749775e-05,-4.8688882088754326e-05,0.0,0.0,0.0
1.801465441531036e-05,-4.866468589170836e-05,0.0,0.0,0.0
1.7717133232508786e-05,-4.8686808440834284e-05,0.0,0.0,0.0
1.737232923915144e-05,-4.8581769078737125e-05,0.0,0.0,0.0
1.7141397620434873e-05,-4.844533759751357e-05,0.0,0.0,0.0
1.716695260256529e-05,-4.862501737079583e-05,0.0,0.0,0.0
1.744223845889792e-05,-4.86133576487191e-05,0.0,0.0,0.0
1.7511219994048588e-05,-4.8117635742528364e-05,0.0,0.0,0.0
1.7714115529088303e-05,-4.858118336414918e-05,0.0,0.0,0.0
1.7534011931275018e-05,-4.8715253797126934e-05,0.0,0.0,0.0
1.7390833818353713e-05,-4.801954128197394e-05,0.0,0.0,0.0
1.7510732504888438e-05,-4.856620216742158e-05,0.0,0.0,0.0
1.741190681059379e-05,-4.876979437540285e-05,0.0,0.0,0.0
1.722589513519779e-05,-4.806610377272591e-05,0.0,0.0,0.0
1.705872819002252e-05,-4.8511254135519266e-05,0.0,0.0,0.0
1.7414331523468718e-05,-4.874347723671235e-05,0.0,0.0,0.0
1.6978430721792392e-05,-4.861877823714167e-05,0.0,0.0,0.0
1.6963924281299114e-05,-4.8724959924584255e-05,0.0,0.0,0.0
1.675696694292128e-05,-4.842289854423143e-05,0.0,0.0,0.0
1.656115819059778e-05,-4.8558278649579734e-05,0.0,0.0,0.0
1.745085683069192e-05,-4.829569661524147e-05,0.0,0.0,0.0
1.7748456230037846e-05,-4.797976725967601e-05,0.0,0.0,0.0
1.7488153389422223e-05,-4.836660446017049e-05,0.0,0.0,0.0
1.7241076420759782e-05,-4.866738527198322e-05,0.0,0.0,0.0
1.7637668861425482e-05,-4.8684043576940894e-05,0.0,0.0,0.0
1.7764985386747867e-05,-4.866956442128867e-05,0.0,0.0,0.0
1.7684656995697878e-05,-4.8682028136681765e-05,0.0,0.0,0.0
1.7450794985052198e-05,-4.8671419790480286e-05,0.0,0.0,0.0
1.7351354472339153e-05,-4.8680329200578853e-05,0.0,0.0,0.0
1.7233860489795916e-05,-4.867296956945211e-05,0.0,0.0,0.0
1.7334248695988208e-05,-4.867892857873812e-05,0.0,0.0,0.0
1.7177355402964167e-05,-4.8674224672140554e-05,0.0,0.0,0.0
1.713326491881162e-05,-4.874161822954193e-05,0.0,0.0,0.0
1.7526719602756202e-05,-4.89291014673654e-05,0.0,0.0,0.0
1.774357042449992e-05,-4.881830682279542e-05,0.0,0.0,0.0
1.7834767277236097e-05,-4.9229271098738536e-05,0.0,0.0,0.0
1.7733362255967222e-05,-4.940458893543109e-05,0.0,0.0,0.0
1.7530604964122176e-05,-4.8677786253392696e-05,0.0,0.0,0.0
1.768028232618235e-05,-4.867222742177546e-05,0.0,0.0,0.0
1.7886106434161775e-05,-4.895894380751997e-05,0.0,0.0,0.0
1.7713977285893634e-05,-4.904188972432166e-05,0.0,0.0,0.0
1.7855547412182204e-05,-4.89896337967366e-05,0.0,0.0,0.0
1.774153861333616e-05,-4.878311665379442e-05,0.0,0.0,0.0
1.7596878024050966e-05,-4.863845606450923e-05,0.0,0.0,0.0
1.718001476547215e-05,-4.870455450145528e-05,0.0,0.0,0.0
1.713921665214002e-05,-4.865632581640966e-05,0.0,0.0,0.0
1.7110049157054164e-05,-4.889112096861936e-05,0.0,0.0,0.0
1.769859045452904e-05,-4.901983993477188e-05,0.0,0.0,0.0
1.798267476260662e-05,-4.882073699263856e-05,0.0,0.0,0.0
1.7409298379789107e-05,-4.8680802137823775e-05,0.0,0.0,0.0
1.746995621942915e-05,-4.866887320531532e-05,0.0,0.0,0.0
1.7765341908670962e-05,-4.8685906222090125e-05,0.0,0.0,0.0
1.767994399415329e-05,-4.880328560830094e-05,0.0,0.0,0.0
1.7563994333613664e-05,-4.8891302867559716e-05,0.0,0.0,0.0
1.7568774637766182e-05,-4.86768149130512e-05,0.0,0.0,0.0
1.713361962174531e-05,-4.86776843899861e-05,0.0,0.0,0.0
1.7110995031544007e-05,-4.8673420678824186e-05,0.0,0.0,0.0
1.7127445971709676e-05,-4.868017276749015e-05,0.0,0.0,0.0
1.7116093658842146e-05,-4.859727414441295e-05,0.0,0.0,0.0
1.7123309589806013e-05,-4.8434623749926686e-05,0.0,0.0,0.0
1.7119375115726143e-05,-4.862110654357821e-05,0.0,0.0,0.0
1.712078483251389e-05,-4.876611637882888e-05,0.0,0.0,0.0
1.712124139885418e-05,-4.890483251074329e-05,0.0,0.0,0.0
1.7119487893069163e-05,-4.877796891378239e-05,0.0,0.0,0.0
1.712205084913876e-05,-4.859159162151627e-05,0.0,0.0,0.0
1.7406229744665325e-05,-4.90326747240033e-05,0.0,0.0,0.0
1.7222380847670138e-05,-4.899773557553999e-05,0.0,0.0,0.0
1.731311385810841e-05,-4.87546349177137e-05,0.0,0.0,0.0
1.7551514247315936e-05,-4.8638310545356944e-05,0.0,0.0,0.0
1.7133699657279067e-05,-4.8704205255489796e-05,0.0,0.0,0.0
1.692139994702302e-05,-4.865719165536575e-05,0.0,0.0,0.0
1.69582235685084e-05,-4.8687670641811565e-05,0.0,0.0,0.0
1.73922635440249e-05,-4.888420880888589e-05,0.0,0.0,0.0
1.763170621416066e-05,-4.882690336671658e-05,0.0,0.0,0.0
1.782359140634071e-05,-4.865254231845029e-05,0.0,0.0,0.0
1.7771320926840417e-05,-4.869086478720419e-05,0.0,0.0,0.0
1.780332786438521e-05,-4.866950257564895e-05,0.0,0.0,0.0
1.7948241293197498e-05,-4.867650204687379e-05,0.0,0.0,0.0
1.8274426111020148e-05,-4.868147152592428e-05,0.0,0.0,0.0
1.846949635364581e-05,-4.866672679781914e-05,0.0,0.0,0.0
1.8452421500114724e-05,-4.868923861067742e-05,0.0,0.0,0.0
1.8361308320891112e-05,-4.877775427303277e-05,0.0,0.0,0.0
1.8015594832831994e-05,-4.891087883152068e-05,0.0,0.0,0.0
1.7816910258261487e-05,-4.877933315583505e-05,0.0,0.0,0.0
1.7766462406143546e-05,-4.899018313153647e-05,0.0,0.0,0.0
1.7743186617735773e-05,-4.8953224904835224e-05,0.0,0.0,0.0
1.7456497516832314e-05,-4.869100666837767e-05,0.0,0.0,0.0
1.7459011360188015e-05,-4.866113522439264e-05,0.0,0.0,0.0
1.7494023268227465e-05,-4.869137774221599e-05,0.0,0.0,0.0
1.7763095456757583e-05,-4.866161907557398e-05,0.0,0.0,0.0
1.7772070350474678e-05,-4.869018084718846e-05,0.0,0.0,0.0
1.7187230696436018e-05,-4.866339804721065e-05,0.0,0.0,0.0
1.734950637910515e-05,-4.897508188150823e-05,0.0,0.0,0.0
1.7824228052631952e-05,-4.876625826000236e-05,0.0,0.0,0.0
1.7220907466253266e-05,-4.8613041144562885e-05,0.0,0.0,0.0
1.7084221326513216e-05,-4.8728688852861524e-05,0.0,0.0,0.0
1.7151975043816492e-05,-4.863343929173425e-05,0.0,0.0,0.0
1.7093701899284497e-05,-4.87107208755333e-05,0.0,0.0,0.0
1.7143671357189305e-05,-4.8649166274117306e-05,0.0,0.0,0.0
1.6888252503122203e-05,-4.869704571319744e-05,0.0,0.0,0.0
1.6783827959443443e-05,-4.8660964239388704e-05,0.0,0.0,0.0
1.7359754565404728e-05,-4.8686957597965375e-05,0.0,0.0,0.0
1.7825661416281946e-05,-4.866949893767014e-05,0.0,0.0,0.0
1.7763852156349458e-05,-4.8679827159503475e-05,0.0,0.0,0.0
1.7655811461736448e-05,-4.867537063546479e-05,0.0,0.0,0.0
1.743604298098944e-05,-4.8675086873117834e-05,0.0,0.0,0.0
1.7334148651571013e-05,-4.867910683969967e-05,0.0,0.0,0.0
1.724121830193326e-05,-4.892747165285982e-05,0.0,0.0,0.0
1.733508543111384e-05,-4.921815707348287e-05,0.0,0.0,0.0
1.7244268747163005e-05,-4.892737342743203e-05,0.0,0.0,0.0
1.732888449623715e-05,-4.867393727181479e-05,0.0,0.0,0.0
1.733795397740323e-05,-4.867732059210539e-05,0.0,0.0,0.0
1.7557791579747573e-05,-4.867624011239968e-05,0.0,0.0,0.0
1.7436070265830494e-05,-4.86755816382356e-05,0.0,0.0,0.0
1.7829981516115367e-05,-4.867749521508813e-05,0.0,0.0,0.0
1.7724320059642196e-05,-4.871727651334368e-05,0.0,0.0,0.0
1.7536138329887763e-05,-4.894650919595733e-05,0.0,0.0,0.0
1.7659021978033707e-05,-4.876430466538295e-05,0.0,0.0,0.0
1.6979211068246514e-05,-4.891400021733716e-05,0.0,0.0,0.0
1.7519159882795066e-05,-4.909394192509353e-05,0.0,0.0,0.0
1.7412638044334017e-05,-4.894439916824922e-05,0.0,0.0,0.0
1.8015081877820194e-05,-4.933257514494471e-05,0.0,0.0,0.0
1.7928678062162362e-05,-4.9083566409535706e-05,0.0,0.0,0.0
1.7703978301142342e-05,-4.8985384637489915e-05,0.0,0.0,0.0
1.787471046554856e-05,-4.880307096755132e-05,0.0,0.0,0.0
1.7491613107267767e-05,-4.862839341512881e-05,0.0,0.0,0.0
1.7719117749948055e-05,-4.871829514740966e-05,0.0,0.0,0.0
1.7762091374606825e-05,-4.843772330787033e-05,0.0,0.0,0.0
1.7822274458012544e-05,-4.85488235426601e-05,0.0,0.0,0.0
1.7942880731425248e-05,-4.8672911361791193e-05,0.0,0.0,0.0
1.816464282455854e-05,-4.86795324832201e-05,0.0,0.0,0.0
1.8093647668138146e-05,-4.851371704717167e-05,0.0,0.0,0.0
1.8158703824155964e-05,-4.8490979679627344e-05,0.0,0.0,0.0
1.7685213606455363e-05,-4.8672598495613784e-05,0.0,0.0,0.0
1.7416465198039077e-05,-4.855225415667519e-05,0.0,0.0,0.0
1.750521914800629e-05,-4.846286537940614e-05,0.0,0.0,0.0
1.7190184735227376e-05,-4.8659836465958506e-05,0.0,0.0,0.0
1.7061373000615276e-05,-4.86903045384679e-05,0.0,0.0,0.0
1.717025224934332e-05,-4.866440576734021e-05,0.0,0.0,0.0
1.7079910321626812e-05,-4.86862518300768e-05,0.0,0.0,0.0
1.7153126464108936e-05,-4.860417902818881e-05,0.0,0.0,0.0
1.7148791812360287e-05,-4.842921407544054e-05,0.0,0.0,0.0
1.7400032447767444e-05,-4.857191743212752e-05,0.0,0.0,0.0
1.7234722690773197e-05,-4.8459718527738005e-05,0.0,0.0,0.0
1.762632564350497e-05,-4.8564706958131865e-05,0.0,0.0,0.0
1.7311756892013364e-05,-4.876912134932354e-05,0.0,0.0,0.0
1.75311306520598e-05,-4.8600282752886415e-05,0.0,0.0,0.0
1.8013055523624644e-05,-4.901372085441835e-05,0.0,0.0,0.0
1.7607102563488297e-05,-4.873631405644119e-05,0.0,0.0,0.0
1.7944357750820927e-05,-4.890131458523683e-05,0.0,0.0,0.0
1.717970553727355e-05,-4.907227412331849e-05,0.0,0.0,0.0
1.7630000002100132e-05,-4.895813253824599e-05,0.0,0.0,0.0
1.7589964045328088e-05,-4.905969399260357e-05,0.0,0.0,0.0
1.7410266082151793e-05,-4.875736703979783e-05,0.0,0.0,0.0
1.750147384882439e-05,-4.869489202974364e-05,0.0,0.0,0.0
1.7603955711820163e-05,-4.8851135943550617e-05,0.0,0.0,0.0
1.8206843378720805e-05,-4.9037746066460386e-05,0.0,0.0,0.0
1.825989420467522e-05,-4.899019040749408e-05,0.0,0.0,0.0
1.7995820599026047e-05,-4.8870540922507644e-05,0.0,0.0,0.0
1.8061471564578824e-05,-4.866037124884315e-05,0.0,0.0,0.0
1.8209706468041986e-05,-4.8688609240343794e-05,0.0,0.0,0.0
1.7781483620638028e-05,-4.8667192459106445e-05,0.0,0.0,0.0
1.780212733137887e-05,-4.879944026470184e-05,0.0,0.0,0.0
1.7676220522844233e-05,-4.8890004109125584e-05,0.0,0.0,0.0
1.7384576494805515e-05,-4.870332122663967e-05,0.0,0.0,0.0
1.7203587049152702e-05,-4.874001751886681e-05,0.0,0.0,0.0
1.751052877807524e-05,-4.893179357168265e-05,0.0,0.0,0.0
1.7784161173040047e-05,-4.870857810601592e-05,0.0,0.0,0.0
1.7745314835337922e-05,-4.864678339799866e-05,0.0,0.0,0.0
1.7440650481148623e-05,-4.870307384408079e-05,0.0,0.0,0.0
1.713252095214557e-05,-4.8652080295141786e-05,0.0,0.0,0.0
1.711099685053341e-05,-4.874053047387861e-05,0.0,0.0,0.0
1.7128118997788988e-05,-4.9244506953982636e-05,0.0,0.0,0.0
1.7115102309617214e-05,-4.914859528071247e-05,0.0,0.0,0.0
1.740083644108381e-05,-4.86201279272791e-05,0.0,0.0,0.0
1.722614797472488e-05,-4.873454963671975e-05,0.0,0.0,0.0
1.7055261196219362e-05,-4.86292083223816e-05,0.0,0.0,0.0
1.693132617219817e-05,-4.8957914259517565e-05,0.0,0.0,0.0
1.6476931705255993e-05,-4.877771425526589e-05,0.0,0.0,0.0
1.6709276678739116e-05,-4.864886432187632e-05,0.0,0.0,0.0
1.6776730262790807e-05,-4.8702266212785617e-05,0.0,0.0,0.0
1.6992262317216955e-05,-4.844972863793373e-05,0.0,0.0,0.0
1.732379496388603e-05,-4.8540427087573335e-05,0.0,0.0,0.0
1.727542439766694e-05,-4.867810275754891e-05,0.0,0.0,0.0
1.7114343791035935e-05,-4.884731242782436e-05,0.0,0.0,0.0
1.744323526509106e-05,-4.901343345409259e-05,0.0,0.0,0.0
1.7793230654206127e-05,-4.9013291572919115e-05,0.0,0.0,0.0
1.7513269995106384e-05,-4.887014438281767e-05,0.0,0.0,0.0
1.7262083929381333e-05,-4.8814687033882365e-05,0.0,0.0,0.0
1.743439133861102e-05,-4.8874706408241764e-05,0.0,0.0,0.0
1.747638452798128e-05,-4.881426502834074e-05,0.0,0.0,0.0
1.753382275637705e-05,-4.896754398941994e-05,0.0,0.0,0.0
1.7789732737583108e-05,-4.89665508212056e-05,0.0,0.0,0.0
1.786780012480449e-05,-4.866320523433387e-05,0.0,0.0,0.0
1.8038013877230696e-05,-4.868823816650547e-05,0.0,0.0,0.0
1.7948523236555047e-05,-4.86123317386955e-05,0.0,0.0,0.0
1.8272459783474915e-05,-4.842462294618599e-05,0.0,0.0,0.0
1.7951437257579528e-05,-4.8605586925987154e-05,0.0,0.0,0.0
1.763738509907853e-05,-4.873596481047571e-05,0.0,0.0,0.0
1.7608141206437722e-05,-4.8626665375195444e-05,0.0,0.0,0.0
1.7619075151742436e-05,-4.871673809248023e-05,0.0,0.0,0.0
1.793295996321831e-05,-4.864409856963903e-05,0.0,0.0,0.0
1.7679643860901706e-05,-4.8701029299991205e-05,0.0,0.0,0.0
1.787906512618065e-05,-4.865815208177082e-05,0.0,0.0,0.0
1.797186632757075e-05,-4.868855467066169e-05,0.0,0.0,0.0
1.7966855011763982e-05,-4.8669120587874204e-05,0.0,0.0,0.0
1.7269241652684286e-05,-4.867901589022949e-05,0.0,0.0,0.0
1.7131722415797412e-05,-4.867732059210539e-05,0.0,0.0,0.0
1.752600473992061e-05,-4.867207826464437e-05,0.0,0.0,0.0
1.780960701580625e-05,-4.868308315053582e-05,0.0,0.0,0.0
1.796855212887749e-05,-4.866739982389845e-05,0.0,0.0,0.0
1.812884147511795e-05,-4.8686757509130985e-05,0.0,0.0,0.0
1.7817954358179122e-05,-4.866463859798387e-05,0.0,0.0,0.0
1.743621760397218e-05,-4.868869291385636e-05,0.0,0.0,0.0
1.734376019157935e-05,-4.8386940761702135e-05,0.0,0.0,0.0
1.722391607472673e-05,-4.8283862270182e-05,0.0,0.0,0.0
1.7475196727900766e-05,-4.851950507145375e-05,0.0,0.0,0.0
1.722158594930079e-05,-4.8494945076527074e-05,0.0,0.0,0.0
1.6839663658174686e-05,-4.861832348979078e-05,0.0,0.0,0.0
1.6818697986309417e-05,-4.872686986345798e-05,0.0,0.0,0.0
1.714601239655167e-05,-4.863260983256623e-05,0.0,0.0,0.0
1.7160071365651675e-05,-4.871348573942669e-05,0.0,0.0,0.0
1.745046756695956e-05,-4.864508082391694e-05,0.0,0.0,0.0
1.7417334674973972e-05,-4.8701931518735364e-05,0.0,0.0,0.0
1.7185828255605884e-05,-4.8655721911927685e-05,0.0,0.0,0.0
1.7367550753988326e-05,-4.869219628744759e-05,0.0,0.0,0.0
1.7219741494045593e-05,-4.8664565838407725e-05,0.0,0.0,0.0
1.703761336102616e-05,-4.8971363867167383e-05,0.0,0.0,0.0
1.7465274140704423e-05,-4.904846355202608e-05,0.0,0.0,0.0
1.7173686501337215e-05,-4.871345663559623e-05,0.0,0.0,0.0
1.7096805095206946e-05,-4.867092866334133e-05,0.0,0.0,0.0
1.714426434773486e-05,-4.892380820820108e-05,0.0,0.0,0.0
1.70971925399499e-05,-4.880498454440385e-05,0.0,0.0,0.0
1.7143780496553518e-05,-4.862769492319785e-05,0.0,0.0,0.0
1.7097821910283528e-05,-4.871803685091436e-05,0.0,0.0,0.0
1.7547095922054723e-05,-4.8640773457009345e-05,0.0,0.0,0.0
1.7799267880036496e-05,-4.870609336649068e-05,0.0,0.0,0.0
1.7789214325603098e-05,-4.865162918576971e-05,0.0,0.0,0.0
1.7620854123379104e-05,-4.9036585551220924e-05,0.0,0.0,0.0
1.7615504475543275e-05,-4.918147169519216e-05,0.0,0.0,0.0
1.7789978301152587e-05,-4.886673923465423e-05,0.0,0.0,0.0
1.7797487089410424e-05,-4.8675850848667324e-05,0.0,0.0,0.0
1.7783773728297092e-05,-4.867579264100641e-05,0.0,0.0,0.0
1.7802443835535087e-05,-4.867754614679143e-05,0.0,0.0,0.0
1.7673615730018355e-05,-4.867436291533522e-05,0.0,0.0,0.0
1.7580579878995195e-05,-4.867873212788254e-05,0.0,0.0,0.0
1.7746306184562854e-05,-4.867340612690896e-05,0.0,0.0,0.0
1.7758849935489707e-05,-4.867947427555919e-05,0.0,0.0,0.0
1.7380913050146773e-05,-4.867285679210909e-05,0.0,0.0,0.0
1.7213567844009958e-05,-4.873302532359958e-05,0.0,0.0,0.0
1.7389578715665266e-05,-4.893384175375104e-05,0.0,0.0,0.0
1.7481561371823773e-05,-4.87423239974305e-05,0.0,0.0,0.0
1.7089716493501328e-05,-4.862004425376654e-05,0.0,0.0,0.0
1.683414666331373e-05,-4.872357749263756e-05,0.0,0.0,0.0
1.7031468814820983e-05,-4.8637084546498954e-05,0.0,0.0,0.0
1.719441388559062e-05,-4.898467523162253e-05,0.0,0.0,0.0
1.7060772734112106e-05,-4.9024401960195974e-05,0.0,0.0,0.0
1.7167903934023343e-05,-4.87447323394008e-05,0.0,0.0,0.0
1.6839996533235535e-05,-4.865668961429037e-05,0.0,0.0,0.0
1.70171133504482e-05,-4.8691210395190865e-05,0.0,0.0,0.0
1.692769546934869e-05,-4.866544986725785e-05,0.0,0.0,0.0
1.673402039159555e-05,-4.86835342599079e-05,0.0,0.0,0.0
1.7033409676514566e-05,-4.847004674957134e-05,0.0,0.0,0.0
1.7284461137023754e-05,-4.8519035772187635e-05,0.0,0.0,0.0
1.7312731870333664e-05,-4.8519312258576974e-05,0.0,0.0,0.0
1.7249392840312794e-05,-4.831137994187884e-05,0.0,0.0,0.0
1.733769749989733e-05,-4.852540587307885e-05,0.0,0.0,0.0
1.7233081962331198e-05,-4.865585651714355e-05,0.0,0.0,0.0
1.7346683307550848e-05,-4.869377880822867e-05,0.0,0.0,0.0
1.7230206140084192e-05,-4.878912295680493e-05,0.0,0.0,0.0
1.7344547813991085e-05,-4.901551437797025e-05,0.0,0.0,0.0
1.7236357962246984e-05,-4.9115966248791665e-05,0.0,0.0,0.0
1.7526695955893956e-05,-4.9333608330925927e-05,0.0,0.0,0.0
1.7711852706270292e-05,-4.9275429773842916e-05,0.0,0.0,0.0
1.7546813978697173e-05,-4.902228829450905e-05,0.0,0.0,0.0
1.775475357135292e-05,-4.900385465589352e-05,0.0,0.0,0.0
1.7821876099333167e-05,-4.9071310058934614e-05,0.0,0.0,0.0
1.7726237274473533e-05,-4.931131479679607e-05,0.0,0.0,0.0
1.7477073924965225e-05,-4.9313843192067e-05,0.0,0.0,0.0
1.715961843729019e-05,-4.8771780711831525e-05,0.0,0.0,0.0
1.770827111613471e-05,-4.921753497910686e-05,0.0,0.0,0.0
1.8152974007534795e-05,-4.9458838475402445e-05,0.0,0.0,0.0
1.782772596925497e-05,-4.897729377262294e-05,0.0,0.0,0.0
1.751007221173495e-05,-4.9052425310947e-05,0.0,0.0,0.0
1.7688758816802874e-05,-4.872418139711954e-05,0.0,0.0,0.0
1.7844036847236566e-05,-4.891528078587726e-05,0.0,0.0,0.0
1.7747101082932204e-05,-4.904643355985172e-05,0.0,0.0,0.0
1.7830365322879516e-05,-4.8981368308886886e-05,0.0,0.0,0.0
1.7759732145350426e-05,-4.925168468616903e-05,0.0,0.0,0.0
1.7818751075537875e-05,-4.913980592391454e-05,0.0,0.0,0.0
1.7961781850317493e-05,-4.90032289235387e-05,0.0,0.0,0.0
1.7975196897168644e-05,-4.901829015580006e-05,0.0,0.0,0.0
1.7762025890988298e-05,-4.8837613576324657e-05,0.0,0.0,0.0
1.7655482224654406e-05,-4.867412644671276e-05,0.0,0.0,0.0
1.7289432435063645e-05,-4.867898678639904e-05,0.0,0.0,0.0
1.741128107823897e-05,-4.8673173296265304e-05,0.0,0.0,0.0
1.7517086234875023e-05,-4.8679652536520734e-05,0.0,0.0,0.0
1.7151980500784703e-05,-4.878973777522333e-05,0.0,0.0,0.0
1.70965759025421e-05,-4.889716728939675e-05,0.0,0.0,0.0
1.7138243492809124e-05,-4.888989860774018e-05,0.0,0.0,0.0
1.7193679013871588e-05,-4.9121583288069814e-05,0.0,0.0,0.0
1.7515967556391843e-05,-4.884198642685078e-05,0.0,0.0,0.0
1.7782347640604712e-05,-4.884591180598363e-05,0.0,0.0,0.0
1.7744254364515655e-05,-4.8790469008963555e-05,0.0,0.0,0.0
1.7486456272308715e-05,-4.8581441660644487e-05,0.0,0.0,0.0
1.739615254336968e-05,-4.875373633694835e-05,0.0,0.0,0.0
1.7185495380545035e-05,-4.8614343540975824e-05,0.0,0.0,0.0
1.7063721315935254e-05,-4.8724446969572455e-05,0.0,0.0,0.0
1.7457185094826855e-05,-4.864024231210351e-05,0.0,0.0,0.0
1.7178463167510927e-05,-4.870172779192217e-05,0.0,0.0,0.0
1.708449599391315e-05,-4.8659989261068404e-05,0.0,0.0,0.0
1.740563311614096e-05,-4.868473843089305e-05,0.0,0.0,0.0
1.721865737636108e-05,-4.867442839895375e-05,0.0,0.0,0.0
1.7320156985078938e-05,-4.890661875833757e-05,0.0,0.0,0.0
1.728679853840731e-05,-4.8821202653925866e-05,0.0,0.0,0.0
1.7267231669393368e-05,-4.883588189841248e-05,0.0,0.0,0.0
1.7730590116116218e-05,-4.907825496047735e-05,0.0,0.0,0.0
1.7748023310559802e-05,-4.9144873628392816e-05,0.0,0.0,0.0
1.7826259863795713e-05,-4.9229223805014044e-05,0.0,0.0,0.0
1.7426165868528187e-05,-4.895079473499209e-05,0.0,0.0,0.0
1.7288868548348546e-05,-4.8903712013270706e-05,0.0,0.0,0.0
1.7602529624127783e-05,-4.863293361268006e-05,0.0,0.0,0.0
1.7650691006565467e-05,-4.857254316448234e-05,0.0,0.0,0.0
1.759542283252813e-05,-4.8447098379256204e-05,0.0,0.0,0.0
1.7769969417713583e-05,-4.856507439399138e-05,0.0,0.0,0.0
1.760160921548959e-05,-4.8351579607697204e-05,0.0,0.0,0.0
1.7129148545791395e-05,-4.842284397454932e-05,0.0,0.0,0.0
1.703102134342771e-05,-4.867306415690109e-05,0.0,0.0,0.0
1.688253541942686e-05,-4.8675185098545626e-05,0.0,0.0,0.0
1.7269578165723942e-05,-4.868104588240385e-05,0.0,0.0,0.0
1.8075321349897422e-05,-4.86684511997737e-05,0.0,0.0,0.0
1.8132481272914447e-05,-4.868660107604228e-05,0.0,0.0,0.0
1.7784934243536554e-05,-4.8663991037756205e-05,0.0,0.0,0.0
1.7757160094333813e-05,-4.8690046241972595e-05,0.0,0.0,0.0
1.719648571452126e-05,-4.866148083237931e-05,0.0,0.0,0.0
1.763191175996326e-05,-4.8691708798287436e-05,0.0,0.0,0.0
1.7372711226926185e-05,-4.866058225161396e-05,0.0,0.0,0.0
1.6935080566327088e-05,-4.8691923439037055e-05,0.0,0.0,0.0
1.727254675643053e-05,-4.866096787736751e-05,0.0,0.0,0.0
1.6998685168800876e-05,-4.8935624363366514e-05,0.0,0.0,0.0
1.721598528092727e-05,-4.8791844164952636e-05,0.0,0.0,0.0
1.682531183178071e-05,-4.819503010367043e-05,0.0,0.0,0.0
1.7028038200805895e-05,-4.7989880840759724e-05,0.0,0.0,0.0
1.7122069039032795e-05,-4.8423105909023434e-05,0.0,0.0,0.0
1.7493295672466047e-05,-4.869227632298134e-05,0.0,0.0,0.0
1.7831633158493787e-05,-4.884501322521828e-05,0.0,0.0,0.0
1.775097734935116e-05,-4.8858430091058835e-05,0.0,0.0,0.0
1.7673995898803696e-05,-4.865939263254404e-05,0.0,0.0,0.0
1.756285382725764e-05,-4.898634142591618e-05,0.0,0.0,0.0
1.755423545546364e-05,-4.9058624426834285e-05,0.0,0.0,0.0
1.7349950212519616e-05,-4.8696187150198966e-05,0.0,0.0,0.0
1.7799262423068285e-05,-4.8660476750228554e-05,0.0,0.0,0.0
1.7571452190168202e-05,-4.868856558459811e-05,0.0,0.0,0.0
1.7255026250495575e-05,-4.866698509431444e-05,0.0,0.0,0.0
1.7488755474914797e-05,-4.859798718825914e-05,0.0,0.0,0.0
1.7815256796893664e-05,-4.843231727136299e-05,0.0,0.0,0.0
1.77725942194229e-05,-4.869903568760492e-05,0.0,0.0,0.0
1.7914069758262485e-05,-4.901901411358267e-05,0.0,0.0,0.0
1.8302311218576506e-05,-4.8963142035063356e-05,0.0,0.0,0.0
1.7957418094738387e-05,-4.8717054596636444e-05,0.0,0.0,0.0
1.7935804862645455e-05,-4.864170477958396e-05,0.0,0.0,0.0
1.7662996469880454e-05,-4.870513657806441e-05,0.0,0.0,0.0
1.7573605873622e-05,-4.893980440101586e-05,0.0,0.0,0.0
1.7416772607248276e-05,-4.879539483226836e-05,0.0,0.0,0.0
1.6903801224543713e-05,-4.8589688958600163e-05,0.0,0.0,0.0
1.7547690731589682e-05,-4.874664227827452e-05,0.0,0.0,0.0
1.760020495567005e-05,-4.8620473535265774e-05,0.0,0.0,0.0
1.742252061376348e-05,-4.895309029961936e-05,0.0,0.0,0.0
1.700405300653074e-05,-4.900506974081509e-05,0.0,0.0,0.0
1.7202224626089446e-05,-4.9012993258656934e-05,0.0,0.0,0.0
1.7473432308179326e-05,-4.901593638351187e-05,0.0,0.0,0.0
1.7846447008196265e-05,-4.881247878074646e-05,0.0,0.0,0.0
1.7583795852260664e-05,-4.8676472943043336e-05,0.0,0.0,0.0
1.7453121472499333e-05,-4.884162262897007e-05,0.0,0.0,0.0
1.731734118948225e-05,-4.902510772808455e-05,0.0,0.0,0.0
1.7233798644156195e-05,-4.8847974539967254e-05,0.0,0.0,0.0
1.7362088328809477e-05,-4.8694848373997957e-05,0.0,0.0,0.0
1.7074258721549995e-05,-4.865696610067971e-05,0.0,0.0,0.0
1.7172911611851305e-05,-4.869584881816991e-05,0.0,0.0,0.0
1.7064599887817167e-05,-4.8656886065145954e-05,0.0,0.0,0.0
1.7178461348521523e-05,-4.850370896747336e-05,0.0,0.0,0.0
1.7062628103303723e-05,-4.819438618142158e-05,0.0,0.0,0.0
1.725180118228309e-05,-4.8691734264139086e-05,0.0,0.0,0.0
1.7312902855337597e-05,-4.897167673334479e-05,0.0,0.0,0.0
1.7274847778026015e-05,-4.8686582886148244e-05,0.0,0.0,0.0
1.729270297801122e-05,-4.86658864247147e-05,0.0,0.0,0.0
1.7292257325607352e-05,-4.8750272981124e-05,0.0,0.0,0.0
1.7277998267672956e-05,-4.9218215281143785e-05,0.0,0.0,0.0
1.7293737982981838e-05,-4.8834586777957156e-05,0.0,0.0,0.0
1.69778704730561e-05,-4.8542329750489444e-05,0.0,0.0,0.0
1.7235537598025985e-05,-4.9064503400586545e-05,0.0,0.0,0.0
1.729692485241685e-05,-4.895820893580094e-05,0.0,0.0,0.0
1.7557435057824478e-05,-4.905377500108443e-05,0.0,0.0,0.0
1.738143510010559e-05,-4.922549123875797e-05,0.0,0.0,0.0
1.7741824194672517e-05,-4.916310717817396e-05,0.0,0.0,0.0
1.7785543604986742e-05,-4.917443584417924e-05,0.0,0.0,0.0
1.778469595592469e-05,-4.941412771586329e-05,0.0,0.0,0.0
1.8013106455327943e-05,-4.909647032036446e-05,0.0,0.0,0.0
1.792206421669107e-05,-4.884000009042211e-05,0.0,0.0,0.0
1.780546699592378e-05,-4.86562421428971e-05,0.0,0.0,0.0
1.7768104953574948e-05,-4.902560613118112e-05,0.0,0.0,0.0
1.78243553818902e-05,-4.9038058932637796e-05,0.0,0.0,0.0
1.7902033505379222e-05,-4.8807458369992673e-05,0.0,0.0,0.0
1.8169332179240882e-05,-4.8893041821429506e-05,0.0,0.0,0.0
1.7955133444047533e-05,-4.865959635935724e-05,0.0,0.0,0.0
1.7613700038054958e-05,-4.8812435125000775e-05,0.0,0.0,0.0
1.7195807231473736e-05,-4.8872767365537584e-05,0.0,0.0,0.0
1.7378362827003002e-05,-4.8723744839662686e-05,0.0,0.0,0.0
1.7118525647674687e-05,-4.880242340732366e-05,0.0,0.0,0.0
1.7127296814578585e-05,-4.919513230561279e-05,0.0,0.0,0.0
1.717444320092909e-05,-4.872789577348158e-05,0.0,0.0,0.0
1.7493057384854183e-05,-4.863422509515658e-05,0.0,0.0,0.0
1.772839459590614e-05,-4.8710062401369214e-05,0.0,0.0,0.0
1.7480295355198905e-05,-4.8649606469552964e-05,0.0,0.0,0.0
1.7109807231463492e-05,-4.869690383202396e-05,0.0,0.0,0.0
1.713086930976715e-05,-4.866074596066028e-05,0.0,0.0,0.0
1.7111407942138612e-05,-4.868757605436258e-05,0.0,0.0,0.0
1.7128450053860433e-05,-4.866845847573131e-05,0.0,0.0,0.0
1.7114451111410744e-05,-4.868130781687796e-05,0.0,0.0,0.0
1.7124961232184432e-05,-4.89286903757602e-05,0.0,0.0,0.0
1.7118227333412506e-05,-4.904424349660985e-05,0.0,0.0,0.0
1.7121034034062177e-05,-4.875217564404011e-05,0.0,0.0,0.0
1.7345511878374964e-05,-4.8672107368474826e-05,0.0,0.0,0.0
1.747401984175667e-05,-4.868103133048862e-05,0.0,0.0,0.0
1.7241971363546327e-05,-4.8873327614273876e-05,0.0,0.0,0.0
1.7113477952079847e-05,-4.884008376393467e-05,0.0,0.0,0.0
1.7129621483036317e-05,-4.8829107981873676e-05,0.0,0.0,0.0
1.71100164152449e-05,-4.904311936115846e-05,0.0,0.0,0.0
1.713258279778529e-05,-4.89867124997545e-05,0.0,0.0,0.0
1.7256452338187955e-05,-4.903186345472932e-05,0.0,0.0,0.0
1.7329890397377312e-05,-4.88587211293634e-05,0.0,0.0,0.0
1.711351978883613e-05,-4.8692287236917764e-05,0.0,0.0,0.0
1.7128788385889493e-05,-4.889876800007187e-05,0.0,0.0,0.0
1.71116589626763e-05,-4.9331058107782155e-05,0.0,0.0,0.0
1.722585511743091e-05,-4.9268775910604745e-05,0.0,0.0,0.0
1.7512880731374025e-05,-4.9183989176526666e-05,0.0,0.0,0.0
1.78703703568317e-05,-4.956564589519985e-05,0.0,0.0,0.0
1.803398845368065e-05,-4.9343805585522205e-05,0.0,0.0,0.0
1.7847258277470246e-05,-4.9045327614294365e-05,0.0,0.0,0.0
1.7701731849228963e-05,-4.932963565806858e-05,0.0,0.0,0.0
1.7564303561812267e-05,-4.936598634230904e-05,0.0,0.0,0.0
1.762531974236481e-05,-4.9308117013424635e-05,0.0,0.0,0.0
1.69969025591854e-05,-4.907189941150136e-05,0.0,0.0,0.0
1.7181631847051904e-05,-4.895899837720208e-05,0.0,0.0,0.0
1.740840161801316e-05,-4.905841706204228e-05,0.0,0.0,0.0
1.7427622879040428e-05,-4.89716803713236e-05,0.0,0.0,0.0
1.7786827811505646e-05,-4.8791294830152765e-05,0.0,0.0,0.0
1.6980908185360022e-05,-4.861595152760856e-05,0.0,0.0,0.0
1.7273623598157428e-05,-4.896043537883088e-05,0.0,0.0,0.0
1.7007230781018734e-05,-4.9218841013498604e-05,0.0,0.0,0.0
1.719933788990602e-05,-4.9381083954358473e-05,0.0,0.0,0.0
1.7071972251869738e-05,-4.911961150355637e-05,0.0,0.0,0.0
1.714350946713239e-05,-4.901683496427722e-05,0.0,0.0,0.0
1.7300306353718042e-05,-4.8829660954652354e-05,0.0,0.0,0.0
1.7277054212172516e-05,-4.866703966399655e-05,0.0,0.0,0.0
1.7141392163466662e-05,-4.8686481022741646e-05,0.0,0.0,0.0
1.7383672457071953e-05,-4.8814246838446707e-05,0.0,0.0,0.0
1.7418737115804106e-05,-4.888306284556165e-05,0.0,0.0,0.0
1.687893018242903e-05,-4.867196548730135e-05,0.0,0.0,0.0
1.703626367088873e-05,-4.8681402404326946e-05,0.0,0.0,0.0
1.6757765479269437e-05,-4.8670557589503005e-05,0.0,0.0,0.0
1.6913922081585042e-05,-4.868241376243532e-05,0.0,0.0,0.0
1.7064541680156253e-05,-4.8669906391296536e-05,0.0,0.0,0.0
1.7176347682834603e-05,-4.868273754254915e-05,0.0,0.0,0.0
1.7130329069914296e-05,-4.8733676521806046e-05,0.0,0.0,0.0
1.7479109374107793e-05,-4.8989586503012106e-05,0.0,0.0,0.0
1.7432750610169023e-05,-4.898778206552379e-05,0.0,0.0,0.0
1.7511511032353155e-05,-4.869678014074452e-05,0.0,0.0,0.0
1.768875699781347e-05,-4.8658024752512574e-05,0.0,0.0,0.0
1.725742367852945e-05,-4.8692374548409134e-05,0.0,0.0,0.0
1.7004418623400852e-05,-4.9236528866458684e-05,0.0,0.0,0.0
1.7217547792824917e-05,-4.888889452558942e-05,0.0,0.0,0.0
1.704161877569277e-05,-4.878780964645557e-05,0.0,0.0,0.0
1.7183094314532354e-05,-4.917429760098457e-05,0.0,0.0,0.0
1.756248457240872e-05,-4.887923569185659e-05,0.0,0.0,0.0
1.7881238818517886e-05,-4.91181890538428e-05,0.0,0.0,0.0
1.7724461940815672e-05,-4.9152742576552555e-05,0.0,0.0,0.0
1.7414819012628868e-05,-4.921778599964455e-05,0.0,0.0,0.0
1.7255955754080787e-05,-4.873123543802649e-05,0.0,0.0,0.0
1.770781454979442e-05,-4.871815690421499e-05,0.0,0.0,0.0
1.7764241420081817e-05,-4.865123628405854e-05,0.0,0.0,0.0
1.7803504306357354e-05,-4.868693940807134e-05,0.0,0.0,0.0
1.7794425730244257e-05,-4.883726796833798e-05,0.0,0.0,0.0
1.792685543478001e-05,-4.900171916233376e-05,0.0,0.0,0.0
1.8010992789641023e-05,-4.916905891150236e-05,0.0,0.0,0.0
1.776817771315109e-05,-4.906144749838859e-05,0.0,0.0,0.0
1.7822425434133038e-05,-4.884621739620343e-05,0.0,0.0,0.0
1.743764732964337e-05,-4.883982182946056e-05,0.0,0.0,0.0
1.715689904813189e-05,-4.8755518946563825e-05,0.0,0.0,0.0
1.7485483112977818e-05,-4.860195622313768e-05,0.0,0.0,0.0
1.7362181097269058e-05,-4.874523074249737e-05,0.0,0.0,0.0
1.728339702822268e-05,-4.86130484205205e-05,0.0,0.0,0.0
1.7660062439972535e-05,-4.8839905502973124e-05,0.0,0.0,0.0
1.7587988622835837e-05,-4.914749297313392e-05,0.0,0.0,0.0
1.7596663383301347e-05,-4.8814225010573864e-05,0.0,0.0,0.0
1.697250991128385e-05,-4.8277473979396746e-05,0.0,0.0,0.0
1.6618743757135235e-05,-4.901604188489728e-05,0.0,0.0,0.0
1.6597879948676564e-05,-4.872429417446256e-05,0.0,0.0,0.0
1.6936332031036727e-05,-4.8632406105753034e-05,0.0,0.0,0.0
1.6665680959704332e-05,-4.8982357839122415e-05,0.0,0.0,0.0
1.713058190944139e-05,-4.9009475333150476e-05,0.0,0.0,0.0
1.7576154277776368e-05,-4.877267929259688e-05,0.0,0.0,0.0
1.739596700645052e-05,-4.864065340370871e-05,0.0,0.0,0.0
1.7024129192577675e-05,-4.8709473048802465e-05,0.0,0.0,0.0
1.7613052477827296e-05,-4.864536094828509e-05,0.0,0.0,0.0
1.7786323951440863e-05,-4.870505290455185e-05,0.0,0.0,0.0
1.7781785572879016e-05,-4.8649544623913243e-05,0.0,0.0,0.0
1.7453890905017033e-05,-4.8701065679779276e-05,0.0,0.0,0.0
1.7240841771126725e-05,-4.865337541559711e-05,0.0,0.0,0.0
1.7356725948047824e-05,-4.8856891226023436e-05,0.0,0.0,0.0
1.7056770957424305e-05,-4.89938938699197e-05,0.0,0.0,0.0
1.7323489373666234e-05,-4.889053889201023e-05,0.0,0.0,0.0
1.7259180822293274e-05,-4.866614472121e-05,0.0,0.0,0.0
1.7313659554929473e-05,-4.8685742513043806e-05,0.0,0.0,0.0
1.7585141904419288e-05,-4.8773883463582024e-05,0.0,0.0,0.0
1.8078635548590682e-05,-4.890889613307081e-05,0.0,0.0,0.0
1.7766555174603127e-05,-4.870091288466938e-05,0.0,0.0,0.0
1.7817093976191245e-05,-4.8655572754796594e-05,0.0,0.0,0.0
1.7768066754797474e-05,-4.8757308832136914e-05,0.0,0.0,0.0
1.7867421775008552e-05,-4.896919563179836e-05,0.0,0.0,0.0
1.8033191736321896e-05,-4.900521889794618e-05,0.0,0.0,0.0
1.7871887393994257e-05,-4.8745838284958154e-05,0.0,0.0,0.0
1.7682183170109056e-05,-4.9222006055060774e-05,0.0,0.0,0.0
1.7259946616832167e-05,-4.8831487220013514e-05,0.0,0.0,0.0
1.700515167613048e-05,-4.911899668513797e-05,0.0,0.0,0.0
1.7490776372142136e-05,-4.926337715005502e-05,0.0,0.0,0.0
1.74202723428607e-05,-4.8549183702562004e-05,0.0,0.0,0.0
1.773595613485668e-05,-4.9057973228627816e-05,0.0,0.0,0.0
1.7319924154435284e-05,-4.8943227739073336e-05,0.0,0.0,0.0
1.751188756315969e-05,-4.929626447847113e-05,0.0,0.0,0.0
1.7688267689663917e-05,-4.9337988457409665e-05,0.0,0.0,0.0
1.7542330169817433e-05,-4.913478915113956e-05,0.0,0.0,0.0
1.7919959645951167e-05,-4.880056076217443e-05,0.0,0.0,0.0
1.7299516912316903e-05,-4.866120434598997e-05,0.0,0.0,0.0
1.7191194274346344e-05,-4.869705662713386e-05,0.0,0.0,0.0
1.706114380795043e-05,-4.865107257501222e-05,0.0,0.0,0.0
1.7170039427583106e-05,-4.8864298150874674e-05,0.0,0.0,0.0
1.7080295947380364e-05,-4.898247425444424e-05,0.0,0.0,0.0
1.701452310953755e-05,-4.8905003495747223e-05,0.0,0.0,0.0
1.6893094652914442e-05,-4.864950096816756e-05,0.0,0.0,0.0
1.7125476006185636e-05,-4.8703805077821016e-05,0.0,0.0,0.0
1.711977893137373e-05,-4.864871152676642e-05,0.0,0.0,0.0
1.7022328393068165e-05,-4.879900370724499e-05,0.0,0.0,0.0
1.689414602878969e-05,-4.8882284318096936e-05,0.0,0.0,0.0
1.7149273844552226e-05,-4.873867510468699e-05,0.0,0.0,0.0
1.7600596038391814e-05,-4.8621448513586074e-05,0.0,0.0,0.0
1.8053717212751508e-05,-4.877698665950447e-05,0.0,0.0,0.0
1.8107857613358647e-05,-4.8896934458753094e-05,0.0,0.0,0.0
1.7469845261075534e-05,-4.8804493417264894e-05,0.0,0.0,0.0
1.738211176416371e-05,-4.8850539315026253e-05,0.0,0.0,0.0
1.6582682292209938e-05,-4.852274651057087e-05,0.0,0.0,0.0
1.6911621059989557e-05,-4.905139212496579e-05,0.0,0.0,0.0
1.7848264178610407e-05,-4.903995431959629e-05,0.0,0.0,0.0
1.7457979993196204e-05,-4.8401489038951695e-05,0.0,0.0,0.0
1.7474852938903496e-05,-4.9152531573781744e-05,0.0,0.0,0.0
1.7690037566353567e-05,-4.8625526687828824e-05,0.0,0.0,0.0
1.78242007677909e-05,-4.875291415373795e-05,0.0,0.0,0.0
1.7993284927797504e-05,-4.8851114115677774e-05,0.0,0.0,0.0
1.8162258129450493e-05,-4.884467489318922e-05,0.0,0.0,0.0
1.7902091713040136e-05,-4.86373137391638e-05,0.0,0.0,0.0
1.7600232240511104e-05,-4.888304101768881e-05,0.0,0.0,0.0
1.7631669834372588e-05,-4.884693771600723e-05,0.0,0.0,0.0
1.7798991393647157e-05,-4.880840424448252e-05,0.0,0.0,0.0
1.7791722711990587e-05,-4.906451431452297e-05,0.0,0.0,0.0
1.7786867829272524e-05,-4.8952999350149184e-05,0.0,0.0,0.0
1.766325658536516e-05,-4.893698496744037e-05,0.0,0.0,0.0
1.7448890503146686e-05,-4.861606430495158e-05,0.0,0.0,0.0
1.7466814824729227e-05,-4.8737780161900446e-05,0.0,0.0,0.0
1.7337248209514655e-05,-4.86149983771611e-05,0.0,0.0,0.0
1.7150203348137438e-05,-4.873605212196708e-05,0.0,0.0,0.0
1.7262540495721623e-05,-4.8704183427616954e-05,0.0,0.0,0.0
1.7625678083277307e-05,-4.904366869595833e-05,0.0,0.0,0.0
1.718418388918508e-05,-4.891742719337344e-05,0.0,0.0,0.0
1.706834700598847e-05,-4.873387297266163e-05,0.0,0.0,0.0
1.7205558833666146e-05,-4.866800009040162e-05,0.0,0.0,0.0
1.735533442115411e-05,-4.898871702607721e-05,0.0,0.0,0.0
1.7215521438629366e-05,-4.870776683674194e-05,0.0,0.0,0.0
1.7042833860614337e-05,-4.864875882049091e-05,0.0,0.0,0.0
1.68961505551124e-05,-4.8987800255417824e-05,0.0,0.0,0.0
1.724746653053444e-05,-4.9031128583010286e-05,0.0,0.0,0.0
1.7338084944640286e-05,-4.899772829958238e-05,0.0,0.0,0.0
1.6967172996373847e-05,-4.902152795693837e-05,0.0,0.0,0.0
1.7732225387590006e-05,-4.876227103522979e-05,0.0,0.0,0.0
1.7518666936666705e-05,-4.888341936748475e-05,0.0,0.0,0.0
1.7233203834621236e-05,-4.9062404286814854e-05,0.0,0.0,0.0
1.7107577150454745e-05,-4.8966481699608266e-05,0.0,0.0,0.0
1.7123356883530505e-05,-4.905300011159852e-05,0.0,0.0,0.0
1.712637094897218e-05,-4.897503094980493e-05,0.0,0.0,0.0
1.72888449014863e-05,-4.904520028503612e-05,0.0,0.0,0.0
1.7311942428932525e-05,-4.881201311945915e-05,0.0,0.0,0.0
1.7087790183722973e-05,-4.885790258413181e-05,0.0,0.0,0.0
1.7302836567978375e-05,-4.884416193817742e-05,0.0,0.0,0.0
1.7282953194808215e-05,-4.869590338785201e-05,0.0,0.0,0.0
1.728771167108789e-05,-4.878571053268388e-05,0.0,0.0,0.0
1.7527330783195794e-05,-4.890304626314901e-05,0.0,0.0,0.0
1.7715836293064058e-05,-4.8680525651434436e-05,0.0,0.0,0.0
1.7443837350583635e-05,-4.867336610914208e-05,0.0,0.0,0.0
1.7553475117892958e-05,-4.876315506407991e-05,0.0,0.0,0.0
1.7758748072083108e-05,-4.898909537587315e-05,0.0,0.0,0.0
1.7757114619598724e-05,-4.90308775624726e-05,0.0,0.0,0.0
1.7513531929580495e-05,-4.8943416913971305e-05,0.0,0.0,0.0
1.7671067325863987e-05,-4.8763085942482576e-05,0.0,0.0,0.0
1.728613642626442e-05,-4.893994264421053e-05,0.0,0.0,0.0
1.7627953639021143e-05,-4.9071961257141083e-05,0.0,0.0,0.0
1.79310063685989e-05,-4.896277823718265e-05,0.0,0.0,0.0
1.7388445485266857e-05,-4.876444290857762e-05,0.0,0.0,0.0
1.723497553030029e-05,-4.86040698888246e-05,0.0,0.0,0.0
1.7304784705629572e-05,-4.8734280426288024e-05,0.0,0.0,0.0
1.7556401871843264e-05,-4.8630852688802406e-05,0.0,0.0,0.0
1.7620741346036084e-05,-4.8955265810946e-05,0.0,0.0,0.0
1.7882422980619594e-05,-4.924897802993655e-05,0.0,0.0,0.0
1.7498368833912537e-05,-4.9142159696202725e-05,0.0,0.0,0.0
1.727516428218223e-05,-4.898000770481303e-05,0.0,0.0,0.0
1.728502320474945e-05,-4.903442822978832e-05,0.0,0.0,0.0
1.768688889569603e-05,-4.9189107812708244e-05,0.0,0.0,0.0
1.7777752873371355e-05,-4.918548802379519e-05,0.0,0.0,0.0
1.7456348359701224e-05,-4.882310895482078e-05,0.0,0.0,0.0
1.7114829461206682e-05,-4.868242103839293e-05,0.0,0.0,0.0
1.711800359771587e-05,-4.88247605971992e-05,0.0,0.0,0.0
1.7130083506344818e-05,-4.8867401346797124e-05,0.0,0.0,0.0
1.7105745428125374e-05,-4.8819216317497194e-05,0.0,0.0,0.0
1.7139640476671048e-05,-4.8868863814277574e-05,0.0,0.0,0.0
1.7098604075727053e-05,-4.8714664444560185e-05,0.0,0.0,0.0
1.7144635421573184e-05,-4.873561920248903e-05,0.0,0.0,0.0
1.7095497241825797e-05,-4.894226003671065e-05,0.0,0.0,0.0
1.7220543668372557e-05,-4.860834451392293e-05,0.0,0.0,0.0
1.740582774800714e-05,-4.842615453526378e-05,0.0,0.0,0.0
1.7555359590915032e-05,-4.8627363867126405e-05,0.0,0.0,0.0
1.771893039403949e-05,-4.8804253310663626e-05,0.0,0.0,0.0
1.7855505575425923e-05,-4.9176211177837104e-05,0.0,0.0,0.0
1.7673844922683202e-05,-4.8844871344044805e-05,0.0,0.0,0.0
1.6956439139903523e-05,-4.853444988839328e-05,0.0,0.0,0.0
1.6927871911320835e-05,-4.879371408605948e-05,0.0,0.0,0.0
1.7280943211517297e-05,-4.913398151984438e-05,0.0,0.0,0.0
1.698974119790364e-05,-4.923270898871124e-05,0.0,0.0,0.0
1.748018439684529e-05,-4.9112200940726325e-05,0.0,0.0,0.0
1.7651515008765273e-05,-4.950098809786141e-05,0.0,0.0,0.0
1.7853260942501947e-05,-4.922874359181151e-05,0.0,0.0,0.0
1.7526084775454365e-05,-4.9212849262403324e-05,0.0,0.0,0.0
1.7461472452851012e-05,-4.9354413931723684e-05,0.0,0.0,0.0
1.7663698599790223e-05,-4.957313649356365e-05,0.0,0.0,0.0
1.7983898942475207e-05,-4.8887824959820136e-05,0.0,0.0,0.0
1.814818097045645e-05,-4.888377588940784e-05,0.0,0.0,0.0
1.776097997208126e-05,-4.901300781057216e-05,0.0,0.0,0.0
1.731867450871505e-05,-4.9155394663102925e-05,0.0,0.0,0.0
1.7390024368069135e-05,-4.9228357966057956e-05,0.0,0.0,0.0
1.754319055180531e-05,-4.897530743619427e-05,0.0,0.0,0.0
1.7356505850329995e-05,-4.905561581836082e-05,0.0,0.0,0.0
1.779661761247553e-05,-4.896342579741031e-05,0.0,0.0,0.0
1.7783435396268032e-05,-4.906362300971523e-05,0.0,0.0,0.0
1.7803540686145425e-05,-4.895884922007099e-05,0.0,0.0,0.0
1.7778485926100984e-05,-4.915027602692135e-05,0.0,0.0,0.0
1.780675484042149e-05,-4.9273567128693685e-05,0.0,0.0,0.0
1.7776779714040458e-05,-4.928879570798017e-05,0.0,0.0,0.0
1.7700820535537787e-05,-4.8670721298549324e-05,0.0,0.0,0.0
1.7169973943964578e-05,-4.868417090619914e-05,0.0,0.0,0.0
1.7016147467074916e-05,-4.8667094233678654e-05,0.0,0.0,0.0
1.6580888768658042e-05,-4.870715565630235e-05,0.0,0.0,0.0
1.6650774341542274e-05,-4.89607518829871e-05,0.0,0.0,0.0
1.6896568922675215e-05,-4.8768764827400446e-05,0.0,0.0,0.0
1.6969774151220918e-05,-4.887493560090661e-05,0.0,0.0,0.0
1.7232383470400237e-05,-4.884801819571294e-05,0.0,0.0,0.0
1.7030606613843702e-05,-4.8814148613018915e-05,0.0,0.0,0.0
1.7680704331723973e-05,-4.889277261099778e-05,0.0,0.0,0.0
1.7793467122828588e-05,-4.854921280639246e-05,0.0,0.0,0.0
1.756207348080352e-05,-4.899850318906829e-05,0.0,0.0,0.0
1.7233120161108673e-05,-4.8746736865723506e-05,0.0,0.0,0.0
1.7510756151750684e-05,-4.869226904702373e-05,0.0,0.0,0.0
1.764595253916923e-05,-4.8673558922018856e-05,0.0,0.0,0.0
1.7403341189492494e-05,-4.902925138594583e-05,0.0,0.0,0.0
1.7333361029159278e-05,-4.9041249440051615e-05,0.0,0.0,0.0
1.707454248389695e-05,-4.878798426943831e-05,0.0,0.0,0.0
1.7457990907132626e-05,-4.921153231407516e-05,0.0,0.0,0.0
1.775444434315432e-05,-4.9018206482287496e-05,0.0,0.0,0.0
1.7695976566756144e-05,-4.886700480710715e-05,0.0,0.0,0.0
1.7556089005665854e-05,-4.882576104137115e-05,0.0,0.0,0.0
1.789942689356394e-05,-4.8753292503533885e-05,0.0,0.0,0.0
1.8017730326391757e-05,-4.8605546908220276e-05,0.0,0.0,0.0
1.7905887943925336e-05,-4.891076605417766e-05,0.0,0.0,0.0
1.800898644432891e-05,-4.909691779175773e-05,0.0,0.0,0.0
1.7852506061899476e-05,-4.8879646783461794e-05,0.0,0.0,0.0
1.7743512216839008e-05,-4.8863621486816555e-05,0.0,0.0,0.0
1.7829775970312767e-05,-4.91375794808846e-05,0.0,0.0,0.0
1.773192525433842e-05,-4.89073499920778e-05,0.0,0.0,0.0
1.75146633409895e-05,-4.907610855298117e-05,0.0,0.0,0.0
1.7411246517440304e-05,-4.865031223744154e-05,0.0,0.0,0.0
1.7202541130245663e-05,-4.897996041108854e-05,0.0,0.0,0.0
1.705642898741644e-05,-4.876842285739258e-05,0.0,0.0,0.0
1.7169168131658807e-05,-4.8604924813844264e-05,0.0,0.0,0.0
1.759624865371734e-05,-4.8741734644863755e-05,0.0,0.0,0.0
1.812183290894609e-05,-4.861639899900183e-05,0.0,0.0,0.0
1.7856902559287846e-05,-4.873088619206101e-05,0.0,0.0,0.0
1.734442776069045e-05,-4.8850000894162804e-05,0.0,0.0,0.0
1.7086427760659717e-05,-4.886532042291947e-05,0.0,0.0,0.0
1.7141797798103653e-05,-4.880255073658191e-05,0.0,0.0,0.0
1.7301903426414356e-05,-4.890029231319204e-05,0.0,0.0,0.0
1.7287682567257434e-05,-4.859757245867513e-05,0.0,0.0,0.0
1.6939977285801433e-05,-4.874182923231274e-05,0.0,0.0,0.0
1.6941059584496543e-05,-4.862262721871957e-05,0.0,0.0,0.0
1.7280754036619328e-05,-4.871923374594189e-05,0.0,0.0,0.0
1.73000280483393e-05,-4.864289076067507e-05,0.0,0.0,0.0
1.714744939818047e-05,-4.857355816056952e-05,0.0,0.0,0.0
1.7209114957950078e-05,-4.8448873712914065e-05,0.0,0.0,0.0
1.7367159671266563e-05,-4.866753806709312e-05,0.0,0.0,0.0
1.711719414743129e-05,-4.868795440415852e-05,0.0,0.0,0.0
1.7212105376529507e-05,-4.87473480461631e-05,0.0,0.0,0.0
1.735139812808484e-05,-4.900578278466128e-05,0.0,0.0,0.0
1.723827517707832e-05,-4.894981248071417e-05,0.0,0.0,0.0
1.7379943528794684e-05,-4.8707082896726206e-05,0.0,0.0,0.0
1.7522354028187692e-05,-4.868920223088935e-05,0.0,0.0,0.0
1.740010156936478e-05,-4.897299731965177e-05,0.0,0.0,0.0
1.7503296476206742e-05,-4.869691838393919e-05,0.0,0.0,0.0
1.7417984054191038e-05,-4.8349600547226146e-05,0.0,0.0,0.0
1.748664362821728e-05,-4.8617257562000304e-05,0.0,0.0,0.0
1.7709875464788638e-05,-4.872881982009858e-05,0.0,0.0,0.0
1.8111884855898097e-05,-4.86299250042066e-05,0.0,0.0,0.0
1.78652408067137e-05,-4.8972000513458624e-05,0.0,0.0,0.0
1.776281169441063e-05,-4.9008162022801116e-05,0.0,0.0,0.0
1.758673352014739e-05,-4.8781814257381484e-05,0.0,0.0,0.0
1.7627144188736565e-05,-4.8648180381860584e-05,0.0,0.0,0.0
1.7648068023845553e-05,-4.8699926992412657e-05,0.0,0.0,0.0
1.7580046915099956e-05,-4.8656784201739356e-05,0.0,0.0,0.0
1.7874168406706303e-05,-4.869194162893109e-05,0.0,0.0,0.0
1.7722226402838714e-05,-4.8844933189684525e-05,0.0,0.0,0.0
1.7680416931398213e-05,-4.902879300061613e-05,0.0,0.0,0.0
1.756290475896094e-05,-4.8840029194252566e-05,0.0,0.0,0.0
1.7836055121733807e-05,-4.8683541535865515e-05,0.0,0.0,0.0
1.7481004761066288e-05,-4.8533795052208006e-05,0.0,0.0,0.0
1.7412692614016123e-05,-4.834755964111537e-05,0.0,0.0,0.0
1.786343455023598e-05,-4.857048043049872e-05,0.0,0.0,0.0
1.8151276890421286e-05,-4.8883099225349724e-05,0.0,0.0,0.0
1.8015602108789608e-05,-4.871299097430892e-05,0.0,0.0,0.0
1.7735790606820956e-05,-4.864300353801809e-05,0.0,0.0,0.0
1.7383115846314467e-05,-4.878071558778174e-05,0.0,0.0,0.0
1.714091376925353e-05,-4.889599949819967e-05,0.0,0.0,0.0
1.710722062853165e-05,-4.875032027484849e-05,0.0,0.0,0.0
1.7085569197661243e-05,-4.861281922785565e-05,0.0,0.0,0.0
1.684964263404254e-05,-4.873004218097776e-05,0.0,0.0,0.0
1.7050384485628456e-05,-4.863137291977182e-05,0.0,0.0,0.0
1.7183534509968013e-05,-4.871314740739763e-05,0.0,0.0,0.0
1.7064707208191976e-05,-4.89338199258782e-05,0.0,0.0,0.0
1.716988845146261e-05,-4.879963307757862e-05,0.0,0.0,0.0
1.7077649317798205e-05,-4.8586949560558423e-05,0.0,0.0,0.0
1.7157672118628398e-05,-4.8492867790628225e-05,0.0,0.0,0.0
1.7333723008050583e-05,-4.849786637350917e-05,0.0,0.0,0.0
1.7744423530530185e-05,-4.9006324843503535e-05,0.0,0.0,0.0
1.7548478354001418e-05,-4.8738569603301585e-05,0.0,0.0,0.0
1.745090958138462e-05,-4.869033000431955e-05,0.0,0.0,0.0
1.7462172763771378e-05,-4.8873589548747987e-05,0.0,0.0,0.0
1.7258642401429825e-05,-4.8831985623110086e-05,0.0,0.0,0.0
1.7116022718255408e-05,-4.8662688641343266e-05,0.0,0.0,0.0
1.7122905774158426e-05,-4.885045564151369e-05,0.0,0.0,0.0
1.7279904568567872e-05,-4.886098031420261e-05,0.0,0.0,0.0
1.74560282175662e-05,-4.866095696343109e-05,0.0,0.0,0.0
1.7182070223498158e-05,-4.883375731878914e-05,0.0,0.0,0.0
1.7047044821083546e-05,-4.8856880312087014e-05,0.0,0.0,0.0
1.7551581549923867e-05,-4.8947757022688165e-05,0.0,0.0,0.0
1.779717786121182e-05,-4.907399488729425e-05,0.0,0.0,0.0
1.7789197954698466e-05,-4.885916496277787e-05,0.0,0.0,0.0
1.7792850485420786e-05,-4.883017754764296e-05,0.0,0.0,0.0
1.7792855942388996e-05,-4.878340405412018e-05,0.0,0.0,0.0
1.7853622921393253e-05,-4.8583446186967194e-05,0.0,0.0,0.0
1.8049202481051907e-05,-4.8755708121461794e-05,0.0,0.0,0.0
1.780162529030349e-05,-4.86093558720313e-05,0.0,0.0,0.0
1.7416914488421753e-05,-4.873160651186481e-05,0.0,0.0,0.0
1.7163749362225644e-05,-4.863163485424593e-05,0.0,0.0,0.0
1.7085894796764478e-05,-4.8711150157032534e-05,0.0,0.0,0.0
1.743506800266914e-05,-4.865028677158989e-05,0.0,0.0,0.0
1.775311648088973e-05,-4.897078906651586e-05,0.0,0.0,0.0
1.807647458917927e-05,-4.9038859287975356e-05,0.0,0.0,0.0
1.7638116332818754e-05,-4.8985060857376084e-05,0.0,0.0,0.0
1.786382563295774e-05,-4.8794136091601104e-05,0.0,0.0,0.0
1.8019160052062944e-05,-4.862207060796209e-05,0.0,0.0,0.0
1.766238347045146e-05,-4.872528734267689e-05,0.0,0.0,0.0
1.7473730622441508e-05,-4.8632191465003416e-05,0.0,0.0,0.0
1.6998170394799672e-05,-4.871572309639305e-05,0.0,0.0,0.0
1.7218670109286904e-05,-4.844979048357345e-05,0.0,0.0,0.0
1.704436908767093e-05,-4.854111102758907e-05,0.0,0.0,0.0
1.7177559129777364e-05,-4.866627568844706e-05,0.0,0.0,0.0
1.692114892648533e-05,-4.8685968067729846e-05,0.0,0.0,0.0
1.7106618543039076e-05,-4.8667028750060126e-05,0.0,0.0,0.0
1.7302289052167907e-05,-4.8546742618782446e-05,0.0,0.0,0.0
1.7131185813923366e-05,-4.833788989344612e-05,0.0,0.0,0.0
1.7119587937486358e-05,-4.84601769130677e-05,0.0,0.0,0.0
1.700739267107565e-05,-4.8768153646960855e-05,0.0,0.0,0.0
1.6813602996990085e-05,-4.900917338090949e-05,0.0,0.0,0.0
1.6923509974731132e-05,-4.892934884992428e-05,0.0,0.0,0.0
1.7520205801702105e-05,-4.8696078010834754e-05,0.0,0.0,0.0
1.7769800251699053e-05,-4.8659574531484395e-05,0.0,0.0,0.0
1.7710177417029627e-05,-4.869011172559112e-05,0.0,0.0,0.0
1.7158654372906312e-05,-4.866509698331356e-05,0.0,0.0,0.0
1.7156653484562412e-05,-4.874884689343162e-05,0.0,0.0,0.0
1.7733933418639936e-05,-4.9263933760812506e-05,0.0,0.0,0.0
1.784555206540972e-05,-4.941763836541213e-05,0.0,0.0,0.0
1.7743243006407283e-05,-4.929018905386329e-05,0.0,0.0,0.0
1.755941048031673e-05,-4.911743235425092e-05,0.0,0.0,0.0
1.7645463231019676e-05,-4.893799632554874e-05,0.0,0.0,0.0
1.789202906365972e-05,-4.9070797103922814e-05,0.0,0.0,0.0
1.8197401004727e-05,-4.8966645408654585e-05,0.0,0.0,0.0
1.8119995729648508e-05,-4.881144195678644e-05,0.0,0.0,0.0
1.7864853361970745e-05,-4.8852114559849724e-05,0.0,0.0,0.0
1.8057595298159868e-05,-4.9067479267250746e-05,0.0,0.0,0.0
1.7661379388300702e-05,-4.897153485217132e-05,0.0,0.0,0.0
1.808438537409529e-05,-4.8847898142412305e-05,0.0,0.0,0.0
1.788356894394383e-05,-4.8649006203049794e-05,0.0,0.0,0.0
1.7656127965892665e-05,-4.8862104449654e-05,0.0,0.0,0.0
1.759396582201589e-05,-4.8851186875253916e-05,0.0,0.0,0.0
1.7650767404120415e-05,-4.866907329414971e-05,0.0,0.0,0.0
1.7464304619352333e-05,-4.8688896640669554e-05,0.0,0.0,0.0
1.743715620250441e-05,-4.878707113675773e-05,0.0,0.0,0.0
1.760153827490285e-05,-4.890623313258402e-05,0.0,0.0,0.0
1.7744614524417557e-05,-4.878011532127857e-05,0.0,0.0,0.0
1.7843121895566583e-05,-4.900316707789898e-05,0.0,0.0,0.0
1.7568510884302668e-05,-4.893045115750283e-05,0.0,0.0,0.0
1.72189247678034e-05,-4.86989229102619e-05,0.0,0.0,0.0
1.7029007722157985e-05,-4.8653633712092414e-05,0.0,0.0,0.0
1.7151980500784703e-05,-4.869838812737726e-05,0.0,0.0,0.0
1.6697171304258518e-05,-4.865516166319139e-05,0.0,0.0,0.0
1.6558928109589033e-05,-4.869604526902549e-05,0.0,0.0,0.0
1.667709875619039e-05,-4.8658159357728437e-05,0.0,0.0,0.0
1.687838630459737e-05,-4.869253825745545e-05,0.0,0.0,0.0
1.6705096641089767e-05,-4.8662041081115603e-05,0.0,0.0,0.0
1.7128404579125345e-05,-4.896491373074241e-05,0.0,0.0,0.0
1.7369315173709765e-05,-4.903976878267713e-05,0.0,0.0,0.0
1.7247766663786024e-05,-4.873304715147242e-05,0.0,0.0,0.0
1.7053222109097987e-05,-4.8665329813957214e-05,0.0,0.0,0.0
1.7407257473678328e-05,-4.915298632113263e-05,0.0,0.0,0.0
1.7218148059328087e-05,-4.916664329357445e-05,0.0,0.0,0.0
1.710645119601395e-05,-4.895478195976466e-05,0.0,0.0,0.0
1.71381288964767e-05,-4.906000685878098e-05,0.0,0.0,0.0
1.7100306649808772e-05,-4.8780686483951285e-05,0.0,0.0,0.0
1.7143231161753647e-05,-4.869770782534033e-05,0.0,0.0,0.0
1.7436537746107206e-05,-4.899952182313427e-05,0.0,0.0,0.0
1.7507805750938132e-05,-4.9210571887670085e-05,0.0,0.0,0.0
1.7531059711473063e-05,-4.91424034407828e-05,0.0,0.0,0.0
1.8017273760051467e-05,-4.922086009173654e-05,0.0,0.0,0.0
1.7516369553050026e-05,-4.913772500003688e-05,0.0,0.0,0.0
1.715705184324179e-05,-4.9337912059854716e-05,0.0,0.0,0.0
1.730065923766233e-05,-4.935867400490679e-05,0.0,0.0,0.0
1.7790327547118068e-05,-4.9240119551541284e-05,0.0,0.0,0.0
1.77928068296751e-05,-4.912807708024047e-05,0.0,0.0,0.0
1.771745337464381e-05,-4.929718852508813e-05,0.0,0.0,0.0
1.7417496565030888e-05,-4.9264748668065295e-05,0.0,0.0,0.0
1.728784991428256e-05,-4.8747526307124645e-05,0.0,0.0,0.0
1.798236189642921e-05,-4.896539758192375e-05,0.0,0.0,0.0
1.7882864995044656e-05,-4.905074092675932e-05,0.0,0.0,0.0
1.7391583241987973e-05,-4.8980167775880545e-05,0.0,0.0,0.0
1.7509280951344408e-05,-4.903764420305379e-05,0.0,0.0,0.0
1.770115522958804e-05,-4.899170744465664e-05,0.0,0.0,0.0
1.7312821000814438e-05,-4.9027541535906494e-05,0.0,0.0,0.0
1.7518350432510488e-05,-4.900048952549696e-05,0.0,0.0,0.0
1.7968743122764863e-05,-4.901997453998774e-05,0.0,0.0,0.0
1.765011802490335e-05,-4.876234379480593e-05,0.0,0.0,0.0
1.790286842151545e-05,-4.8651032557245344e-05,0.0,0.0,0.0
1.748533031786792e-05,-4.869890835834667e-05,0.0,0.0,0.0
1.7707074221107177e-05,-4.8868900194065645e-05,0.0,0.0,0.0
1.778919067874085e-05,-4.904743400402367e-05,0.0,0.0,0.0
1.7400259821442887e-05,-4.898196493741125e-05,0.0,0.0,0.0
1.71167885127943e-05,-4.885618545813486e-05,0.0,0.0,0.0
1.711264303594362e-05,-4.8647991206962615e-05,0.0,0.0,0.0
1.713826168270316e-05,-4.88584119011648e-05,0.0,0.0,0.0
1.70952935150126e-05,-4.884683949057944e-05,0.0,0.0,0.0
1.715186044748407e-05,-4.869047916145064e-05,0.0,0.0,0.0
1.70850853464799e-05,-4.86658354930114e-05,0.0,0.0,0.0
1.7392994777765125e-05,-4.8566420446150005e-05,0.0,0.0,0.0
1.7621587176108733e-05,-4.8454752686666325e-05,0.0,0.0,0.0
1.74372016772395e-05,-4.865225128014572e-05,0.0,0.0,0.0
1.723857712931931e-05,-4.869873373536393e-05,0.0,0.0,0.0
1.7722451957524754e-05,-4.872986028203741e-05,0.0,0.0,0.0
1.7474058040534146e-05,-4.900592830381356e-05,0.0,0.0,0.0
1.7390948414686136e-05,-4.906901449430734e-05,0.0,0.0,0.0
1.7160398783744313e-05,-4.927116970065981e-05,0.0,0.0,0.0
1.7120955817517824e-05,-4.907483889837749e-05,0.0,0.0,0.0
1.744241853884887e-05,-4.893886580248363e-05,0.0,0.0,0.0
1.747002716001589e-05,-4.8760197387309745e-05,0.0,0.0,0.0
1.7443309843656607e-05,-4.918179547530599e-05,0.0,0.0,0.0
1.746824273141101e-05,-4.9208581913262606e-05,0.0,0.0,0.0
1.7445796402171254e-05,-4.886233728029765e-05,0.0,0.0,0.0
1.772046380210668e-05,-4.938784695696086e-05,0.0,0.0,0.0
1.806060208764393e-05,-4.903935041511431e-05,0.0,0.0,0.0
1.8134876881958917e-05,-4.903033550363034e-05,0.0,0.0,0.0
1.767576213751454e-05,-4.878086838289164e-05,0.0,0.0,0.0
1.7204725736519322e-05,-4.886670649284497e-05,0.0,0.0,0.0
1.75404147739755e-05,-4.90558122692164e-05,0.0,0.0,0.0
1.780705679266248e-05,-4.8777135816635564e-05,0.0,0.0,0.0
1.7961485355044715e-05,-4.87074394186493e-05,0.0,0.0,0.0
1.8143515262636356e-05,-4.881484710494988e-05,0.0,0.0,0.0
1.779746889951639e-05,-4.888836701866239e-05,0.0,0.0,0.0
1.7609814676688984e-05,-4.864090806222521e-05,0.0,0.0,0.0
1.778809200914111e-05,-4.870905831921846e-05,0.0,0.0,0.0
1.779344711394515e-05,-4.8773956223158166e-05,0.0,0.0,0.0
1.7909746020450257e-05,-4.8913218051893637e-05,0.0,0.0,0.0
1.8006736354436725e-05,-4.867205643677153e-05,0.0,0.0,0.0
1.7534744984004647e-05,-4.868007090408355e-05,0.0,0.0,0.0
1.6813561160233803e-05,-4.867315146839246e-05,0.0,0.0,0.0
1.6762052837293595e-05,-4.8678575694793835e-05,0.0,0.0,0.0
1.6866513760760427e-05,-4.8674937715986744e-05,0.0,0.0,0.0
1.7025487977662124e-05,-4.867659663432278e-05,0.0,0.0,0.0
1.6850670363055542e-05,-4.871956480201334e-05,0.0,0.0,0.0
1.6731240975786932e-05,-4.8974889068631455e-05,0.0,0.0,0.0
1.6827885701786727e-05,-4.902346699964255e-05,0.0,0.0,0.0
1.6751433577155694e-05,-4.868932592216879e-05,0.0,0.0,0.0
1.7097261661547236e-05,-4.895330857834779e-05,0.0,0.0,0.0
1.714370955596678e-05,-4.878396794083528e-05,0.0,0.0,0.0
1.7098127500503324e-05,-4.85992495669052e-05,0.0,0.0,0.0
1.765273009368684e-05,-4.8738744226284325e-05,0.0,0.0,0.0
1.7589114577276632e-05,-4.887148315901868e-05,0.0,0.0,0.0
1.7629899957682937e-05,-4.884356530965306e-05,0.0,0.0,0.0
1.7640957594267093e-05,-4.86011995235458e-05,0.0,0.0,0.0
1.7590771676623262e-05,-4.915940735372715e-05,0.0,0.0,0.0
1.7669100998318754e-05,-4.934092066832818e-05,0.0,0.0,0.0
1.738059836497996e-05,-4.915580939268693e-05,0.0,0.0,0.0
1.7694586858851835e-05,-4.882643042947166e-05,0.0,0.0,0.0
1.7588166883797385e-05,-4.900653220829554e-05,0.0,0.0,0.0
1.7632755771046504e-05,-4.9211561417905614e-05,0.0,0.0,0.0
1.778574733179994e-05,-4.898600673186593e-05,0.0,0.0,0.0
1.751441777742002e-05,-4.889993215329014e-05,0.0,0.0,0.0
1.7393727830494754e-05,-4.878337131231092e-05,0.0,0.0,0.0
1.775321834429633e-05,-4.9023674364434555e-05,0.0,0.0,0.0
1.7937338270712644e-05,-4.9106020014733076e-05,0.0,0.0,0.0
1.7882524844026193e-05,-4.9344791477778926e-05,0.0,0.0,0.0
1.7458974980399944e-05,-4.926350447931327e-05,0.0,0.0,0.0
1.721294756862335e-05,-4.8960089770844206e-05,0.0,0.0,0.0
1.7792273865779862e-05,-4.8681278713047504e-05,0.0,0.0,0.0
1.7789869161788374e-05,-4.872591307503171e-05,0.0,0.0,0.0
1.7710366591927595e-05,-4.902503496850841e-05,0.0,0.0,0.0
1.7250813471036963e-05,-4.9273967306362465e-05,0.0,0.0,0.0
1.765947490639519e-05,-4.8761947255115956e-05,0.0,0.0,0.0
1.7903106709127314e-05,-4.8603520554024726e-05,0.0,0.0,0.0
1.7700051103020087e-05,-4.9024623876903206e-05,0.0,0.0,0.0
1.75905352080008e-05,-4.872564386459999e-05,0.0,0.0,0.0
1.7358472177875228e-05,-4.864599395659752e-05,0.0,0.0,0.0
1.7534846847411245e-05,-4.8702255298849195e-05,0.0,0.0,0.0
1.763939144439064e-05,-4.865436494583264e-05,0.0,0.0,0.0
1.8100476154359058e-05,-4.8694400902604684e-05,0.0,0.0,0.0
1.7425230907974765e-05,-4.86616809212137e-05,0.0,0.0,0.0
1.750393676047679e-05,-4.86876379000023e-05,0.0,0.0,0.0
1.746421548887156e-05,-4.8263751523336396e-05,0.0,0.0,0.0
1.7023328837240115e-05,-4.81730057799723e-05,0.0,0.0,0.0
1.7204984033014625e-05,-4.8553160013398156e-05,0.0,0.0,0.0
1.7218537323060445e-05,-4.899719715467654e-05,0.0,0.0,0.0
1.7521833797218278e-05,-4.905457535642199e-05,0.0,0.0,0.0
1.7551123164594173e-05,-4.865212395088747e-05,0.0,0.0,0.0
1.7557038518134505e-05,-4.869572148891166e-05,0.0,0.0,0.0
1.7354592273477465e-05,-4.8661026085028425e-05,0.0,0.0,0.0
1.7788539480534382e-05,-4.86878416268155e-05,0.0,0.0,0.0
1.7799704437493347e-05,-4.866795279667713e-05,0.0,0.0,0.0
1.7685018974589184e-05,-4.8586083721602336e-05,0.0,0.0,0.0
1.7489299352746457e-05,-4.844123759539798e-05,0.0,0.0,0.0
1.7498055967735127e-05,-4.863937647314742e-05,0.0,0.0,0.0
1.7735046640154906e-05,-4.8709174734540284e-05,0.0,0.0,0.0
1.747515852912329e-05,-4.864717266173102e-05,0.0,0.0,0.0
1.7486709111835808e-05,-4.874436854152009e-05,0.0,0.0,0.0
1.773124313331209e-05,-4.895448364550248e-05,0.0,0.0,0.0
1.7523290807730518e-05,-4.908227128908038e-05,0.0,0.0,0.0
1.7396061593899503e-05,-4.926447945763357e-05,0.0,0.0,0.0
1.7797281543607824e-05,-4.913025986752473e-05,0.0,0.0,0.0
1.7785438103601336e-05,-4.891337448498234e-05,0.0,0.0,0.0
1.7799513443605974e-05,-4.909281415166333e-05,0.0,0.0,0.0
1.8039208953268826e-05,-4.8947094910545275e-05,0.0,0.0,0.0
1.841172343119979e-05,-4.930723662255332e-05,0.0,0.0,0.0
1.8223076040158048e-05,-4.933742093271576e-05,0.0,0.0,0.0
1.7885997294797562e-05,-4.890486889053136e-05,0.0,0.0,0.0
1.7785559975891374e-05,-4.863552749156952e-05,0.0,0.0,0.0
1.7393882444594055e-05,-4.91094178869389e-05,0.0,0.0,0.0
1.746905400068499e-05,-4.8975027311826125e-05,0.0,0.0,0.0
1.7481444956501946e-05,-4.8640049499226734e-05,0.0,0.0,0.0
1.706326838757377e-05,-4.871125565841794e-05,0.0,0.0,0.0
1.732595410430804e-05,-4.864287984673865e-05,0.0,0.0,0.0
1.742214044497814e-05,-4.870782868238166e-05,0.0,0.0,0.0
1.7481668692198582e-05,-4.8785052058519796e-05,0.0,0.0,0.0
1.7566420865477994e-05,-4.890619675279595e-05,0.0,0.0,0.0
1.7559979824000038e-05,-4.866491872235201e-05,0.0,0.0,0.0
1.7253949408768676e-05,-4.868690302828327e-05,0.0,0.0,0.0
1.7317543097306043e-05,-4.866657764068805e-05,0.0,0.0,0.0
1.7180473150801845e-05,-4.868492396781221e-05,0.0,0.0,0.0
1.7065580323105678e-05,-4.8668793169781566e-05,0.0,0.0,0.0
1.7107129679061472e-05,-4.868254836765118e-05,0.0,0.0,0.0
1.6714697267161682e-05,-4.87776160298381e-05,0.0,0.0,0.0
1.6498041077284142e-05,-4.920243736705743e-05,0.0,0.0,0.0
1.643760515435133e-05,-4.879855623585172e-05,0.0,0.0,0.0
1.680605419096537e-05,-4.8593588871881366e-05,0.0,0.0,0.0
1.7077782104024664e-05,-4.905748937744647e-05,0.0,0.0,0.0
1.7157808542833664e-05,-4.868775431532413e-05,0.0,0.0,0.0
1.7088756067096256e-05,-4.866483141086064e-05,0.0,0.0,0.0
1.7147514881798998e-05,-4.895337042398751e-05,0.0,0.0,0.0
1.7353595467284322e-05,-4.903560329694301e-05,0.0,0.0,0.0
1.7260827007703483e-05,-4.89935337100178e-05,0.0,0.0,0.0
1.728680399537552e-05,-4.879195330431685e-05,0.0,0.0,0.0
1.731232987367548e-05,-4.8865073040360585e-05,0.0,0.0,0.0
1.7035892597050406e-05,-4.9060225137509406e-05,0.0,0.0,0.0
1.738968421705067e-05,-4.897386679658666e-05,0.0,0.0,0.0
1.7228216165676713e-05,-4.8849749873625115e-05,0.0,0.0,0.0
1.7315473087364808e-05,-4.8643662012182176e-05,0.0,0.0,0.0
1.762822830642108e-05,-4.887030445388518e-05,0.0,0.0,0.0
1.7789567209547386e-05,-4.884072404820472e-05,0.0,0.0,0.0
1.7799779016058892e-05,-4.868125688517466e-05,0.0,0.0,0.0
1.7779917470761575e-05,-4.867548341280781e-05,0.0,0.0,0.0
1.8062812159769237e-05,-4.892889046459459e-05,0.0,0.0,0.0
1.8427781469654292e-05,-4.933560558129102e-05,0.0,0.0,0.0
1.849867658165749e-05,-4.94616870128084e-05,0.0,0.0,0.0
1.8237582480651326e-05,-4.947260094922967e-05,0.0,0.0,0.0
1.7862519598565996e-05,-4.906347385258414e-05,0.0,0.0,0.0
1.765413981047459e-05,-4.8970348871080205e-05,0.0,0.0,0.0
1.760202030709479e-05,-4.898113911622204e-05,0.0,0.0,0.0
1.7745074728736654e-05,-4.873266880167648e-05,0.0,0.0,0.0
1.813923336158041e-05,-4.893205550615676e-05,0.0,0.0,0.0
1.7781490896595642e-05,-4.8777674237499014e-05,0.0,0.0,0.0
1.780022466846276e-05,-4.8912457714322954e-05,0.0,0.0,0.0
1.7786067473934963e-05,-4.909753624815494e-05,0.0,0.0,0.0
1.7795815438148566e-05,-4.893932054983452e-05,0.0,0.0,0.0
1.7790258425520733e-05,-4.9072772526415065e-05,0.0,0.0,0.0
1.77918827830581e-05,-4.86961544083897e-05,0.0,0.0,0.0
1.753866126819048e-05,-4.868193354923278e-05,0.0,0.0,0.0
1.742174572427757e-05,-4.8673799028620124e-05,0.0,0.0,0.0
1.725313632050529e-05,-4.867594543611631e-05,0.0,0.0,0.0
1.7292150005232543e-05,-4.867907409789041e-05,0.0,0.0,0.0
1.730929761833977e-05,-4.8671372496755794e-05,0.0,0.0,0.0
1.724938010738697e-05,-4.86829703731928e-05,0.0,0.0,0.0
1.734043689793907e-05,-4.8668120143702254e-05,0.0,0.0,0.0
1.7409041902283207e-05,-4.8685604269849136e-05,0.0,0.0,0.0
1.7526468582218513e-05,-4.8836227506399155e-05,0.0,0.0,0.0
1.737137426971458e-05,-4.902737055090256e-05,0.0,0.0,0.0
1.7847049093688838e-05,-4.8848287406144664e-05,0.0,0.0,0.0
1.7613476302358322e-05,-4.86924582219217e-05,0.0,0.0,0.0
1.748915747157298e-05,-4.866098606726155e-05,0.0,0.0,0.0
1.7552179997437634e-05,-4.880758933722973e-05,0.0,0.0,0.0
1.7684717022348195e-05,-4.89866579300724e-05,0.0,0.0,0.0
1.7575173842487857e-05,-4.893882214673795e-05,0.0,0.0,0.0
1.766177410900127e-05,-4.8675061407266185e-05,0.0,0.0,0.0
1.7374253729940392e-05,-4.875212471233681e-05,0.0,0.0,0.0
1.6900581613299437e-05,-4.898520273854956e-05,0.0,0.0,0.0
1.7467282305005938e-05,-4.9088106607086957e-05,0.0,0.0,0.0
1.7791417121770792e-05,-4.9211248551728204e-05,0.0,0.0,0.0
1.7797083273762837e-05,-4.8853853513719514e-05,0.0,0.0,0.0
1.774093288986478e-05,-4.9132340791402385e-05,0.0,0.0,0.0
1.7215614207088947e-05,-4.8904639697866514e-05,0.0,0.0,0.0
1.7323778592981398e-05,-4.877347600995563e-05,0.0,0.0,0.0
1.7570899217389524e-05,-4.9208356358576566e-05,0.0,0.0,0.0
1.7624326574150473e-05,-4.9119316827272996e-05,0.0,0.0,0.0
1.7908856534631923e-05,-4.899638952338137e-05,0.0,0.0,0.0
1.7695145288598724e-05,-4.849053220823407e-05,0.0,0.0,0.0
1.763673935784027e-05,-4.9288064474239945e-05,0.0,0.0,0.0
1.736962076392956e-05,-4.906640242552385e-05,0.0,0.0,0.0
1.7736776499077678e-05,-4.923742380924523e-05,0.0,0.0,0.0
1.7759033653419465e-05,-4.8965557652991265e-05,0.0,0.0,0.0
1.7813075828598812e-05,-4.8614292609272525e-05,0.0,0.0,0.0
1.778137630026322e-05,-4.8741760110715404e-05,0.0,0.0,0.0
1.779368358256761e-05,-4.860891567659564e-05,0.0,0.0,0.0
1.7638460121816024e-05,-4.890363197773695e-05,0.0,0.0,0.0
1.7591639334568754e-05,-4.879727930529043e-05,0.0,0.0,0.0
1.780825732566882e-05,-4.874275691690855e-05,0.0,0.0,0.0
1.777197394403629e-05,-4.861226989305578e-05,0.0,0.0,0.0
1.7580970961716957e-05,-4.8737005272414535e-05,0.0,0.0,0.0
1.7119755284511484e-05,-4.8725858505349606e-05,0.0,0.0,0.0
1.7030381059157662e-05,-4.904890738544054e-05,0.0,0.0,0.0
1.6879574104677886e-05,-4.889264891971834e-05,0.0,0.0,0.0
1.7094542272388935e-05,-4.865493974648416e-05,0.0,0.0,0.0
1.7138987459475175e-05,-4.8383350076619536e-05,0.0,0.0,0.0
1.7108752217609435e-05,-4.866577728535049e-05,0.0,0.0,0.0
1.7127111277659424e-05,-4.8685582441976294e-05,0.0,0.0,0.0
1.7118512914748862e-05,-4.866767267230898e-05,0.0,0.0,0.0
1.709798743831925e-05,-4.868460018769838e-05,0.0,0.0,0.0
1.6830881577334367e-05,-4.8667930968804285e-05,0.0,0.0,0.0
1.7030568415066227e-05,-4.925917528453283e-05,0.0,0.0,0.0
1.7751730410964228e-05,-4.914428427582607e-05,0.0,0.0,0.0
1.7534799553686753e-05,-4.8649329983163625e-05,0.0,0.0,0.0
1.7670481611276045e-05,-4.897478720522486e-05,0.0,0.0,0.0
1.7856951672001742e-05,-4.901130523649044e-05,0.0,0.0,0.0
1.75046079675667e-05,-4.924157838104293e-05,0.0,0.0,0.0
1.7475191270932555e-05,-4.9380880227545276e-05,0.0,0.0,0.0
1.7229429431608878e-05,-4.910222560283728e-05,0.0,0.0,0.0
1.7113061403506435e-05,-4.92282779305242e-05,0.0,0.0,0.0
1.7319765902357176e-05,-4.915434692520648e-05,0.0,0.0,0.0
1.7640737496549264e-05,-4.918769627693109e-05,0.0,0.0,0.0
1.762776810210198e-05,-4.9355126975569874e-05,0.0,0.0,0.0
1.7286578440689482e-05,-4.934632670483552e-05,0.0,0.0,0.0
1.7574864614289254e-05,-4.9343929276801646e-05,0.0,0.0,0.0
1.7976639355765656e-05,-4.935559263685718e-05,0.0,0.0,0.0
1.7808935808716342e-05,-4.920882565784268e-05,0.0,0.0,0.0
1.7777076209313236e-05,-4.8917485401034355e-05,0.0,0.0,0.0
1.780501042958349e-05,-4.866513700108044e-05,0.0,0.0,0.0
1.7685219063423574e-05,-4.868924224865623e-05,0.0,0.0,0.0
1.7484249838162214e-05,-4.866211020271294e-05,0.0,0.0,0.0
1.743286702549085e-05,-4.869111216976307e-05,0.0,0.0,0.0
1.753945616655983e-05,-4.872506906394847e-05,0.0,0.0,0.0
1.7747835954651237e-05,-4.8944966692943126e-05,0.0,0.0,0.0
1.7828457202995196e-05,-4.8718331527197734e-05,0.0,0.0,0.0
1.77625915966928e-05,-4.8642126785125583e-05,0.0,0.0,0.0
1.777260513335932e-05,-4.8724858061177656e-05,0.0,0.0,0.0
1.7186952391057275e-05,-4.894863741355948e-05,0.0,0.0,0.0
1.706216426100582e-05,-4.8776746552903205e-05,0.0,0.0,0.0
1.744829751260113e-05,-4.8316829634131864e-05,0.0,0.0,0.0
1.7449649021727964e-05,-4.8636095016263425e-05,0.0,0.0,0.0
1.7207805285579525e-05,-4.868853648076765e-05,0.0,0.0,0.0
1.7082840713555925e-05,-4.866337985731661e-05,0.0,0.0,0.0
1.7153059161501005e-05,-4.8689395043766126e-05,0.0,0.0,0.0
1.709310345177073e-05,-4.866331073571928e-05,0.0,0.0,0.0
1.6718244296498597e-05,-4.868879841524176e-05,0.0,0.0,0.0
1.6596693967585452e-05,-4.866445669904351e-05,0.0,0.0,0.0
1.7035579730872996e-05,-4.887863542535342e-05,0.0,0.0,0.0
1.708404852251988e-05,-4.883250221610069e-05,0.0,0.0,0.0
1.731913107505534e-05,-4.8667956434655935e-05,0.0,0.0,0.0
1.7280306565226056e-05,-4.868251198786311e-05,0.0,0.0,0.0
1.7428195860702544e-05,-4.8671747208572924e-05,0.0,0.0,0.0
1.7505853975308128e-05,-4.8679463361622766e-05,0.0,0.0,0.0
1.7392456356901675e-05,-4.867415191256441e-05,0.0,0.0,0.0
1.7762520656106062e-05,-4.8794598114909604e-05,0.0,0.0,0.0
1.770894778019283e-05,-4.8892830818658695e-05,0.0,0.0,0.0
1.7453881810070015e-05,-4.870237535214983e-05,0.0,0.0,0.0
1.7456170098739676e-05,-4.865415030508302e-05,0.0,0.0,0.0
1.7384167222189717e-05,-4.869490294368006e-05,0.0,0.0,0.0
1.726954178593587e-05,-4.8660749598639086e-05,0.0,0.0,0.0
1.77185775100952e-05,-4.8689096729503945e-05,0.0,0.0,0.0
1.780985257937573e-05,-4.870837801718153e-05,0.0,0.0,0.0
1.7474776541348547e-05,-4.898507904727012e-05,0.0,0.0,0.0
1.771938696037978e-05,-4.901402644463815e-05,0.0,0.0,0.0
1.723285276966635e-05,-4.8698217142373323e-05,0.0,0.0,0.0
1.7023075997713022e-05,-4.894481389783323e-05,0.0,0.0,0.0
1.775758937583305e-05,-4.879217885900289e-05,0.0,0.0,0.0
1.753024298523087e-05,-4.85912460135296e-05,0.0,0.0,0.0
1.7929260138771497e-05,-4.874659498455003e-05,0.0,0.0,0.0
1.8220993297290988e-05,-4.8619160224916413e-05,0.0,0.0,0.0
1.7816601030062884e-05,-4.895560414297506e-05,0.0,0.0,0.0
1.7830294382292777e-05,-4.9001522711478174e-05,0.0,0.0,0.0
1.7336986275040545e-05,-4.901741704088636e-05,0.0,0.0,0.0
1.7511170881334692e-05,-4.901079591945745e-05,0.0,0.0,0.0
1.7834987374953926e-05,-4.881817949353717e-05,0.0,0.0,0.0
1.7754126020008698e-05,-4.867036113864742e-05,0.0,0.0,0.0
1.7995243979385123e-05,-4.8848010919755325e-05,0.0,0.0,0.0
1.7944250430446118e-05,-4.885905218543485e-05,0.0,0.0,0.0
1.796029209799599e-05,-4.881536733591929e-05,0.0,0.0,0.0
1.7970702174352482e-05,-4.888246257905848e-05,0.0,0.0,0.0
1.806875843612943e-05,-4.892746437690221e-05,0.0,0.0,0.0
1.8193650248576887e-05,-4.9101316108135507e-05,0.0,0.0,0.0
1.774031261447817e-05,-4.870980774285272e-05,0.0,0.0,0.0
1.7329513866570778e-05,-4.864856236963533e-05,0.0,0.0,0.0
1.716506994853262e-05,-4.869889744441025e-05,0.0,0.0,0.0
1.708376657916233e-05,-4.858366082771681e-05,0.0,0.0,0.0
1.7150581697933376e-05,-4.844403883907944e-05,0.0,0.0,0.0
1.7096890587708913e-05,-4.8668254748918116e-05,0.0,0.0,0.0
1.7138772818725556e-05,-4.898812767351046e-05,0.0,0.0,0.0
1.710743708827067e-05,-4.8697413149056956e-05,0.0,0.0,0.0
1.7129434127127752e-05,-4.8656609578756616e-05,0.0,0.0,0.0
1.7115626178565435e-05,-4.869439726462588e-05,0.0,0.0,0.0
1.712233279249631e-05,-4.894691664958373e-05,0.0,0.0,0.0
1.7121705241152085e-05,-4.879141124547459e-05,0.0,0.0,0.0
1.791482645785436e-05,-4.8591013182885945e-05,0.0,0.0,0.0
1.7981112250708975e-05,-4.874754449701868e-05,0.0,0.0,0.0
1.766792956914287e-05,-4.861773777520284e-05,0.0,0.0,0.0
1.7428652427042834e-05,-4.8723333748057485e-05,0.0,0.0,0.0
1.6761498045525514e-05,-4.8862872063182294e-05,0.0,0.0,0.0
1.7087953892769292e-05,-4.906069079879671e-05,0.0,0.0,0.0
1.74704946402926e-05,-4.877293395111337e-05,0.0,0.0,0.0
1.7862123058876023e-05,-4.868839096161537e-05,0.0,0.0,0.0
1.7738666429067962e-05,-4.9032256356440485e-05,0.0,0.0,0.0
1.8000755517277867e-05,-4.93635016027838e-05,0.0,0.0,0.0
1.810661342460662e-05,-4.9179972847923636e-05,0.0,0.0,0.0
1.828750828281045e-05,-4.916130274068564e-05,0.0,0.0,0.0
1.8182616258854978e-05,-4.921190338791348e-05,0.0,0.0,0.0
1.7799740817281418e-05,-4.888311741524376e-05,0.0,0.0,0.0
1.7791609934647568e-05,-4.88071636937093e-05,0.0,0.0,0.0
1.7680033124634065e-05,-4.89840422233101e-05,0.0,0.0,0.0
1.7482208932051435e-05,-4.913532029604539e-05,0.0,0.0,0.0
1.7513870261609554e-05,-4.91319369757548e-05,0.0,0.0,0.0
1.772399446053896e-05,-4.883649307885207e-05,0.0,0.0,0.0
1.7407932318747044e-05,-4.884745430899784e-05,0.0,0.0,0.0
1.7193400708492845e-05,-4.8792058805702254e-05,0.0,0.0,0.0
1.736126432660967e-05,-4.85774471599143e-05,0.0,0.0,0.0
1.7235824998351745e-05,-4.875949161942117e-05,0.0,0.0,0.0
1.7323103747912683e-05,-4.8586120101390406e-05,0.0,0.0,0.0
1.725912261463236e-05,-4.843833085033111e-05,0.0,0.0,0.0
1.7290001778746955e-05,-4.854822691413574e-05,0.0,0.0,0.0
1.7319569451501593e-05,-4.8780388169689104e-05,0.0,0.0,0.0
1.670149140409194e-05,-4.859370528720319e-05,0.0,0.0,0.0
1.7130712876678444e-05,-4.8994854296324775e-05,0.0,0.0,0.0
1.7080967154470272e-05,-4.92414110340178e-05,0.0,0.0,0.0
1.7147785911220126e-05,-4.914689270663075e-05,0.0,0.0,0.0
1.6657806554576382e-05,-4.8967332986649126e-05,0.0,0.0,0.0
1.6413456251029857e-05,-4.882857683696784e-05,0.0,0.0,0.0
1.6486033928231336e-05,-4.86423923575785e-05,0.0,0.0,0.0
1.679476918070577e-05,-4.86957942484878e-05,0.0,0.0,0.0
1.699954918876756e-05,-4.848821845371276e-05,0.0,0.0,0.0
1.7232296158908866e-05,-4.849985634791665e-05,0.0,0.0,0.0
1.7543776266393252e-05,-4.869868644163944e-05,0.0,0.0,0.0
1.7353811927023344e-05,-4.879827247350477e-05,0.0,0.0,0.0
1.7566899259691127e-05,-4.890178024652414e-05,0.0,0.0,0.0
1.721587250358425e-05,-4.8651418182998896e-05,0.0,0.0,0.0
1.735665136948228e-05,-4.8702975618653e-05,0.0,0.0,0.0
1.711998993414454e-05,-4.875499871559441e-05,0.0,0.0,0.0
1.721444641589187e-05,-4.8928679461823776e-05,0.0,0.0,0.0
1.7441765521652997e-05,-4.876594903180376e-05,0.0,0.0,0.0
1.739176150294952e-05,-4.8914582293946296e-05,0.0,0.0,0.0
1.7331634808215313e-05,-4.871855708188377e-05,0.0,0.0,0.0
1.796917786123231e-05,-4.869587064604275e-05,0.0,0.0,0.0
1.7916148863150738e-05,-4.9006212066160515e-05,0.0,0.0,0.0
1.7684858903521672e-05,-4.901912689092569e-05,0.0,0.0,0.0
1.7841133740148507e-05,-4.8982783482642844e-05,0.0,0.0,0.0
1.7126918464782648e-05,-4.872638965025544e-05,0.0,0.0,0.0
1.740151856211014e-05,-4.8919886467047036e-05,0.0,0.0,0.0
1.72270301845856e-05,-4.9366772145731375e-05,0.0,0.0,0.0
1.757432983140461e-05,-4.9319951358484104e-05,0.0,0.0,0.0
1.7415895854355767e-05,-4.911461292067543e-05,0.0,0.0,0.0
1.6946833056863397e-05,-4.920846185996197e-05,0.0,0.0,0.0
1.7731435946188867e-05,-4.894569065072574e-05,0.0,0.0,0.0
1.7725824363878928e-05,-4.857507883571088e-05,0.0,0.0,0.0
1.784178130037617e-05,-4.875687227468006e-05,0.0,0.0,0.0
1.7554611986270174e-05,-4.861414709012024e-05,0.0,0.0,0.0
1.7656046111369506e-05,-4.8722005885792896e-05,0.0,0.0,0.0
1.798392622731626e-05,-4.864501170231961e-05,0.0,0.0,0.0
1.794951458577998e-05,-4.869494296144694e-05,0.0,0.0,0.0
1.7800759451347403e-05,-4.8668480303604156e-05,0.0,0.0,0.0
1.777816578396596e-05,-4.8674846766516566e-05,0.0,0.0,0.0
1.767161302268505e-05,-4.868542600888759e-05,0.0,0.0,0.0
1.7313270291197114e-05,-4.8660825996194035e-05,0.0,0.0,0.0
1.7147463950095698e-05,-4.881372660747729e-05,0.0,0.0,0.0
1.6986730770440772e-05,-4.886929673375562e-05,0.0,0.0,0.0
1.6827872968860902e-05,-4.8729063564678654e-05,0.0,0.0,0.0
1.6659612811054103e-05,-4.862542118644342e-05,0.0,0.0,0.0
1.658289875194896e-05,-4.872469071415253e-05,0.0,0.0,0.0
1.689826967776753e-05,-4.8630754463374615e-05,0.0,0.0,0.0
1.7667742213234305e-05,-4.882492430624552e-05,0.0,0.0,0.0
1.719909232633654e-05,-4.915989120490849e-05,0.0,0.0,0.0
1.705458271317184e-05,-4.883616929873824e-05,0.0,0.0,0.0
1.717566919978708e-05,-4.853972131968476e-05,0.0,0.0,0.0
1.707525188976433e-05,-4.879129119217396e-05,0.0,0.0,0.0
1.715753023745492e-05,-4.886820534011349e-05,0.0,0.0,0.0
1.709107164060697e-05,-4.91301943839062e-05,0.0,0.0,0.0
1.740969491947908e-05,-4.865107621299103e-05,0.0,0.0,0.0
1.7217758795595728e-05,-4.871597411693074e-05,0.0,0.0,0.0
1.7563143046572804e-05,-4.9138769099954516e-05,0.0,0.0,0.0
1.7419884898117743e-05,-4.918458216707222e-05,0.0,0.0,0.0
1.743796019582078e-05,-4.893592995358631e-05,0.0,0.0,0.0
1.794128183973953e-05,-4.906690082862042e-05,0.0,0.0,0.0
1.767024332366418e-05,-4.9177637265529484e-05,0.0,0.0,0.0
1.7889062291942537e-05,-4.9191108701052144e-05,0.0,0.0,0.0
1.7717080481816083e-05,-4.880144842900336e-05,0.0,0.0,0.0
1.784735286491923e-05,-4.885235466645099e-05,0.0,0.0,0.0
1.7594400560483336e-05,-4.8863097617868334e-05,0.0,0.0,0.0
1.7627056877245195e-05,-4.86554745293688e-05,0.0,0.0,0.0
1.7780565030989237e-05,-4.856548912357539e-05,0.0,0.0,0.0
1.779281228664331e-05,-4.8441081162309274e-05,0.0,0.0,0.0
1.7800135537981987e-05,-4.869890108238906e-05,0.0,0.0,0.0
1.7670261513558216e-05,-4.886233000434004e-05,0.0,0.0,0.0
1.749289731378667e-05,-4.915492900181562e-05,0.0,0.0,0.0
1.7417485651094466e-05,-4.8794023314258084e-05,0.0,0.0,0.0
1.7570831914781593e-05,-4.889295814791694e-05,0.0,0.0,0.0
1.7726310034049675e-05,-4.873454599874094e-05,0.0,0.0,0.0
1.780030106601771e-05,-4.8684756620787084e-05,0.0,0.0,0.0
1.7388876585755497e-05,-4.9013153329724446e-05,0.0,0.0,0.0
1.7244610717170872e-05,-4.898379847873002e-05,0.0,0.0,0.0
1.7660628145677038e-05,-4.870745033258572e-05,0.0,0.0,0.0
1.7905624190461822e-05,-4.865365190198645e-05,0.0,0.0,0.0
1.712076846160926e-05,-4.869182885158807e-05,0.0,0.0,0.0
1.711995355435647e-05,-4.894300946034491e-05,0.0,0.0,0.0
1.685618371993769e-05,-4.878903564531356e-05,0.0,0.0,0.0
1.7003354514599778e-05,-4.860874832957052e-05,0.0,0.0,0.0
1.7183878298965283e-05,-4.872975841863081e-05,0.0,0.0,0.0
1.6832638721098192e-05,-4.8634930863045156e-05,0.0,0.0,0.0
1.6806288840598427e-05,-4.893057848676108e-05,0.0,0.0,0.0
1.6766622138675302e-05,-4.901097054244019e-05,0.0,0.0,0.0
1.6800635421532206e-05,-4.8807167331688106e-05,0.0,0.0,0.0
1.696282379270997e-05,-4.88587720610667e-05,0.0,0.0,0.0
1.7324315194855444e-05,-4.884673762717284e-05,0.0,0.0,0.0
1.7274694982916117e-05,-4.865850496571511e-05,0.0,0.0,0.0
1.712594530545175e-05,-4.868795076617971e-05,0.0,0.0,0.0
1.7413432942703366e-05,-4.866962262894958e-05,0.0,0.0,0.0
1.7516074876766652e-05,-4.8678888560971245e-05,0.0,0.0,0.0
1.7130851119873114e-05,-4.854924191022292e-05,0.0,0.0,0.0
1.7111706256400794e-05,-4.8463269195053726e-05,0.0,0.0,0.0
1.7128262697951868e-05,-4.876780803897418e-05,0.0,0.0,0.0
1.7018497601384297e-05,-4.8911795602180064e-05,0.0,0.0,0.0
1.6893927750061266e-05,-4.870044722338207e-05,0.0,0.0,0.0
1.7078516975743696e-05,-4.872869612881914e-05,0.0,0.0,0.0
1.728360257402528e-05,-4.894262019661255e-05,0.0,0.0,0.0
1.770551170920953e-05,-4.8709011025493965e-05,0.0,0.0,0.0
1.7864374967757612e-05,-4.864894799538888e-05,0.0,0.0,0.0
1.773245276126545e-05,-4.866701056016609e-05,0.0,0.0,0.0
1.7840095097199082e-05,-4.833933780901134e-05,0.0,0.0,0.0
1.7754196960595436e-05,-4.8029171011876315e-05,0.0,0.0,0.0
1.7820755601860583e-05,-4.827180237043649e-05,0.0,0.0,0.0
1.7218255379702896e-05,-4.867485404247418e-05,0.0,0.0,0.0
1.7590649804333225e-05,-4.8666115617379546e-05,0.0,0.0,0.0
1.791609793144744e-05,-4.842870475840755e-05,0.0,0.0,0.0
1.744097244227305e-05,-4.8548507038503885e-05,0.0,0.0,0.0
1.7518796084914356e-05,-4.87338074890431e-05,0.0,0.0,0.0
1.7180611393996514e-05,-4.862954301643185e-05,0.0,0.0,0.0
1.7355327145196497e-05,-4.8713452997617424e-05,0.0,0.0,0.0
1.7254837075597607e-05,-4.844547584070824e-05,0.0,0.0,0.0
1.729574978526216e-05,-4.834743231185712e-05,0.0,0.0,0.0
1.7843924069893546e-05,-4.851836638408713e-05,0.0,0.0,0.0
1.795068419596646e-05,-4.8683967179385945e-05,0.0,0.0,0.0
1.7634753021411598e-05,-4.8353667807532474e-05,0.0,0.0,0.0
1.7303040294791572e-05,-4.830030957236886e-05,0.0,0.0,0.0
1.6989164578262717e-05,-4.839989560423419e-05,0.0,0.0,0.0
1.6910975318751298e-05,-4.82691393699497e-05,0.0,0.0,0.0
1.6997197235468775e-05,-4.865232767770067e-05,0.0,0.0,0.0
1.690801582299173e-05,-4.858951433561742e-05,0.0,0.0,0.0
1.6996011254377663e-05,-4.843587885261513e-05,0.0,0.0,0.0
1.682743641140405e-05,-4.865691880695522e-05,0.0,0.0,0.0
1.682413312664721e-05,-4.869374606641941e-05,0.0,0.0,0.0
1.7123997167800553e-05,-4.8660702304914594e-05,0.0,0.0,0.0
1.7119313270086423e-05,-4.869000258622691e-05,0.0,0.0,0.0
1.7162717995233834e-05,-4.8664365749573335e-05,0.0,0.0,0.0
1.739104845910333e-05,-4.868644828093238e-05,0.0,0.0,0.0
1.7186028344440274e-05,-4.866777453571558e-05,0.0,0.0,0.0
1.7066928194253705e-05,-4.868321047979407e-05,0.0,0.0,0.0
1.7163853044621646e-05,-4.8957965191220865e-05,0.0,0.0,0.0
1.7086684238165617e-05,-4.90571437694598e-05,0.0,0.0,0.0
1.714637255645357e-05,-4.897484541288577e-05,0.0,0.0,0.0
1.7102031051763333e-05,-4.929709393763915e-05,0.0,0.0,0.0
1.7133015717263333e-05,-4.935542165185325e-05,0.0,0.0,0.0
1.7581471183802933e-05,-4.910536881652661e-05,0.0,0.0,0.0
1.7396918337908573e-05,-4.899626947008073e-05,0.0,0.0,0.0
1.7038744772435166e-05,-4.881057975580916e-05,0.0,0.0,0.0
1.7386853869538754e-05,-4.885306043433957e-05,0.0,0.0,0.0
1.7613676391192712e-05,-4.8853940825210884e-05,0.0,0.0,0.0
1.782625804480631e-05,-4.900144267594442e-05,0.0,0.0,0.0
1.7769252735888585e-05,-4.922052175970748e-05,0.0,0.0,0.0
1.7964510334422812e-05,-4.897543476545252e-05,0.0,0.0,0.0
1.797535878722556e-05,-4.888904368272051e-05,0.0,0.0,0.0
1.7514659703010693e-05,-4.86615790578071e-05,0.0,0.0,0.0
1.7392769223079085e-05,-4.893844743492082e-05,0.0,0.0,0.0
1.77547426574165e-05,-4.921287109027617e-05,0.0,0.0,0.0
1.7829037460614927e-05,-4.903414082946256e-05,0.0,0.0,0.0
1.7564445442985743e-05,-4.890225318376906e-05,0.0,0.0,0.0
1.7277812730753794e-05,-4.878716208622791e-05,0.0,0.0,0.0
1.7369489796692505e-05,-4.889819319942035e-05,0.0,0.0,0.0
1.7596570614841767e-05,-4.8730526032159105e-05,0.0,0.0,0.0
1.7696844224701636e-05,-4.86347489641048e-05,0.0,0.0,0.0
1.7873502656584606e-05,-4.870680277235806e-05,0.0,0.0,0.0
1.7723279597703367e-05,-4.8655198042979464e-05,0.0,0.0,0.0
1.780642560333945e-05,-4.866809831582941e-05,0.0,0.0,0.0
1.7158357877633534e-05,-4.837609230889939e-05,0.0,0.0,0.0
1.7372964066453278e-05,-4.8018864617915824e-05,0.0,0.0,0.0
1.7253029000130482e-05,-4.827347584068775e-05,0.0,0.0,0.0
1.7018861399265006e-05,-4.811541293747723e-05,0.0,0.0,0.0
1.7207783457706682e-05,-4.8450448957737535e-05,0.0,0.0,0.0
1.7046650100382976e-05,-4.903356239083223e-05,0.0,0.0,0.0
1.7416696209693328e-05,-4.871606142842211e-05,0.0,0.0,0.0
1.72059972101124e-05,-4.869828262599185e-05,0.0,0.0,0.0
1.6695714293746278e-05,-4.866348172072321e-05,0.0,0.0,0.0
1.6818259609863162e-05,-4.8681416956242174e-05,0.0,0.0,0.0
1.7177755580632947e-05,-4.8677411541575566e-05,0.0,0.0,0.0
1.7255559214390814e-05,-4.867013922194019e-05,0.0,0.0,0.0
1.7670230590738356e-05,-4.88564619445242e-05,0.0,0.0,0.0
1.760358463798184e-05,-4.8844107368495315e-05,0.0,0.0,0.0
1.762484862410929e-05,-4.898414044873789e-05,0.0,0.0,0.0
1.7638558347243816e-05,-4.919263665215112e-05,0.0,0.0,0.0
1.7343651052215137e-05,-4.890809941571206e-05,0.0,0.0,0.0
1.735377918521408e-05,-4.8661051550880075e-05,0.0,0.0,0.0
1.7658951037446968e-05,-4.869227632298134e-05,0.0,0.0,0.0
1.7497854059911333e-05,-4.87558136228472e-05,0.0,0.0,0.0
1.733276258164551e-05,-4.8924102884484455e-05,0.0,0.0,0.0
1.7252425095648505e-05,-4.8773494199849665e-05,0.0,0.0,0.0
1.750766568875406e-05,-4.903240915155038e-05,0.0,0.0,0.0
1.808365595934447e-05,-4.935470860800706e-05,0.0,0.0,0.0
1.7815467799664475e-05,-4.934301250614226e-05,0.0,0.0,0.0
1.777267243596725e-05,-4.931860894430429e-05,0.0,0.0,0.0
1.7765270968084224e-05,-4.902783257421106e-05,0.0,0.0,0.0
1.719172541925218e-05,-4.868600080953911e-05,0.0,0.0,0.0
1.7346890672342852e-05,-4.8955411330098286e-05,0.0,0.0,0.0
1.7825346731115133e-05,-4.90597085445188e-05,0.0,0.0,0.0
1.77526908373693e-05,-4.8706209781812504e-05,0.0,0.0,0.0
1.782359140634071e-05,-4.867481766268611e-05,0.0,0.0,0.0
1.7767446479410864e-05,-4.867810275754891e-05,0.0,0.0,0.0
1.757635618560016e-05,-4.890827040071599e-05,0.0,0.0,0.0
1.7419106370653026e-05,-4.903843000647612e-05,0.0,0.0,0.0
1.769719528965652e-05,-4.87771030748263e-05,0.0,0.0,0.0
1.7385546016157605e-05,-4.847459786105901e-05,0.0,0.0,0.0
1.7472873878432438e-05,-4.851766425417736e-05,0.0,0.0,0.0
1.8023998563876376e-05,-4.8879519454203546e-05,0.0,0.0,0.0
1.792018701962661e-05,-4.9172405852004886e-05,0.0,0.0,0.0
1.7501726688351482e-05,-4.935912147630006e-05,0.0,0.0,0.0
1.7241156456293538e-05,-4.9041951569961384e-05,0.0,0.0,0.0
1.7340678823529743e-05,-4.882356370217167e-05,0.0,0.0,0.0
1.7234382539754733e-05,-4.8872778279474005e-05,0.0,0.0,0.0
1.7341972124995664e-05,-4.86934841319453e-05,0.0,0.0,0.0
1.7131202184827998e-05,-4.866292510996573e-05,0.0,0.0,0.0
1.7110633052652702e-05,-4.868624819209799e-05,0.0,0.0,0.0
1.713006895442959e-05,-4.866926610702649e-05,0.0,0.0,0.0
