1.837937998061534e-05,-4.90294441988226e-05,0.0,0.0,0.0
1.8534403352532536e-05,-4.899681152892299e-05,0.0,0.0,0.0
1.813835115171969e-05,-4.90252859890461e-05,0.0,0.0,0.0
1.8141869077226147e-05,-4.874492151429877e-05,0.0,0.0,0.0
1.8361926777288318e-05,-4.890040509053506e-05,0.0,0.0,0.0
1.8264374375576153e-05,-4.905598325422034e-05,0.0,0.0,0.0
1.8075794287142344e-05,-4.94232663186267e-05,0.0,0.0,0.0
1.795620482880622e-05,-4.975322735845111e-05,0.0,0.0,0.0
1.7742500858730637e-05,-4.982987593393773e-05,0.0,0.0,0.0
1.8212962459074333e-05,-4.988491127733141e-05,0.0,0.0,0.0
1.8457772966939956e-05,-4.962886305293068e-05,0.0,0.0,0.0
1.8294211258762516e-05,-4.97235196235124e-05,0.0,0.0,0.0
1.8126109353033826e-05,-4.9655856855679303e-05,0.0,0.0,0.0
1.8274056856171228e-05,-4.969990550307557e-05,0.0,0.0,0.0
1.8605534933158197e-05,-4.9952792323892936e-05,0.0,0.0,0.0
1.8914686734206043e-05,-5.034306013840251e-05,0.0,0.0,0.0
1.9256676750956103e-05,-5.025493373977952e-05,0.0,0.0,0.0
1.9345066903042607e-05,-5.022237746743485e-05,0.0,0.0,0.0
1.8977802028530277e-05,-5.086547389510088e-05,0.0,0.0,0.0
1.8468936104909517e-05,-5.116257307236083e-05,0.0,0.0,0.0
1.8460672436049208e-05,-5.076497109257616e-05,0.0,0.0,0.0
1.8527744032326154e-05,-5.0621874834178016e-05,0.0,0.0,0.0
1.882487595139537e-05,-5.080624032416381e-05,0.0,0.0,0.0
1.9124649043078534e-05,-5.0895097956527025e-05,0.0,0.0,0.0
1.9113082089461386e-05,-5.0803457270376384e-05,0.0,0.0,0.0
1.8806516891345382e-05,-5.059313480160199e-05,0.0,0.0,0.0
1.848209649324417e-05,-5.0773211114574224e-05,0.0,0.0,0.0
1.9020728359464556e-05,-5.0334117986494675e-05,0.0,0.0,0.0
1.867916580522433e-05,-5.037042501498945e-05,0.0,0.0,0.0
1.8305881894775666e-05,-5.007789877709001e-05,0.0,0.0,0.0
1.8594439097796567e-05,-5.0246580940438434e-05,0.0,0.0,0.0
1.860099109762814e-05,-5.0411810661898926e-05,0.0,0.0,0.0
1.9146322301821783e-05,-5.007059371564537e-05,0.0,0.0,0.0
1.9070010239374824e-05,-4.9591970309847966e-05,0.0,0.0,0.0
1.875704765552655e-05,-4.9499918532092124e-05,0.0,0.0,0.0
1.839519609347917e-05,-4.995522249373607e-05,0.0,0.0,0.0
1.8703780369833112e-05,-4.959170473739505e-05,0.0,0.0,0.0
1.8597407688503154e-05,-4.9362679419573396e-05,0.0,0.0,0.0
1.8463964806869626e-05,-4.916481702821329e-05,0.0,0.0,0.0
1.8471915609552525e-05,-4.885857197223231e-05,0.0,0.0,0.0
1.859639451140538e-05,-4.881860877503641e-05,0.0,0.0,0.0
1.8680604625842534e-05,-4.887707837042399e-05,0.0,0.0,0.0
1.844444159360137e-05,-4.8679212341085076e-05,0.0,0.0,0.0
1.8486411136109382e-05,-4.879020343651064e-05,0.0,0.0,0.0
1.833120040828362e-05,-4.910939242108725e-05,0.0,0.0,0.0
1.8170800103689544e-05,-4.933960735797882e-05,0.0,0.0,0.0
1.808587330742739e-05,-4.9440073780715466e-05,0.0,0.0,0.0
1.8167733287555166e-05,-4.965479820384644e-05,0.0,0.0,0.0
1.8153827113565058e-05,-4.97717919643037e-05,0.0,0.0,0.0
1.846976920205634e-05,-4.996947609470226e-05,0.0,0.0,0.0
1.845576844061725e-05,-4.9975948059000075e-05,0.0,0.0,0.0
1.847174462454859e-05,-4.9447029596194625e-05,0.0,0.0,0.0
1.8454931705491617e-05,-4.986825297237374e-05,0.0,0.0,0.0
1.8471628209226765e-05,-4.952390008838847e-05,0.0,0.0,0.0
1.8455833924235776e-05,-4.977303251507692e-05,0.0,0.0,0.0
1.8746601199381985e-05,-5.022542245569639e-05,0.0,0.0,0.0
1.856544076872524e-05,-4.9848582420963794e-05,0.0,0.0,0.0
1.8401769921183586e-05,-5.0412574637448415e-05,0.0,0.0,0.0
1.8515062038204633e-05,-5.0521004595793784e-05,0.0,0.0,0.0
1.8420581909595057e-05,-5.0776299758581445e-05,0.0,0.0,0.0
1.8721864762483165e-05,-5.0627102609723806e-05,0.0,0.0,0.0
1.9004584828508087e-05,-5.115960448165424e-05,0.0,0.0,0.0
1.9157665519742295e-05,-5.0966660637641326e-05,0.0,0.0,0.0
1.911680374178104e-05,-5.064416109235026e-05,0.0,0.0,0.0
1.932947816385422e-05,-5.055756992078386e-05,0.0,0.0,0.0
1.92978677659994e-05,-5.046855585533194e-05,0.0,0.0,0.0
1.9131299268337898e-05,-5.0749629735946655e-05,0.0,0.0,0.0
1.9138453353662044e-05,-5.0634647777769715e-05,0.0,0.0,0.0
1.9131235603708774e-05,-5.060431067249738e-05,0.0,0.0,0.0
1.9010563846677542e-05,-5.018448791815899e-05,0.0,0.0,0.0
1.8921773516922258e-05,-5.006682113162242e-05,0.0,0.0,0.0
1.8905137039837427e-05,-4.9976286391029134e-05,0.0,0.0,0.0
1.8604574506753124e-05,-4.996116695110686e-05,0.0,0.0,0.0
1.882645119621884e-05,-4.966918277204968e-05,0.0,0.0,0.0
1.9013190467376262e-05,-4.96954562549945e-05,0.0,0.0,0.0
1.8491189621272497e-05,-4.9545877118362114e-05,0.0,0.0,0.0
1.838611024140846e-05,-4.9076887080445886e-05,0.0,0.0,0.0
1.8222957805846818e-05,-4.90004604216665e-05,0.0,0.0,0.0
1.8415315935271792e-05,-4.932453884975985e-05,0.0,0.0,0.0
1.8806615116773173e-05,-4.902434011455625e-05,0.0,0.0,0.0
1.8482140148989856e-05,-4.8686993977753446e-05,0.0,0.0,0.0
1.844611506385263e-05,-4.895689926343039e-05,0.0,0.0,0.0
1.847934618126601e-05,-4.905581954517402e-05,0.0,0.0,0.0
1.844881262513809e-05,-4.8978243285091594e-05,0.0,0.0,0.0
1.8476741388440132e-05,-4.9291931645711884e-05,0.0,0.0,0.0
1.8451330106472597e-05,-4.9117454182123765e-05,0.0,0.0,0.0
1.84743130375864e-05,-4.9435948312748224e-05,0.0,0.0,0.0
1.8453667507856153e-05,-4.977298522135243e-05,0.0,0.0,0.0
1.8259368516737595e-05,-4.981799065717496e-05,0.0,0.0,0.0
1.7900218153954484e-05,-4.990228990209289e-05,0.0,0.0,0.0
1.7990278138313442e-05,-4.978787183063105e-05,0.0,0.0,0.0
1.8314047338208184e-05,-5.010290624340996e-05,0.0,0.0,0.0
1.846670602390077e-05,-5.012037945562042e-05,0.0,0.0,0.0
1.8460805222275667e-05,-5.041468466515653e-05,0.0,0.0,0.0
1.846539817051962e-05,-5.0159029342466965e-05,0.0,0.0,0.0
1.873852488643024e-05,-5.019464515498839e-05,0.0,0.0,0.0
1.8869643099606037e-05,-5.032238914282061e-05,0.0,0.0,0.0
1.8607031961437315e-05,-5.049446190241724e-05,0.0,0.0,0.0
1.8763434127322398e-05,-5.077050445834175e-05,0.0,0.0,0.0
1.873464680102188e-05,-5.112389408168383e-05,0.0,0.0,0.0
1.8454935343470424e-05,-5.134670573170297e-05,0.0,0.0,0.0
1.8396434825262986e-05,-5.136972322361544e-05,0.0,0.0,0.0
1.8337943402002566e-05,-5.1360206271056086e-05,0.0,0.0,0.0
1.89266684174072e-05,-5.125201278133318e-05,0.0,0.0,0.0
1.8613562133396044e-05,-5.0762115279212594e-05,0.0,0.0,0.0
1.8337064830120653e-05,-5.0593229389050975e-05,0.0,0.0,0.0
1.861078999354504e-05,-5.047377271694131e-05,0.0,0.0,0.0
1.8965503841172904e-05,-5.056276131654158e-05,0.0,0.0,0.0
1.8699684005696326e-05,-5.051340122008696e-05,0.0,0.0,0.0
1.8269134670845233e-05,-5.0219921831740066e-05,0.0,0.0,0.0
1.8620072296471335e-05,-5.020196840632707e-05,0.0,0.0,0.0
1.859551230154466e-05,-4.9891412345459685e-05,0.0,0.0,0.0
1.8679138520383276e-05,-4.9878428399097174e-05,0.0,0.0,0.0
1.8342187104281038e-05,-4.9339003453496844e-05,0.0,0.0,0.0
1.8552700566942804e-05,-4.9633163143880665e-05,0.0,0.0,0.0
1.840196637203917e-05,-4.965940388501622e-05,0.0,0.0,0.0
1.8500870282878168e-05,-4.949391950503923e-05,0.0,0.0,0.0
1.863783472799696e-05,-4.913890370517038e-05,0.0,0.0,0.0
1.881016396509949e-05,-4.9007263442035764e-05,0.0,0.0,0.0
1.8634087609825656e-05,-4.9023885367205366e-05,0.0,0.0,0.0
1.84405071195215e-05,-4.883466681349091e-05,0.0,0.0,0.0
1.8346996512264013e-05,-4.899526902590878e-05,0.0,0.0,0.0
1.822834565246012e-05,-4.9041798774851486e-05,0.0,0.0,0.0
1.8373271814198233e-05,-4.8974452511174604e-05,0.0,0.0,0.0
1.82119201781461e-05,-4.9286740249954164e-05,0.0,0.0,0.0
1.8274979083798826e-05,-4.940610597259365e-05,0.0,0.0,0.0
1.779482226993423e-05,-4.9483682232676074e-05,0.0,0.0,0.0
1.7795800886233337e-05,-5.003371916245669e-05,0.0,0.0,0.0
1.778330624802038e-05,-5.000271994504146e-05,0.0,0.0,0.0
1.7931834008777514e-05,-5.0036393076879904e-05,0.0,0.0,0.0
1.839171272877138e-05,-5.000142482458614e-05,0.0,0.0,0.0
1.8485125110601075e-05,-5.007904474041425e-05,0.0,0.0,0.0
1.8106313291355036e-05,-5.0302733143325895e-05,0.0,0.0,0.0
1.8125658243661746e-05,-5.037912342231721e-05,0.0,0.0,0.0
1.7817303159972653e-05,-5.002158650313504e-05,0.0,0.0,0.0
1.834459362726193e-05,-5.001700992579572e-05,0.0,0.0,0.0
1.884097946458496e-05,-5.029750900575891e-05,0.0,0.0,0.0
1.9017417798750103e-05,-5.039048119215295e-05,0.0,0.0,0.0
1.8953973267343827e-05,-5.083609721623361e-05,0.0,0.0,0.0
1.8461249055690132e-05,-5.1111466746078804e-05,0.0,0.0,0.0
1.8746923160506412e-05,-5.072290150565095e-05,0.0,0.0,0.0
1.8560087482910603e-05,-5.116747706779279e-05,0.0,0.0,0.0
1.887939106381964e-05,-5.095732558402233e-05,0.0,0.0,0.0
1.897746551549062e-05,-5.1037412049481645e-05,0.0,0.0,0.0
1.8938135326607153e-05,-5.105948730488308e-05,0.0,0.0,0.0
1.9189455997548066e-05,-5.0417267630109563e-05,0.0,0.0,0.0
1.8750146409729496e-05,-5.0765978812705725e-05,0.0,0.0,0.0
1.8489274225430563e-05,-5.081575727672316e-05,0.0,0.0,0.0
1.844408870965708e-05,-5.058331589680165e-05,0.0,0.0,0.0
1.8476885088603012e-05,-5.0321836170041934e-05,0.0,0.0,0.0
1.8710392396315e-05,-5.025410064263269e-05,0.0,0.0,0.0
1.9121067452942953e-05,-5.000621240469627e-05,0.0,0.0,0.0
1.8937535060103983e-05,-5.013463305658661e-05,0.0,0.0,0.0
1.84774435183499e-05,-5.033339766669087e-05,0.0,0.0,0.0
1.8369599274592474e-05,-5.020101525587961e-05,0.0,0.0,0.0
1.8228352928417735e-05,-4.971535599906929e-05,0.0,0.0,0.0
1.8419010302750394e-05,-4.9462629249319434e-05,0.0,0.0,0.0
1.8497887140256353e-05,-4.88420992041938e-05,0.0,0.0,0.0
1.8352577171754092e-05,-4.888280091108754e-05,0.0,0.0,0.0
1.794458512449637e-05,-4.918598642689176e-05,0.0,0.0,0.0
1.8314685803488828e-05,-4.9449467041995376e-05,0.0,0.0,0.0
1.8585125872050412e-05,-4.8944653826765716e-05,0.0,0.0,0.0
1.8365777577855624e-05,-4.9026300985133275e-05,0.0,0.0,0.0
1.7986751117859967e-05,-4.9337773816660047e-05,0.0,0.0,0.0
1.765884917404037e-05,-4.8756908654468134e-05,0.0,0.0,0.0
1.840688673837576e-05,-4.998240547138266e-05,0.0,0.0,0.0
1.8201959392172284e-05,-4.9463342293165624e-05,0.0,0.0,0.0
1.7871136151370592e-05,-4.980249286745675e-05,0.0,0.0,0.0
1.7795167877920903e-05,-5.031585169490427e-05,0.0,0.0,0.0
1.799376514100004e-05,-5.008888183510862e-05,0.0,0.0,0.0
1.8162691048928536e-05,-5.005776620237157e-05,0.0,0.0,0.0
1.7899676095112227e-05,-4.997535506845452e-05,0.0,0.0,0.0
1.8179665858042426e-05,-4.988546425011009e-05,0.0,0.0,0.0
1.8451308278599754e-05,-4.9626232794253156e-05,0.0,0.0,0.0
1.8638907931745052e-05,-4.973986142431386e-05,0.0,0.0,0.0
1.8632777937455103e-05,-4.992623144062236e-05,0.0,0.0,0.0
1.848511237767525e-05,-5.040318865212612e-05,0.0,0.0,0.0
1.8568181985756382e-05,-5.030916872783564e-05,0.0,0.0,0.0
1.8813605493051e-05,-5.05140378663782e-05,0.0,0.0,0.0
1.8677461412153207e-05,-5.0852555432356894e-05,0.0,0.0,0.0
1.8494236428523436e-05,-5.1376104238443077e-05,0.0,0.0,0.0
1.8435192032484338e-05,-5.134893945069052e-05,0.0,0.0,0.0
1.84143445949303e-05,-5.1224258641013876e-05,0.0,0.0,0.0
1.8322116375202313e-05,-5.066792800789699e-05,0.0,0.0,0.0
1.9046583474846557e-05,-5.034761852584779e-05,0.0,0.0,0.0
1.9209835954825394e-05,-5.036154470872134e-05,0.0,0.0,0.0
1.9007698938366957e-05,-5.037998198531568e-05,0.0,0.0,0.0
1.859356780187227e-05,-5.06161741213873e-05,0.0,0.0,0.0
1.8354154235566966e-05,-5.0128455768572167e-05,0.0,0.0,0.0
1.8554024791228585e-05,-5.050258550909348e-05,0.0,0.0,0.0
1.866589445853606e-05,-5.029343083151616e-05,0.0,0.0,0.0
1.8630382328410633e-05,-4.981648089597002e-05,0.0,0.0,0.0
1.8350958271184936e-05,-4.9927912186831236e-05,0.0,0.0,0.0
1.8553297195467167e-05,-4.927810005028732e-05,0.0,0.0,0.0
1.8393458958598785e-05,-4.9678597861202434e-05,0.0,0.0,0.0
1.8515929696150124e-05,-4.8968046030495316e-05,0.0,0.0,0.0
1.8426060705678537e-05,-4.9063939513871446e-05,0.0,0.0,0.0
1.8487737179384567e-05,-4.9427053454564884e-05,0.0,0.0,0.0
1.845018778112717e-05,-4.888717012363486e-05,0.0,0.0,0.0
1.8467340851202607e-05,-4.8729038098827004e-05,0.0,0.0,0.0
1.846717350417748e-05,-4.862263085669838e-05,0.0,0.0,0.0
1.829393113439437e-05,-4.872982754022814e-05,0.0,0.0,0.0
1.814131610444747e-05,-4.8623700422467664e-05,0.0,0.0,0.0
1.8248241758556105e-05,-4.88653895445168e-05,0.0,0.0,0.0
1.847876228566747e-05,-4.8958088882500306e-05,0.0,0.0,0.0
1.821146361180581e-05,-4.9179336201632395e-05,0.0,0.0,0.0
1.783582047210075e-05,-4.928916314383969e-05,0.0,0.0,0.0
1.775060809450224e-05,-4.9496040446683764e-05,0.0,0.0,0.0
1.791572867659852e-05,-4.970304507878609e-05,0.0,0.0,0.0
1.807016997190658e-05,-5.0053855375153944e-05,0.0,0.0,0.0
1.8242521036881953e-05,-4.992552203475498e-05,0.0,0.0,0.0
1.8390182958683e-05,-4.9789974582381546e-05,0.0,0.0,0.0
1.8526152416598052e-05,-4.994280607206747e-05,0.0,0.0,0.0
1.841052835516166e-05,-5.014579073758796e-05,0.0,0.0,0.0
1.8507133063394576e-05,-5.054138819104992e-05,0.0,0.0,0.0
1.8428187104291283e-05,-5.050147956353612e-05,0.0,0.0,0.0
1.820371653593611e-05,-5.0235361413797364e-05,0.0,0.0,0.0
1.834279282775242e-05,-5.072605927125551e-05,0.0,0.0,0.0
1.8549433661974035e-05,-5.0655511586228386e-05,0.0,0.0,0.0
1.8650713172974065e-05,-5.122253787703812e-05,0.0,0.0,0.0
1.9126615370623767e-05,-5.0924954848596826e-05,0.0,0.0,0.0
1.863131001300644e-05,-5.081691051600501e-05,0.0,0.0,0.0
1.843741483753547e-05,-5.137130938237533e-05,0.0,0.0,0.0
1.849208820203785e-05,-5.084969961899333e-05,0.0,0.0,0.0
1.8432820070302114e-05,-5.053011409472674e-05,0.0,0.0,0.0
1.849525324360002e-05,-5.0301270675845444e-05,0.0,0.0,0.0
1.8611757695907727e-05,-5.040286487201229e-05,0.0,0.0,0.0
1.8839498807210475e-05,-5.0482074584579095e-05,0.0,0.0,0.0
1.8601158444653265e-05,-5.057330781710334e-05,0.0,0.0,0.0
1.8647266188054346e-05,-5.016810246161185e-05,0.0,0.0,0.0
1.8625843949848786e-05,-5.005299317417666e-05,0.0,0.0,0.0
1.850148692028597e-05,-4.9990772822638974e-05,0.0,0.0,0.0
1.8428505427436903e-05,-5.004214108339511e-05,0.0,0.0,0.0
1.849506952567026e-05,-4.9894490075530484e-05,0.0,0.0,0.0
1.8435082893120125e-05,-4.9616814067121595e-05,0.0,0.0,0.0
1.840334152802825e-05,-4.9343441787641495e-05,0.0,0.0,0.0
1.8128015653928742e-05,-4.9274542107013986e-05,0.0,0.0,0.0
1.8127431758330204e-05,-4.91662067361176e-05,0.0,0.0,0.0
1.812818845792208e-05,-4.9441463488619775e-05,0.0,0.0,0.0
1.8169444956583902e-05,-4.8844456614460796e-05,0.0,0.0,0.0
1.8397506210021675e-05,-4.8531881475355476e-05,0.0,0.0,0.0
1.8151877156924456e-05,-4.879901825916022e-05,0.0,0.0,0.0
1.7484810086898506e-05,-4.8573187086731195e-05,0.0,0.0,0.0
1.7717460650601424e-05,-4.904877641820349e-05,0.0,0.0,0.0
1.785683707566932e-05,-4.953665120410733e-05,0.0,0.0,0.0
1.8267786799697205e-05,-5.004565537092276e-05,0.0,0.0,0.0
1.8580269170342945e-05,-4.99761154060252e-05,0.0,0.0,0.0
1.8365230062045157e-05,-5.005084676668048e-05,0.0,0.0,0.0
1.807686385291163e-05,-4.999707016395405e-05,0.0,0.0,0.0
1.7676735296845436e-05,-5.003262049285695e-05,0.0,0.0,0.0
1.788561166904401e-05,-5.001275349059142e-05,0.0,0.0,0.0
1.7919814126798883e-05,-5.0019290938507766e-05,0.0,0.0,0.0
1.8390826880931854e-05,-4.9641057557892054e-05,0.0,0.0,0.0
1.8601311239763163e-05,-4.96779139211867e-05,0.0,0.0,0.0
1.8666380128706805e-05,-5.006536957807839e-05,0.0,0.0,0.0
1.843444988480769e-05,-5.013646659790538e-05,0.0,0.0,0.0
1.848025931394659e-05,-5.0393988203722984e-05,0.0,0.0,0.0
1.84568725671852e-05,-5.0458344048820436e-05,0.0,0.0,0.0
1.8716586055234075e-05,-5.097059329273179e-05,0.0,0.0,0.0
1.9126517145195976e-05,-5.120616697240621e-05,0.0,0.0,0.0
1.913515734486282e-05,-5.1177539717173204e-05,0.0,0.0,0.0
1.9045253793592565e-05,-5.130852878210135e-05,0.0,0.0,0.0
1.8891540094045922e-05,-5.132140722707845e-05,0.0,0.0,0.0
1.9037743186345324e-05,-5.093712024972774e-05,0.0,0.0,0.0
1.8902201190940104e-05,-5.072633575764485e-05,0.0,0.0,0.0
1.913105370476842e-05,-5.0662052672123536e-05,0.0,0.0,0.0
1.943933057191316e-05,-5.071216946817003e-05,0.0,0.0,0.0
1.910178798425477e-05,-5.0642876885831356e-05,0.0,0.0,0.0
1.8552176697994582e-05,-5.03824558109045e-05,0.0,0.0,0.0
1.9016066289623268e-05,-5.0022605137201026e-05,0.0,0.0,0.0
1.980535853363108e-05,-5.058684473624453e-05,0.0,0.0,0.0
1.8705859474721365e-05,-5.022859477321617e-05,0.0,0.0,0.0
1.8834729416994378e-05,-4.959810758009553e-05,0.0,0.0,0.0
1.8831387933460064e-05,-4.9780846893554553e-05,0.0,0.0,0.0
1.822623744374141e-05,-4.984588304068893e-05,0.0,0.0,0.0
1.8660817659110762e-05,-4.964707113686018e-05,0.0,0.0,0.0
1.830213841458317e-05,-4.899672785541043e-05,0.0,0.0,0.0
1.8592098058434203e-05,-4.9307327572023496e-05,0.0,0.0,0.0
1.8566024664323777e-05,-4.9300575483357534e-05,0.0,0.0,0.0
1.869565858214628e-05,-4.9382131692254916e-05,0.0,0.0,0.0
1.8389744582236744e-05,-4.896272366750054e-05,0.0,0.0,0.0
1.8342569092055783e-05,-4.884442387265153e-05,0.0,0.0,0.0
1.8254546375828795e-05,-4.9183337978320196e-05,0.0,0.0,0.0
1.8329310478293337e-05,-4.9333735660184175e-05,0.0,0.0,0.0
1.7993454093812034e-05,-4.936463665217161e-05,0.0,0.0,0.0
1.8034812455880456e-05,-4.9328442401019856e-05,0.0,0.0,0.0
1.823636921471916e-05,-4.960246951668523e-05,0.0,0.0,0.0
1.7797365217120387e-05,-4.9973183195106685e-05,0.0,0.0,0.0
1.7895175915327854e-05,-4.996635834686458e-05,0.0,0.0,0.0
1.8176320736529306e-05,-4.957705459673889e-05,0.0,0.0,0.0
1.8483309759176336e-05,-4.953931784257293e-05,0.0,0.0,0.0
1.84366090252297e-05,-4.992975664208643e-05,0.0,0.0,0.0
1.84952950803563e-05,-5.0096772611141205e-05,0.0,0.0,0.0
1.842811434471514e-05,-5.003732076147571e-05,0.0,0.0,0.0
1.8500701116863638e-05,-5.0612819904927164e-05,0.0,0.0,0.0
1.844667895056773e-05,-5.0130009185522795e-05,0.0,0.0,0.0
1.8794851712300442e-05,-5.023608900955878e-05,0.0,0.0,0.0
1.851108027040027e-05,-5.07425720570609e-05,0.0,0.0,0.0
1.8427039321977645e-05,-5.0647093303268775e-05,0.0,0.0,0.0
1.849038562795613e-05,-5.072612111689523e-05,0.0,0.0,0.0
1.8444186935084872e-05,-5.1172097300877795e-05,0.0,0.0,0.0
1.847639578045346e-05,-5.120240166434087e-05,0.0,0.0,0.0
1.8923312381957658e-05,-5.0928796554217115e-05,0.0,0.0,0.0
1.918801717692986e-05,-5.110505662742071e-05,0.0,0.0,0.0
1.9092691218247637e-05,-5.0750983064062893e-05,0.0,0.0,0.0
1.8965469280374236e-05,-5.0922728405566886e-05,0.0,0.0,0.0
1.8951206584461033e-05,-5.082861753180623e-05,0.0,0.0,0.0
1.9176231944584288e-05,-5.0679765990935266e-05,0.0,0.0,0.0
1.9103092199657112e-05,-5.0703773013083264e-05,0.0,0.0,0.0
1.9158342183800414e-05,-5.003717524232343e-05,0.0,0.0,0.0
1.911813160404563e-05,-4.935919787385501e-05,0.0,0.0,0.0
1.914584936457686e-05,-4.947190609527752e-05,0.0,0.0,0.0
1.8873121007345617e-05,-4.9566177040105686e-05,0.0,0.0,0.0
1.8483668100088835e-05,-4.9578160542296246e-05,0.0,0.0,0.0
1.834192153182812e-05,-4.9788111937232316e-05,0.0,0.0,0.0
1.8249729691888206e-05,-4.939159407513216e-05,0.0,0.0,0.0
1.8424052541377023e-05,-4.931238800054416e-05,0.0,0.0,0.0
1.849533146014437e-05,-4.9301019316772e-05,0.0,0.0,0.0
1.8437924154568464e-05,-4.9015980039257556e-05,0.0,0.0,0.0
1.848341889854055e-05,-4.900623025605455e-05,0.0,0.0,0.0
1.8448077753419057e-05,-4.901896681985818e-05,0.0,0.0,0.0
1.8442931832396425e-05,-4.897229155176319e-05,0.0,0.0,0.0
1.81581581273349e-05,-4.8744350351626053e-05,0.0,0.0,0.0
1.810049252526369e-05,-4.892906144959852e-05,0.0,0.0,0.0
1.7864622350316495e-05,-4.9082955229096115e-05,0.0,0.0,0.0
1.800650352379307e-05,-4.895204256172292e-05,0.0,0.0,0.0
1.7951850168174133e-05,-4.9327631131745875e-05,0.0,0.0,0.0
1.793803858163301e-05,-4.985208943253383e-05,0.0,0.0,0.0
1.824850551201962e-05,-4.9595462769502774e-05,0.0,0.0,0.0
1.8029753846349195e-05,-4.947327761328779e-05,0.0,0.0,0.0
1.7981872588279657e-05,-4.979535879101604e-05,0.0,0.0,0.0
1.7924308849615045e-05,-5.001962199457921e-05,0.0,0.0,0.0
1.840830191213172e-05,-5.025717837270349e-05,0.0,0.0,0.0
1.841985977080185e-05,-5.011569010093808e-05,0.0,0.0,0.0
1.8491624359739944e-05,-5.025609061704017e-05,0.0,0.0,0.0
1.8618595277075656e-05,-5.0292386731598526e-05,0.0,0.0,0.0
1.8966926290886477e-05,-5.1064107537968084e-05,0.0,0.0,0.0
1.8989265299751423e-05,-5.103252988192253e-05,0.0,0.0,0.0
1.865145532065071e-05,-5.070947008789517e-05,0.0,0.0,0.0
1.848486135713756e-05,-5.068574319011532e-05,0.0,0.0,0.0
1.8437393009662628e-05,-5.068331302027218e-05,0.0,0.0,0.0
1.859910844359547e-05,-5.0813661800930277e-05,0.0,0.0,0.0
1.865651211119257e-05,-5.0890568672912195e-05,0.0,0.0,0.0
1.8698134226724505e-05,-5.075271110399626e-05,0.0,0.0,0.0
1.8956230633193627e-05,-5.062871059635654e-05,0.0,0.0,0.0
1.8981130779138766e-05,-5.075072476756759e-05,0.0,0.0,0.0
1.905581848404836e-05,-5.052623600931838e-05,0.0,0.0,0.0
1.950995829247404e-05,-5.013777990825474e-05,0.0,0.0,0.0
1.903648990264628e-05,-4.991372406948358e-05,0.0,0.0,0.0
1.8569051462691277e-05,-5.011149914935231e-05,0.0,0.0,0.0
1.8375361833022907e-05,-4.993906259187497e-05,0.0,0.0,0.0
1.853531284723431e-05,-5.0087241106666625e-05,0.0,0.0,0.0
1.840628101490438e-05,-4.9962112825596705e-05,0.0,0.0,0.0
1.877303839137312e-05,-4.953375901095569e-05,0.0,0.0,0.0
1.8546616047387943e-05,-4.8986948968376964e-05,0.0,0.0,0.0
1.8424540030537173e-05,-4.906583490082994e-05,0.0,0.0,0.0
1.8267463019583374e-05,-4.897155304206535e-05,0.0,0.0,0.0
1.828958011174109e-05,-4.904030720354058e-05,0.0,0.0,0.0
1.8328031728742644e-05,-4.9207144911633804e-05,0.0,0.0,0.0
1.8243297745357268e-05,-4.917144906357862e-05,0.0,0.0,0.0
1.855327354860492e-05,-4.879158950643614e-05,0.0,0.0,0.0
1.8747956346487626e-05,-4.88623627461493e-05,0.0,0.0,0.0
1.870544110715855e-05,-4.902334694634192e-05,0.0,0.0,0.0
1.80465831363108e-05,-4.9154219595948234e-05,0.0,0.0,0.0
1.8342498151469044e-05,-4.93709922011476e-05,0.0,0.0,0.0
1.827085725381039e-05,-4.932105730404146e-05,0.0,0.0,0.0
1.8047543562715873e-05,-4.95043168484699e-05,0.0,0.0,0.0
1.788175359251909e-05,-4.952707240590826e-05,0.0,0.0,0.0
1.8133947378373705e-05,-4.950507354806177e-05,0.0,0.0,0.0
1.812761911423877e-05,-4.9619517085375264e-05,0.0,0.0,0.0
1.8122642359230667e-05,-4.982720929547213e-05,0.0,0.0,0.0
1.8137081497116014e-05,-4.9869071517605335e-05,0.0,0.0,0.0
1.8114878912456334e-05,-4.983957114745863e-05,0.0,0.0,0.0
1.8196458768215962e-05,-4.991000605514273e-05,0.0,0.0,0.0
1.8456381440046243e-05,-5.011256143916398e-05,0.0,0.0,0.0
1.8778107914840803e-05,-4.9940059398068115e-05,0.0,0.0,0.0
1.848925239755772e-05,-5.012724795960821e-05,0.0,0.0,0.0
1.8444783563609235e-05,-5.055329529568553e-05,0.0,0.0,0.0
1.847589373937808e-05,-5.0803570047719404e-05,0.0,0.0,0.0
1.8456141333444975e-05,-5.0599195674294606e-05,0.0,0.0,0.0
1.8466365872882307e-05,-5.0496197218308225e-05,0.0,0.0,0.0
1.8719239960773848e-05,-5.0266331527382135e-05,0.0,0.0,0.0
1.8826827727025375e-05,-5.066646190243773e-05,0.0,0.0,0.0
1.877877912193071e-05,-5.0670085329329595e-05,0.0,0.0,0.0
1.858982432167977e-05,-5.047559898230247e-05,0.0,0.0,0.0
1.8433524019201286e-05,-5.0548049330245703e-05,0.0,0.0,0.0
1.8485290638636798e-05,-5.051346306572668e-05,0.0,0.0,0.0
1.8639821064425632e-05,-5.0137190555687994e-05,0.0,0.0,0.0
1.900035385915544e-05,-5.002008765586652e-05,0.0,0.0,0.0
1.895892455650028e-05,-5.002781836083159e-05,0.0,0.0,0.0
1.863651596067939e-05,-4.984282350051217e-05,0.0,0.0,0.0
1.846770101110451e-05,-4.970520967617631e-05,0.0,0.0,0.0
1.8456874386174604e-05,-4.951797745889053e-05,0.0,0.0,0.0
1.8599224858917296e-05,-4.938412894262001e-05,0.0,0.0,0.0
1.8547130821389146e-05,-4.930918294121511e-05,0.0,0.0,0.0
1.827566302381456e-05,-4.938714118907228e-05,0.0,0.0,0.0
1.8410606571706012e-05,-4.930817522108555e-05,0.0,0.0,0.0
1.8680082575883716e-05,-4.9301324906991795e-05,0.0,0.0,0.0
1.9050337868975475e-05,-4.8922265705186874e-05,0.0,0.0,0.0
1.9079438061453402e-05,-4.8718091420596465e-05,0.0,0.0,0.0
1.845977021730505e-05,-4.863778667640872e-05,0.0,0.0,0.0
1.846526902227197e-05,-4.883878136752173e-05,0.0,0.0,0.0
1.8463260857970454e-05,-4.951456867274828e-05,0.0,0.0,0.0
1.8461994841345586e-05,-4.948187415720895e-05,0.0,0.0,0.0
1.8466284018359147e-05,-4.892290962743573e-05,0.0,0.0,0.0
1.845925180532504e-05,-4.9659258365863934e-05,0.0,0.0,0.0
1.846872692112811e-05,-4.9707254220265895e-05,0.0,0.0,0.0
1.845712358772289e-05,-4.9925536586670205e-05,0.0,0.0,0.0
1.847053317760583e-05,-5.00770729559008e-05,0.0,0.0,0.0
1.8455639292369597e-05,-4.9966954975388944e-05,0.0,0.0,0.0
1.8471699149813503e-05,-4.98318622703664e-05,0.0,0.0,0.0
1.8678116248338483e-05,-4.9840364226838574e-05,0.0,0.0,0.0
1.9041812265641056e-05,-5.009796586818993e-05,0.0,0.0,0.0
1.8722070308285765e-05,-4.974954208591953e-05,0.0,0.0,0.0
1.8442773580318317e-05,-4.991742389393039e-05,0.0,0.0,0.0
1.88408448593691e-05,-5.0175192882306874e-05,0.0,0.0,0.0
1.8798624296323396e-05,-5.055345536675304e-05,0.0,0.0,0.0
1.8449518393026665e-05,-5.0990642193937674e-05,0.0,0.0,0.0
1.847582643677015e-05,-5.123077426105738e-05,0.0,0.0,0.0
1.8452461517881602e-05,-5.101449278299697e-05,0.0,0.0,0.0
1.8472966985427774e-05,-5.103438888909295e-05,0.0,0.0,0.0
1.8572205590317026e-05,-5.102095383335836e-05,0.0,0.0,0.0
1.8687627743929625e-05,-5.092246283311397e-05,0.0,0.0,0.0
1.8483477106201462e-05,-5.080108530819416e-05,0.0,0.0,0.0
1.8530998204369098e-05,-5.090787817607634e-05,0.0,0.0,0.0
1.8717864804784767e-05,-5.074245564173907e-05,0.0,0.0,0.0
1.8621974959387444e-05,-5.058101305621676e-05,0.0,0.0,0.0
1.905148928926792e-05,-5.036997754359618e-05,0.0,0.0,0.0
1.9205052012694068e-05,-4.99924281029962e-05,0.0,0.0,0.0
1.907645673782099e-05,-5.004159902455285e-05,0.0,0.0,0.0
1.9118628188152798e-05,-5.000032251700759e-05,0.0,0.0,0.0
1.8215483578387648e-05,-5.003438127459958e-05,0.0,0.0,0.0
1.833776150306221e-05,-5.029402018408291e-05,0.0,0.0,0.0
1.8295228073839098e-05,-5.012873953091912e-05,0.0,0.0,0.0
1.8263368474435993e-05,-4.994011396775022e-05,0.0,0.0,0.0
1.8607381207402796e-05,-5.0083461246686056e-05,0.0,0.0,0.0
1.883311415440403e-05,-4.972313035978004e-05,0.0,0.0,0.0
1.8819957404048182e-05,-4.9695307097863406e-05,0.0,0.0,0.0
1.8290438674739562e-05,-4.945369437336922e-05,0.0,0.0,0.0
1.8176766388933174e-05,-4.932809679303318e-05,0.0,0.0,0.0
1.785013773769606e-05,-4.93676561745815e-05,0.0,0.0,0.0
1.8253072994411923e-05,-4.932763476972468e-05,0.0,0.0,0.0
1.803408122214023e-05,-4.918668491882272e-05,0.0,0.0,0.0
1.819359022192657e-05,-4.9154958105646074e-05,0.0,0.0,0.0
1.8085911506204866e-05,-4.953670941176824e-05,0.0,0.0,0.0
1.8000009731622413e-05,-4.9807225877884775e-05,0.0,0.0,0.0
1.7790356650948524e-05,-5.0039343477692455e-05,0.0,0.0,0.0
1.7906882931129076e-05,-4.987373176845722e-05,0.0,0.0,0.0
1.8143473425880075e-05,-4.97073597216513e-05,0.0,0.0,0.0
1.8207905668532476e-05,-4.966288906871341e-05,0.0,0.0,0.0
1.8386594092589803e-05,-4.9796279199654236e-05,0.0,0.0,0.0
1.8204380467068404e-05,-5.015643546357751e-05,0.0,0.0,0.0
1.8458709746482782e-05,-5.067369056632742e-05,0.0,0.0,0.0
1.8458069462212734e-05,-5.0705850298982114e-05,0.0,0.0,0.0
1.8476675904821604e-05,-5.067635720479302e-05,0.0,0.0,0.0
1.844415965024382e-05,-5.0703423767117783e-05,0.0,0.0,0.0
1.8486982298782095e-05,-5.074238288216293e-05,0.0,0.0,0.0
1.8437032849760726e-05,-5.129559212946333e-05,0.0,0.0,0.0
1.849133514042478e-05,-5.14172570547089e-05,0.0,0.0,0.0
1.8435068341204897e-05,-5.131633588462137e-05,0.0,0.0,0.0
1.849126783781685e-05,-5.1122024160576984e-05,0.0,0.0,0.0
1.870270716608502e-05,-5.0959679356310517e-05,0.0,0.0,0.0
1.8858248949982226e-05,-5.133460945216939e-05,0.0,0.0,0.0
1.850347689469345e-05,-5.0862410716945305e-05,0.0,0.0,0.0
1.8712727978709154e-05,-5.0405895308358595e-05,0.0,0.0,0.0
1.9034527213079855e-05,-5.059937757323496e-05,0.0,0.0,0.0
1.8719587387749925e-05,-5.069086910225451e-05,0.0,0.0,0.0
1.842052733991295e-05,-5.0288832426304e-05,0.0,0.0,0.0
1.8497201381251216e-05,-4.9985192163148895e-05,0.0,0.0,0.0
1.825724211812485e-05,-4.9868907808559015e-05,0.0,0.0,0.0
1.830769906518981e-05,-4.9818198021966964e-05,0.0,0.0,0.0
1.8304075638297945e-05,-5.005438288208097e-05,0.0,0.0,0.0
1.827128835429903e-05,-4.998904842068441e-05,0.0,0.0,0.0
1.8469638234819286e-05,-5.004419290344231e-05,0.0,0.0,0.0
1.8454544260748662e-05,-4.99984816997312e-05,0.0,0.0,0.0
1.8474538592272438e-05,-4.9801546992966905e-05,0.0,0.0,0.0
1.8450447896611877e-05,-4.914639430353418e-05,0.0,0.0,0.0
1.8477847333997488e-05,-4.879121479461901e-05,0.0,0.0,0.0
1.844789949245751e-05,-4.889340925728902e-05,0.0,0.0,0.0
1.8554115740698762e-05,-4.872509089182131e-05,0.0,0.0,0.0
1.869332481874153e-05,-4.8764337407192215e-05,0.0,0.0,0.0
1.8477185221854597e-05,-4.9321664846502244e-05,0.0,0.0,0.0
1.814318966353312e-05,-4.937246558256447e-05,0.0,0.0,0.0
1.8388796888757497e-05,-4.9387985200155526e-05,0.0,0.0,0.0
1.787723522284068e-05,-4.9942762416321784e-05,0.0,0.0,0.0
1.7720924006425776e-05,-4.976993295713328e-05,0.0,0.0,0.0
1.813764356484171e-05,-4.9899641453521326e-05,0.0,0.0,0.0
1.7568492694408633e-05,-4.9563990614842623e-05,0.0,0.0,0.0
1.7649796063778922e-05,-4.919345519738272e-05,0.0,0.0,0.0
1.814411189116072e-05,-4.9472309910925105e-05,0.0,0.0,0.0
1.8321574316360056e-05,-4.9493988626636565e-05,0.0,0.0,0.0
1.8533437469159253e-05,-4.9786172894528136e-05,0.0,0.0,0.0
1.840587538026739e-05,-5.005233106203377e-05,0.0,0.0,0.0
1.8509639630792663e-05,-5.024014535592869e-05,0.0,0.0,0.0
1.8427399481879547e-05,-4.972734677721746e-05,0.0,0.0,0.0
1.8873157387133688e-05,-4.9924059567274526e-05,0.0,0.0,0.0
1.8776852812152356e-05,-5.018162846681662e-05,0.0,0.0,0.0
1.8270791770191863e-05,-5.05362477269955e-05,0.0,0.0,0.0
1.8304728655493818e-05,-5.0856982852565125e-05,0.0,0.0,0.0
1.8446773538016714e-05,-5.086123928776942e-05,0.0,0.0,0.0
1.8480650396668352e-05,-5.071717168902978e-05,0.0,0.0,0.0
1.857350071077235e-05,-5.065727236797102e-05,0.0,0.0,0.0
1.880796844488941e-05,-5.072835847386159e-05,0.0,0.0,0.0
1.878932016552426e-05,-5.075583248981275e-05,0.0,0.0,0.0
1.8905262550106272e-05,-5.0957769417436793e-05,0.0,0.0,0.0
1.9020260879187845e-05,-5.067917663836852e-05,0.0,0.0,0.0
1.8773534975480288e-05,-5.06314609083347e-05,0.0,0.0,0.0
1.8573322449810803e-05,-5.036182847106829e-05,0.0,0.0,0.0
1.9093540686299093e-05,-5.0300004659220576e-05,0.0,0.0,0.0
1.9084101950284094e-05,-5.004847844247706e-05,0.0,0.0,0.0
1.856954077084083e-05,-4.996558709535748e-05,0.0,0.0,0.0
1.8999360690941103e-05,-4.9737176595954224e-05,0.0,0.0,0.0
1.893842636491172e-05,-4.9640570068731904e-05,0.0,0.0,0.0
1.8394453945802525e-05,-5.000398959964514e-05,0.0,0.0,0.0
1.8243532394990325e-05,-5.0034515879815444e-05,0.0,0.0,0.0
1.83103620656766e-05,-4.9738027882995084e-05,0.0,0.0,0.0
1.8564816855359823e-05,-4.9663321988191456e-05,0.0,0.0,0.0
1.8626909877639264e-05,-4.9454298277851194e-05,0.0,0.0,0.0
1.888991209852975e-05,-4.9308004236081615e-05,0.0,0.0,0.0
1.8282369637745433e-05,-4.96031207148917e-05,0.0,0.0,0.0
1.8349868696532212e-05,-4.9466169002698734e-05,0.0,0.0,0.0
1.84806231118273e-05,-4.9332509661326185e-05,0.0,0.0,0.0
1.844187681854237e-05,-4.955250187776983e-05,0.0,0.0,0.0
1.8126720533473417e-05,-4.950227958033793e-05,0.0,0.0,0.0
1.7919077436090447e-05,-4.968047505826689e-05,0.0,0.0,0.0
1.817401425796561e-05,-4.971532689523883e-05,0.0,0.0,0.0
1.8084165276377462e-05,-4.96306165587157e-05,0.0,0.0,0.0
1.8168286260333844e-05,-5.0026410463033244e-05,0.0,0.0,0.0
1.8217930119135417e-05,-5.0014361477224156e-05,0.0,0.0,0.0
1.8488812202122062e-05,-5.002165198675357e-05,0.0,0.0,0.0
1.8440252461005002e-05,-5.0018192268908024e-05,0.0,0.0,0.0
1.8579941752250306e-05,-5.011434404877946e-05,0.0,0.0,0.0
1.8762058971333317e-05,-5.0337534048594534e-05,0.0,0.0,0.0
1.875653470051475e-05,-5.0294114771531895e-05,0.0,0.0,0.0
1.8653243387234397e-05,-5.00335700053256e-05,0.0,0.0,0.0
1.93321357073728e-05,-5.011216853745282e-05,0.0,0.0,0.0
1.9197448636987247e-05,-5.0595983339007944e-05,0.0,0.0,0.0
1.8712924429564737e-05,-5.046551814302802e-05,0.0,0.0,0.0
1.854762558650691e-05,-5.0585887947818264e-05,0.0,0.0,0.0
1.839280412241351e-05,-5.077761670690961e-05,0.0,0.0,0.0
1.852187779149972e-05,-5.119325578561984e-05,0.0,0.0,0.0
1.8415763406665064e-05,-5.150155629962683e-05,0.0,0.0,0.0
1.9033259377465583e-05,-5.098226392874494e-05,0.0,0.0,0.0
1.9173987311660312e-05,-5.057183443568647e-05,0.0,0.0,0.0
1.9099763449048623e-05,-5.049578976468183e-05,0.0,0.0,0.0
1.9165880075888708e-05,-5.079856782685965e-05,0.0,0.0,0.0
1.9107572370558046e-05,-5.0160855607828125e-05,0.0,0.0,0.0
1.915841130539775e-05,-5.00376227137167e-05,0.0,0.0,0.0
1.9114662791253068e-05,-5.0012509746011347e-05,0.0,0.0,0.0
1.8768871086649597e-05,-5.001559475203976e-05,0.0,0.0,0.0
1.8788707166095264e-05,-5.0030812417389825e-05,0.0,0.0,0.0
1.918002453749068e-05,-4.9830541684059426e-05,0.0,0.0,0.0
1.893927219498437e-05,-4.986186831956729e-05,0.0,0.0,0.0
1.8974538761540316e-05,-4.954987525707111e-05,0.0,0.0,0.0
1.8836584786185995e-05,-4.904469824396074e-05,0.0,0.0,0.0
1.8617383830132894e-05,-4.8849160521058366e-05,0.0,0.0,0.0
1.86537072295323e-05,-4.872158751823008e-05,0.0,0.0,0.0
1.8496897610020824e-05,-4.863168578594923e-05,0.0,0.0,0.0
1.8437740436638705e-05,-4.871943383477628e-05,0.0,0.0,0.0
1.8397151507087983e-05,-4.8635181883582845e-05,0.0,0.0,0.0
1.8211325368611142e-05,-4.871482087764889e-05,0.0,0.0,0.0
1.8427039321977645e-05,-4.870449993177317e-05,0.0,0.0,0.0
1.844426333263982e-05,-4.9015681724995375e-05,0.0,0.0,0.0
1.8085556803271174e-05,-4.9092497647507116e-05,0.0,0.0,0.0
1.7861158994492143e-05,-4.961770537192933e-05,0.0,0.0,0.0
1.8034123058896512e-05,-4.971714588464238e-05,0.0,0.0,0.0
1.7896925783134066e-05,-4.934383832733147e-05,0.0,0.0,0.0
1.770223752828315e-05,-4.9924146878765896e-05,0.0,0.0,0.0
1.7867900169221684e-05,-5.0100188673241064e-05,0.0,0.0,0.0
1.8260594515595585e-05,-4.995078779757023e-05,0.0,0.0,0.0
1.858389805420302e-05,-5.0075508625013754e-05,0.0,0.0,0.0
1.8364844436291605e-05,-4.9973506975220516e-05,0.0,0.0,0.0
1.8542272300692275e-05,-5.005473940400407e-05,0.0,0.0,0.0
1.8402195564704016e-05,-4.999235170544125e-05,0.0,0.0,0.0
1.8508982975617982e-05,-5.025047357776202e-05,0.0,0.0,0.0
1.8431635908200406e-05,-5.0158952944912016e-05,0.0,0.0,0.0
1.8483176972949877e-05,-5.018657975597307e-05,0.0,0.0,0.0
1.8815610019373707e-05,-5.020917160436511e-05,0.0,0.0,0.0
1.8810827896231785e-05,-5.031850378145464e-05,0.0,0.0,0.0
1.8448354239808396e-05,-5.073676584288478e-05,0.0,0.0,0.0
1.8765571439871565e-05,-5.079856055090204e-05,0.0,0.0,0.0
1.8858721887227148e-05,-5.092149876873009e-05,0.0,0.0,0.0
1.846627492341213e-05,-5.0666982133407146e-05,0.0,0.0,0.0
1.881881689769216e-05,-5.059323666500859e-05,0.0,0.0,0.0
1.9211343897040933e-05,-5.045685247750953e-05,0.0,0.0,0.0
1.8971644749399275e-05,-5.048646198702045e-05,0.0,0.0,0.0
1.9044800865231082e-05,-5.015324495616369e-05,0.0,0.0,0.0
1.9216397049603984e-05,-5.021546166972257e-05,0.0,0.0,0.0
1.906155375763774e-05,-5.003651313018054e-05,0.0,0.0,0.0
1.9199915186618455e-05,-4.964266554452479e-05,0.0,0.0,0.0
1.9077644537901506e-05,-4.971760790795088e-05,0.0,0.0,0.0
1.9152423192281276e-05,-4.968685607309453e-05,0.0,0.0,0.0
1.8774257114273496e-05,-4.996116695110686e-05,0.0,0.0,0.0
1.850785338319838e-05,-4.9445592594565824e-05,0.0,0.0,0.0
1.9000901374965906e-05,-4.9551028496352956e-05,0.0,0.0,0.0
1.8693624951993115e-05,-4.951882146997377e-05,0.0,0.0,0.0
1.829623943194747e-05,-4.8950623749988154e-05,0.0,0.0,0.0
1.9110271750832908e-05,-4.883047586190514e-05,0.0,0.0,0.0
1.8599228496896103e-05,-4.883100336883217e-05,0.0,0.0,0.0
1.8439730411046185e-05,-4.9111113185063004e-05,0.0,0.0,0.0
1.8490494767320342e-05,-4.915733734378591e-05,0.0,0.0,0.0
1.8433678633300588e-05,-4.942805026075803e-05,0.0,0.0,0.0
1.8495127733331174e-05,-4.88832920382265e-05,0.0,0.0,0.0
1.8430377167533152e-05,-4.907271795673296e-05,0.0,0.0,0.0
1.8316401110496372e-05,-4.9728281737770885e-05,0.0,0.0,0.0
1.7915710486704484e-05,-4.98411463922821e-05,0.0,0.0,0.0
1.782750950951595e-05,-4.985251507605426e-05,0.0,0.0,0.0
1.7757634850568138e-05,-4.97068467666395e-05,0.0,0.0,0.0
1.7824952010414563e-05,-4.937149788020179e-05,0.0,0.0,0.0
1.8016067770076916e-05,-4.957527926308103e-05,0.0,0.0,0.0
1.847518069553189e-05,-5.003194746677764e-05,0.0,0.0,0.0
1.8451553842169233e-05,-4.9895890697371215e-05,0.0,0.0,0.0
1.8570759493741207e-05,-4.9814167141448706e-05,0.0,0.0,0.0
1.868424988060724e-05,-5.005066122976132e-05,0.0,0.0,0.0
1.8660608475329354e-05,-5.030818283557892e-05,0.0,0.0,0.0
1.90425525943283e-05,-4.9953407142311335e-05,0.0,0.0,0.0
1.9213217456126586e-05,-4.9822810979094356e-05,0.0,0.0,0.0
1.902664007502608e-05,-5.0345326599199325e-05,0.0,0.0,0.0
1.8856420865631662e-05,-5.1069622713839635e-05,0.0,0.0,0.0
1.8450102288625203e-05,-5.127016993355937e-05,0.0,0.0,0.0
1.878315924841445e-05,-5.081632116343826e-05,0.0,0.0,0.0
1.9103508748230524e-05,-5.0584247219376266e-05,0.0,0.0,0.0
1.8881111827795394e-05,-5.077864261693321e-05,0.0,0.0,0.0
1.9011955373571254e-05,-5.0618786190170795e-05,0.0,0.0,0.0
1.8954187908093445e-05,-5.0747177738230675e-05,0.0,0.0,0.0
1.8710476069827564e-05,-5.06472606502939e-05,0.0,0.0,0.0
1.8867445760406554e-05,-5.048763705417514e-05,0.0,0.0,0.0
1.8748718503047712e-05,-5.008652442484163e-05,0.0,0.0,0.0
1.8621120034367777e-05,-5.002930265618488e-05,0.0,0.0,0.0
1.8626535165822133e-05,-5.001709359930828e-05,0.0,0.0,0.0
1.9029284885618836e-05,-5.001401586923748e-05,0.0,0.0,0.0
1.912242078105919e-05,-5.00300302519463e-05,0.0,0.0,0.0
1.896615867735818e-05,-5.000328383175656e-05,0.0,0.0,0.0
1.8642562281456776e-05,-5.003871046938002e-05,0.0,0.0,0.0
1.8450902643962763e-05,-4.98476110806223e-05,0.0,0.0,0.0
1.848213651101105e-05,-4.9571881390875205e-05,0.0,0.0,0.0
1.8439939594827592e-05,-4.9197424232261255e-05,0.0,0.0,0.0
1.8490356524125673e-05,-4.904453453491442e-05,0.0,0.0,0.0
1.8540522432886064e-05,-4.8873655032366514e-05,0.0,0.0,0.0
1.8718570572673343e-05,-4.881827044300735e-05,0.0,0.0,0.0
1.83792562893359e-05,-4.895068195764907e-05,0.0,0.0,0.0
1.8227599866804667e-05,-4.9066755309468135e-05,0.0,0.0,0.0
1.834882641560398e-05,-4.902737418888137e-05,0.0,0.0,0.0
1.8202728824689984e-05,-4.941446604789235e-05,0.0,0.0,0.0
1.8019080016529188e-05,-4.968195207766257e-05,0.0,0.0,0.0
1.7852860764833167e-05,-5.002118632546626e-05,0.0,0.0,0.0
1.7394553651683964e-05,-5.001779936719686e-05,0.0,0.0,0.0
1.7196171029354446e-05,-5.0019403715850785e-05,0.0,0.0,0.0
1.7632282833801582e-05,-5.059403338236734e-05,0.0,0.0,0.0
1.7924872736330144e-05,-5.0217899115523323e-05,0.0,0.0,0.0
1.768364745657891e-05,-4.9877700803335756e-05,0.0,0.0,0.0
1.8388704120297916e-05,-5.0134713092120364e-05,0.0,0.0,0.0
1.8214763258583844e-05,-4.992661706637591e-05,0.0,0.0,0.0
1.8330560124013573e-05,-5.009077358408831e-05,0.0,0.0,0.0
1.8297370843356475e-05,-5.0189140893053263e-05,0.0,0.0,0.0
1.8264949176227674e-05,-5.062564741820097e-05,0.0,0.0,0.0
1.8550050299381837e-05,-5.066791345598176e-05,0.0,0.0,0.0
1.8386252122581936e-05,-5.0700633437372744e-05,0.0,0.0,0.0
1.853170761023648e-05,-5.069084363640286e-05,0.0,0.0,0.0
1.840342883951962e-05,-5.085143857286312e-05,0.0,0.0,0.0
1.835613693401683e-05,-5.120666901348159e-05,0.0,0.0,0.0
1.837921627156902e-05,-5.1039565732935444e-05,0.0,0.0,0.0
1.869585867098067e-05,-5.0723159802146256e-05,0.0,0.0,0.0
1.8567820006865077e-05,-5.06551077705808e-05,0.0,0.0,0.0
1.8925393305835314e-05,-5.07274417032022e-05,0.0,0.0,0.0
1.911703475343529e-05,-5.054647408542223e-05,0.0,0.0,0.0
1.9147759303450584e-05,-5.0503338570706546e-05,0.0,0.0,0.0
1.895602144941222e-05,-5.0536913477117196e-05,0.0,0.0,0.0
1.8512235328671522e-05,-5.051350308349356e-05,0.0,0.0,0.0
1.8552065739640966e-05,-5.0462760555092245e-05,0.0,0.0,0.0
1.9107701518805698e-05,-5.0057093176292256e-05,0.0,0.0,0.0
1.9161127056577243e-05,-4.9373215006198734e-05,0.0,0.0,0.0
1.9109440472675487e-05,-5.003024489269592e-05,0.0,0.0,0.0
1.911658182507381e-05,-5.0271461077500135e-05,0.0,0.0,0.0
1.8524118786444888e-05,-4.948831701767631e-05,0.0,0.0,0.0
1.8414290025248192e-05,-4.923065353068523e-05,0.0,0.0,0.0
1.850224180088844e-05,-4.94431697006803e-05,0.0,0.0,0.0
1.8433698642184027e-05,-4.927168629365042e-05,0.0,0.0,0.0
1.8485154214431532e-05,-4.940611688653007e-05,0.0,0.0,0.0
1.84486125363037e-05,-4.9304901040159166e-05,0.0,0.0,0.0
1.8472264855518006e-05,-4.961055310559459e-05,0.0,0.0,0.0
1.823629099817481e-05,-4.96910979563836e-05,0.0,0.0,0.0
1.8106127754435875e-05,-4.9669266445562243e-05,0.0,0.0,0.0
1.8149157767766155e-05,-4.97027431265451e-05,0.0,0.0,0.0
1.829818393161986e-05,-4.985121631762013e-05,0.0,0.0,0.0
1.8314021872356534e-05,-5.0057107728207484e-05,0.0,0.0,0.0
1.8091466699843295e-05,-4.998071017325856e-05,0.0,0.0,0.0
1.815945506677963e-05,-5.0216684030601755e-05,0.0,0.0,0.0
1.8249176719109528e-05,-5.016984141548164e-05,0.0,0.0,0.0
1.83464253495913e-05,-5.005636194255203e-05,0.0,0.0,0.0
1.8243241356685758e-05,-4.998315853299573e-05,0.0,0.0,0.0
1.846389568527229e-05,-5.017019429942593e-05,0.0,0.0,0.0
1.8464472304913215e-05,-5.0204351282445714e-05,0.0,0.0,0.0
1.8460961655364372e-05,-5.007446088711731e-05,0.0,0.0,0.0
1.8382050257059745e-05,-4.996998541173525e-05,0.0,0.0,0.0
1.821933801693376e-05,-5.028537998441607e-05,0.0,0.0,0.0
1.8488943169359118e-05,-5.0913135055452585e-05,0.0,0.0,0.0
1.874804002000019e-05,-5.117539694765583e-05,0.0,0.0,0.0
1.849573709478136e-05,-5.120697460370138e-05,0.0,0.0,0.0
1.837001218518708e-05,-5.118651097291149e-05,0.0,0.0,0.0
1.7896203644340858e-05,-5.121767753735185e-05,0.0,0.0,0.0
1.7702113837003708e-05,-5.14794846822042e-05,0.0,0.0,0.0
1.8443135559209622e-05,-5.1268205425003543e-05,0.0,0.0,0.0
1.90336777450284e-05,-5.1157585403416306e-05,0.0,0.0,0.0
1.9195817003492266e-05,-5.066936500952579e-05,0.0,0.0,0.0
1.9083861843682826e-05,-5.072392741567455e-05,0.0,0.0,0.0
1.8687469491851516e-05,-5.0671562348725274e-05,0.0,0.0,0.0
1.8842072677216493e-05,-5.069686085334979e-05,0.0,0.0,0.0
1.9256405721534975e-05,-5.04713570990134e-05,0.0,0.0,0.0
1.8611008272273466e-05,-5.032054832554422e-05,0.0,0.0,0.0
1.870750384114217e-05,-5.039259121986106e-05,0.0,0.0,0.0
1.8975246348418295e-05,-4.9931641115108505e-05,0.0,0.0,0.0
1.9153232642565854e-05,-4.952188101015054e-05,0.0,0.0,0.0
1.8955131963593885e-05,-4.948609057464637e-05,0.0,0.0,0.0
1.863699253590312e-05,-4.988103682990186e-05,0.0,0.0,0.0
1.8619024558574893e-05,-4.9684476834954694e-05,0.0,0.0,0.0
1.864728437794838e-05,-4.938830534229055e-05,0.0,0.0,0.0
1.8486094631953165e-05,-4.918061677017249e-05,0.0,0.0,0.0
1.8672526493901387e-05,-4.894138692179695e-05,0.0,0.0,0.0
1.903064730868209e-05,-4.896436439594254e-05,0.0,0.0,0.0
1.8903951058746316e-05,-4.976195850758813e-05,0.0,0.0,0.0
1.8942215319839306e-05,-4.984313636668958e-05,0.0,0.0,0.0
1.8373873899690807e-05,-4.9398106057196856e-05,0.0,0.0,0.0
1.7795768144424073e-05,-4.930359864374623e-05,0.0,0.0,0.0
1.7838172425399534e-05,-4.943875319440849e-05,0.0,0.0,0.0
1.8105249182553962e-05,-4.966199412592687e-05,0.0,0.0,0.0
1.811168658605311e-05,-5.010101813240908e-05,0.0,0.0,0.0
1.782026629371103e-05,-5.059951945440844e-05,0.0,0.0,0.0
1.7765109078027308e-05,-5.076552042737603e-05,0.0,0.0,0.0
1.8104414266417734e-05,-5.005563798476942e-05,0.0,0.0,0.0
1.7868946088128723e-05,-5.0260827265447006e-05,0.0,0.0,0.0
1.800707650545519e-05,-5.04255440318957e-05,0.0,0.0,0.0
1.8458076738170348e-05,-5.003669502912089e-05,0.0,0.0,0.0
1.8923146853921935e-05,-5.004350532544777e-05,0.0,0.0,0.0
1.8978365915245377e-05,-5.023010089644231e-05,0.0,0.0,0.0
1.8936209016828798e-05,-5.06240721733775e-05,0.0,0.0,0.0
1.8798866221914068e-05,-5.0671213102759793e-05,0.0,0.0,0.0
1.8559700038167648e-05,-5.070821862318553e-05,0.0,0.0,0.0
1.8704886315390468e-05,-5.048274761065841e-05,0.0,0.0,0.0
1.8558612282504328e-05,-5.035845242673531e-05,0.0,0.0,0.0
1.8870678104576655e-05,-5.0520589866209775e-05,0.0,0.0,0.0
1.8588538296171464e-05,-5.085937664262019e-05,0.0,0.0,0.0
1.8644455849425867e-05,-5.086978489998728e-05,0.0,0.0,0.0
1.8917733541456982e-05,-5.0699807616183534e-05,0.0,0.0,0.0
1.926433833432384e-05,-5.0426308007445186e-05,0.0,0.0,0.0
1.9469465769361705e-05,-5.004493868909776e-05,0.0,0.0,0.0
1.925003743963316e-05,-4.999605880584568e-05,0.0,0.0,0.0
1.8844630176317878e-05,-5.003936166758649e-05,0.0,0.0,0.0
1.875259476946667e-05,-5.000137389288284e-05,0.0,0.0,0.0
1.8920034563052468e-05,-4.9959875468630344e-05,0.0,0.0,0.0
1.9063969375565648e-05,-4.9695758207235485e-05,0.0,0.0,0.0
1.909381535369903e-05,-4.961943704984151e-05,0.0,0.0,0.0
1.8467759218765423e-05,-4.938897836836986e-05,0.0,0.0,0.0
1.8462795196683146e-05,-4.9280548410024494e-05,0.0,0.0,0.0
1.8440021449350752e-05,-4.908032497041859e-05,0.0,0.0,0.0
1.8173666830989532e-05,-4.895442907582037e-05,0.0,0.0,0.0
1.837414311012253e-05,-4.934695243719034e-05,0.0,0.0,0.0
1.853997127909679e-05,-4.9349622713634744e-05,0.0,0.0,0.0
1.7867074348032475e-05,-4.881302083958872e-05,0.0,0.0,0.0
1.803181839932222e-05,-4.8866284487303346e-05,0.0,0.0,0.0
1.841777157096658e-05,-4.885175439994782e-05,0.0,0.0,0.0
1.8451772120897658e-05,-4.881393033429049e-05,0.0,0.0,0.0
1.8251133951707743e-05,-4.889065894531086e-05,0.0,0.0,0.0
1.788320514606312e-05,-4.899932537227869e-05,0.0,0.0,0.0
1.8004197045229375e-05,-4.946365152136423e-05,0.0,0.0,0.0
1.832386442401912e-05,-4.9640180804999545e-05,0.0,0.0,0.0
1.8472239389666356e-05,-5.0109254516428337e-05,0.0,0.0,0.0
1.7944008504855447e-05,-4.995266499463469e-05,0.0,0.0,0.0
1.7611206203582697e-05,-5.0064787501469254e-05,0.0,0.0,0.0
1.8092678146786056e-05,-4.999119119020179e-05,0.0,0.0,0.0
1.8459450075170025e-05,-5.0031776481773704e-05,0.0,0.0,0.0
1.8592179912957363e-05,-5.00191017636098e-05,0.0,0.0,0.0
1.8908669517259113e-05,-5.000855526304804e-05,0.0,0.0,0.0
1.912700099637732e-05,-5.003803744330071e-05,0.0,0.0,0.0
1.914371023303829e-05,-5.00892274430953e-05,0.0,0.0,0.0
1.9040035112993792e-05,-5.0281505536986515e-05,0.0,0.0,0.0
1.875690941233188e-05,-5.002308898838237e-05,0.0,0.0,0.0
1.8523260223446414e-05,-5.002292164135724e-05,0.0,0.0,0.0
1.8775350326905027e-05,-5.0115384510718286e-05,0.0,0.0,0.0
1.8817927411873825e-05,-5.0683818699326366e-05,0.0,0.0,0.0
1.8752722098724917e-05,-5.102703653392382e-05,0.0,0.0,0.0
1.8534037735662423e-05,-5.098838664707728e-05,0.0,0.0,0.0
1.8716935301199555e-05,-5.042958218837157e-05,0.0,0.0,0.0
1.857969255070202e-05,-5.029587555327453e-05,0.0,0.0,0.0
1.892051841423381e-05,-5.039998359279707e-05,0.0,0.0,0.0
1.955392690433655e-05,-5.058707756688818e-05,0.0,0.0,0.0
1.9635588614619337e-05,-5.049342507845722e-05,0.0,0.0,0.0
1.9907713067368604e-05,-5.003473415854387e-05,0.0,0.0,0.0
1.9025384972337633e-05,-5.004968625144102e-05,0.0,0.0,0.0
1.8561431716079824e-05,-4.999844895792194e-05,0.0,0.0,0.0
1.888686529127881e-05,-4.981870370102115e-05,0.0,0.0,0.0
1.93671730812639e-05,-4.965997868566774e-05,0.0,0.0,0.0
1.9275412341812626e-05,-4.950684524374083e-05,0.0,0.0,0.0
1.8758031728793867e-05,-4.9147776735480875e-05,0.0,0.0,0.0
1.8467027985025197e-05,-4.93558582093101e-05,0.0,0.0,0.0
1.8453751181368716e-05,-4.953417010256089e-05,0.0,0.0,0.0
1.8775601347442716e-05,-4.9483282055007294e-05,0.0,0.0,0.0
1.8836175513570197e-05,-4.941861334373243e-05,0.0,0.0,0.0
1.8753931726678275e-05,-4.888335388386622e-05,0.0,0.0,0.0
1.908191552502103e-05,-4.856985106016509e-05,0.0,0.0,0.0
1.8972179532283917e-05,-4.844917930313386e-05,0.0,0.0,0.0
1.8447339243721217e-05,-4.885072848992422e-05,0.0,0.0,0.0
1.8480281141819432e-05,-4.93248226121068e-05,0.0,0.0,0.0
1.837195668485947e-05,-4.936708864988759e-05,0.0,0.0,0.0
1.8233477021567523e-05,-4.939542486681603e-05,0.0,0.0,0.0
1.839743708842434e-05,-4.9720751121640205e-05,0.0,0.0,0.0
1.8392853235127404e-05,-5.000165765522979e-05,0.0,0.0,0.0
1.7545482478453778e-05,-5.003270780434832e-05,0.0,0.0,0.0
1.7704271158436313e-05,-4.998766235075891e-05,0.0,0.0,0.0
1.7866745110950433e-05,-4.9732236220734194e-05,0.0,0.0,0.0
1.8016025933320634e-05,-4.993095717509277e-05,0.0,0.0,0.0
1.8221653590444475e-05,-5.009131200495176e-05,0.0,0.0,0.0
1.804962994356174e-05,-5.049286482972093e-05,0.0,0.0,0.0
1.8446964531904086e-05,-5.0804519560188055e-05,0.0,0.0,0.0
1.8442968212184496e-05,-5.03545998071786e-05,0.0,0.0,0.0
1.8478136553312652e-05,-5.0397949962643906e-05,0.0,0.0,0.0
1.867687751655467e-05,-5.032485569245182e-05,0.0,0.0,0.0
1.8613398424349725e-05,-5.058588067186065e-05,0.0,0.0,0.0
1.8627606550580822e-05,-5.090182094136253e-05,0.0,0.0,0.0
1.8842478311853483e-05,-5.064329889137298e-05,0.0,0.0,0.0
1.8946908312500454e-05,-5.033908018958755e-05,0.0,0.0,0.0
1.9166709535056725e-05,-5.053113272879273e-05,0.0,0.0,0.0
1.9112132576992735e-05,-5.0696729886112735e-05,0.0,0.0,0.0
1.9149600120726973e-05,-5.0678718253038824e-05,0.0,0.0,0.0
1.912671359605156e-05,-5.070650149718858e-05,0.0,0.0,0.0
1.9137329218210652e-05,-5.041600888944231e-05,0.0,0.0,0.0
1.9253866412327625e-05,-4.9823989684227854e-05,0.0,0.0,0.0
1.9346372937434353e-05,-4.94401429023128e-05,0.0,0.0,0.0
1.8977738363901153e-05,-4.977946082362905e-05,0.0,0.0,0.0
1.8638149413163774e-05,-5.008181688026525e-05,0.0,0.0,0.0
1.9089817214990035e-05,-5.028037412557751e-05,0.0,0.0,0.0
1.9042841813643463e-05,-4.9914266128325835e-05,0.0,0.0,0.0
1.8493157767807133e-05,-4.9387672333978117e-05,0.0,0.0,0.0
1.8435319361742586e-05,-4.935426477459259e-05,0.0,0.0,0.0
1.8457725673215464e-05,-4.961613012710586e-05,0.0,0.0,0.0
1.8142169210477732e-05,-4.909135168418288e-05,0.0,0.0,0.0
1.811695983633399e-05,-4.89452104375232e-05,0.0,0.0,0.0
1.8422555513097905e-05,-4.9354748625773937e-05,0.0,0.0,0.0
1.8499304133001715e-05,-4.934292155667208e-05,0.0,0.0,0.0
1.8432301658322103e-05,-4.881889981334098e-05,0.0,0.0,0.0
1.8234753952128813e-05,-4.8605761548969895e-05,0.0,0.0,0.0
1.8074311810778454e-05,-4.8734415031503886e-05,0.0,0.0,0.0
1.817191150621511e-05,-4.886303941020742e-05,0.0,0.0,0.0
1.8315269699087366e-05,-4.929741407977417e-05,0.0,0.0,0.0
1.8300026567885652e-05,-4.931922012474388e-05,0.0,0.0,0.0
1.80710521817673e-05,-4.957085911883041e-05,0.0,0.0,0.0
1.8171915144193918e-05,-4.9683050747262314e-05,0.0,0.0,0.0
1.809462446544785e-05,-4.9861730076372623e-05,0.0,0.0,0.0
1.8151004042010754e-05,-4.9861377192428336e-05,0.0,0.0,0.0
1.8113010810338892e-05,-4.9825765017885715e-05,0.0,0.0,0.0
1.8283893950865604e-05,-5.003627302357927e-05,0.0,0.0,0.0
1.8460385035723448e-05,-5.0141890824306756e-05,0.0,0.0,0.0
1.858866380644031e-05,-5.0235372327733785e-05,0.0,0.0,0.0
1.8914226529886946e-05,-5.002078614779748e-05,0.0,0.0,0.0
1.911989056679886e-05,-5.0017264584312215e-05,0.0,0.0,0.0
1.896051617222838e-05,-5.011678149458021e-05,0.0,0.0,0.0
1.848209649324417e-05,-5.04189265484456e-05,0.0,0.0,0.0
1.8451144569553435e-05,-5.061251431470737e-05,0.0,0.0,0.0
1.8406488379696384e-05,-5.044633144279942e-05,0.0,0.0,0.0
1.8153939890908077e-05,-5.0638875109143555e-05,0.0,0.0,0.0
1.8144719433621503e-05,-5.073337524663657e-05,0.0,0.0,0.0
1.8452627045917325e-05,-5.0687347538769245e-05,0.0,0.0,0.0
1.8512733731768094e-05,-5.09729579789564e-05,0.0,0.0,0.0
1.904747296066489e-05,-5.044973659096286e-05,0.0,0.0,0.0
1.920670547406189e-05,-4.998521399102174e-05,0.0,0.0,0.0
1.880007766885683e-05,-5.004889681003988e-05,0.0,0.0,0.0
1.9073451767326333e-05,-4.972712122253142e-05,0.0,0.0,0.0
1.9165006960975006e-05,-4.941631050314754e-05,0.0,0.0,0.0
1.9106919353362173e-05,-4.957046257914044e-05,0.0,0.0,0.0
1.9160257579642348e-05,-4.9730009777704254e-05,0.0,0.0,0.0
1.866525417426601e-05,-4.964416439179331e-05,0.0,0.0,0.0
1.8441392967361026e-05,-4.9928537919186056e-05,0.0,0.0,0.0
1.8480832295608707e-05,-5.001054523745552e-05,0.0,0.0,0.0
1.8449914932716638e-05,-4.964234904036857e-05,0.0,0.0,0.0
1.847363091656007e-05,-4.932126830681227e-05,0.0,0.0,0.0
1.845593396865297e-05,-4.919800630887039e-05,0.0,0.0,0.0
1.8309143342776224e-05,-4.899218038190156e-05,0.0,0.0,0.0
1.8420802007312886e-05,-4.8877293011173606e-05,0.0,0.0,0.0
1.8659540728549473e-05,-4.866904782829806e-05,0.0,0.0,0.0
1.872666871349793e-05,-4.867935786023736e-05,0.0,0.0,0.0
1.8875070963986218e-05,-4.867673487751745e-05,0.0,0.0,0.0
1.85110438906122e-05,-4.877921674051322e-05,0.0,0.0,0.0
1.8229964553029276e-05,-4.909817289444618e-05,0.0,0.0,0.0
1.7951158952200785e-05,-4.933438322041184e-05,0.0,0.0,0.0
1.8042128431261517e-05,-4.943618841934949e-05,0.0,0.0,0.0
1.8264190657646395e-05,-4.9643560487311333e-05,0.0,0.0,0.0
1.8320783055969514e-05,-4.977270509698428e-05,0.0,0.0,0.0
1.823403363232501e-05,-4.995453491574153e-05,0.0,0.0,0.0
1.8071830709232017e-05,-5.0075293984264135e-05,0.0,0.0,0.0
1.8495891708880663e-05,-4.997060386813246e-05,0.0,0.0,0.0
1.84400469152024e-05,-5.0060345529345796e-05,0.0,0.0,0.0
1.819163662730716e-05,-5.0271584768779576e-05,0.0,0.0,0.0
1.8354758140048943e-05,-5.042437624069862e-05,0.0,0.0,0.0
1.8537866708356887e-05,-5.003164551453665e-05,0.0,0.0,0.0
1.8406415620120242e-05,-5.028595478506759e-05,0.0,0.0,0.0
1.899427115858998e-05,-5.037855953560211e-05,0.0,0.0,0.0
1.8694214304559864e-05,-5.033238267060369e-05,0.0,0.0,0.0
1.7938245946425013e-05,-5.037578011979349e-05,0.0,0.0,0.0
1.82467520062346e-05,-5.033512570662424e-05,0.0,0.0,0.0
1.8469267160980962e-05,-5.0575130444485694e-05,0.0,0.0,0.0
1.8463655578671023e-05,-5.0496597395977005e-05,0.0,0.0,0.0
1.8819795513991266e-05,-5.0347254727967083e-05,0.0,0.0,0.0
1.9159731891704723e-05,-5.0189100875286385e-05,0.0,0.0,0.0
1.9109858840238303e-05,-5.001261888537556e-05,0.0,0.0,0.0
1.930818871187512e-05,-5.0171252951258793e-05,0.0,0.0,0.0
1.916833389259409e-05,-5.035207868786529e-05,0.0,0.0,0.0
1.896186404337641e-05,-5.0227528845425695e-05,0.0,0.0,0.0
1.8859860574593768e-05,-5.002932812203653e-05,0.0,0.0,0.0
1.8737022401182912e-05,-5.000841701985337e-05,0.0,0.0,0.0
1.905068347696215e-05,-5.0029888370772824e-05,0.0,0.0,0.0
1.9037232050322928e-05,-4.992323738406412e-05,0.0,0.0,0.0
1.852008244895842e-05,-4.979033110430464e-05,0.0,0.0,0.0
1.8788045053952374e-05,-4.990108573110774e-05,0.0,0.0,0.0
1.875658745120745e-05,-4.97589135193266e-05,0.0,0.0,0.0
1.8485006876289845e-05,-4.957636338076554e-05,0.0,0.0,0.0
1.8414588339510374e-05,-4.94372688990552e-05,0.0,0.0,0.0
1.820021316234488e-05,-4.9251462769461796e-05,0.0,0.0,0.0
1.838008211052511e-05,-4.9115540605271235e-05,0.0,0.0,0.0
1.853145113273058e-05,-4.8926845920505e-05,0.0,0.0,0.0
1.840918412199244e-05,-4.9080514145316556e-05,0.0,0.0,0.0
1.82394160219701e-05,-4.895829624729231e-05,0.0,0.0,0.0
1.831763074733317e-05,-4.905246169073507e-05,0.0,0.0,0.0
1.854446054494474e-05,-4.9227732233703136e-05,0.0,0.0,0.0
1.7933234630618244e-05,-4.962813181919046e-05,0.0,0.0,0.0
1.7788726836442947e-05,-4.9898138968274e-05,0.0,0.0,0.0
1.780153252184391e-05,-5.0041246140608564e-05,0.0,0.0,0.0
1.7979476979235187e-05,-5.0006834499072284e-05,0.0,0.0,0.0
1.816089206840843e-05,-5.002286343369633e-05,0.0,0.0,0.0
1.8274793546879664e-05,-4.984155384590849e-05,0.0,0.0,0.0
1.833479655033443e-05,-5.00067399116233e-05,0.0,0.0,0.0
1.808371234801598e-05,-5.038398376200348e-05,0.0,0.0,0.0
1.8317245121579617e-05,-5.0176367949461564e-05,0.0,0.0,0.0
1.842419987951871e-05,-5.005039201932959e-05,0.0,0.0,0.0
1.8498965800972655e-05,-4.998861186322756e-05,0.0,0.0,0.0
1.8548566004028544e-05,-5.0048238335875794e-05,0.0,0.0,0.0
1.8708849893300794e-05,-5.009790766052902e-05,0.0,0.0,0.0
1.8464694221620448e-05,-5.0460697821108624e-05,0.0,0.0,0.0
1.8462274965713732e-05,-5.05764655827079e-05,0.0,0.0,0.0
1.8539085431257263e-05,-5.040263931732625e-05,0.0,0.0,0.0
1.8836130038835108e-05,-5.031325781601481e-05,0.0,0.0,0.0
1.9129573047393933e-05,-5.044339195592329e-05,0.0,0.0,0.0
1.9138704374199733e-05,-5.062880154582672e-05,0.0,0.0,0.0
1.913226515171118e-05,-5.074190266896039e-05,0.0,0.0,0.0
1.9114781025564298e-05,-5.062718264525756e-05,0.0,0.0,0.0
1.8841048586182296e-05,-5.043009150540456e-05,0.0,0.0,0.0
1.9049566617468372e-05,-5.000654709874652e-05,0.0,0.0,0.0
1.9207849618396722e-05,-5.0026210374198854e-05,0.0,0.0,0.0
1.9072822396992706e-05,-5.00166934216395e-05,0.0,0.0,0.0
1.8931616068584844e-05,-4.976206037099473e-05,0.0,0.0,0.0
1.8724882465903647e-05,-4.990219895262271e-05,0.0,0.0,0.0
1.9328117559780367e-05,-4.9596510507399216e-05,0.0,0.0,0.0
1.9246826923335902e-05,-4.948850619257428e-05,0.0,0.0,0.0
1.868645085778553e-05,-4.9981077609118074e-05,0.0,0.0,0.0
1.844884900492616e-05,-4.997198630007915e-05,0.0,0.0,0.0
1.8473681848263368e-05,-4.9668728024698794e-05,0.0,0.0,0.0
1.8818431271938607e-05,-4.93053812533617e-05,0.0,0.0,0.0
1.898385198728647e-05,-4.937513222103007e-05,0.0,0.0,0.0
1.862146018538624e-05,-4.9173420848092064e-05,0.0,0.0,0.0
1.847449857450556e-05,-4.901471038465388e-05,0.0,0.0,0.0
1.8456874386174604e-05,-4.915600948152132e-05,0.0,0.0,0.0
1.8466127585270442e-05,-4.93295920023229e-05,0.0,0.0,0.0
1.846389568527229e-05,-4.9253616452915594e-05,0.0,0.0,0.0
1.835398688854184e-05,-4.9316571676172316e-05,0.0,0.0,0.0
1.8052514860755764e-05,-4.98958324897103e-05,0.0,0.0,0.0
1.779078957042657e-05,-4.972004535375163e-05,0.0,0.0,0.0
1.779514059307985e-05,-4.9731810577213764e-05,0.0,0.0,0.0
1.7787442629924044e-05,-5.0010799895972013e-05,0.0,0.0,0.0
1.7797663531382568e-05,-4.997782161808573e-05,0.0,0.0,0.0
1.7828186173574068e-05,-4.9700800445862114e-05,0.0,0.0,0.0
1.8131147953681648e-05,-4.967248241882771e-05,0.0,0.0,0.0
1.8447752154315822e-05,-4.968896973878145e-05,0.0,0.0,0.0
1.8478014681022614e-05,-4.968197754351422e-05,0.0,0.0,0.0
1.8449994968250394e-05,-4.968154462403618e-05,0.0,0.0,0.0
1.8475589968147688e-05,-4.996408097213134e-05,0.0,0.0,0.0
1.845254337240476e-05,-5.005099592381157e-05,0.0,0.0,0.0
1.8728205759543926e-05,-5.0249633204657584e-05,0.0,0.0,0.0
1.9066608729190193e-05,-5.0159866077592596e-05,0.0,0.0,0.0
1.91436120076105e-05,-4.995183553546667e-05,0.0,0.0,0.0
1.912726838781964e-05,-5.029614476370625e-05,0.0,0.0,0.0
1.8715738406172022e-05,-5.054662688053213e-05,0.0,0.0,0.0
1.8422600987832993e-05,-5.072262865724042e-05,0.0,0.0,0.0
1.887979669845663e-05,-5.047537706559524e-05,0.0,0.0,0.0
1.913029518618714e-05,-5.017924195271917e-05,0.0,0.0,0.0
1.896728645078838e-05,-5.03502378705889e-05,0.0,0.0,0.0
1.8953120161313564e-05,-5.0385042413836345e-05,0.0,0.0,0.0
1.9139142750645988e-05,-5.0008657126454636e-05,0.0,0.0,0.0
1.9133045498165302e-05,-4.9747432058211416e-05,0.0,0.0,0.0
1.9261997294961475e-05,-4.94857486046385e-05,0.0,0.0,0.0
1.946409247466363e-05,-4.9778805987443775e-05,0.0,0.0,0.0
1.9474242435535416e-05,-5.0029088015435264e-05,0.0,0.0,0.0
1.9277655155747198e-05,-4.9911712267203256e-05,0.0,0.0,0.0
1.892104046419263e-05,-4.9799808039097115e-05,0.0,0.0,0.0
1.8934133549919352e-05,-4.9819049309007823e-05,0.0,0.0,0.0
1.8683955204323865e-05,-4.94437845190987e-05,0.0,0.0,0.0
1.894747038022615e-05,-4.9264635890722275e-05,0.0,0.0,0.0
1.8857190298149362e-05,-4.94185442221351e-05,0.0,0.0,0.0
1.8048653146252036e-05,-4.9288089940091595e-05,0.0,0.0,0.0
1.790829082892742e-05,-4.939687642036006e-05,0.0,0.0,0.0
1.8322234609513544e-05,-4.9307978770229965e-05,0.0,0.0,0.0
1.8577349692350253e-05,-4.93787374580279e-05,0.0,0.0,0.0
1.8373692000750452e-05,-4.932440060656518e-05,0.0,0.0,0.0
1.826592233555857e-05,-4.962986349710263e-05,0.0,0.0,0.0
1.7788341210689396e-05,-4.919718412565999e-05,0.0,0.0,0.0
1.782312938303221e-05,-4.917038313578814e-05,0.0,0.0,0.0
1.800871905288659e-05,-4.968475332134403e-05,0.0,0.0,0.0
1.7934444258571602e-05,-4.9619429773883894e-05,0.0,0.0,0.0
1.7754648069967516e-05,-5.0163456762675196e-05,0.0,0.0,0.0
1.7612088413443416e-05,-5.034420973970555e-05,0.0,0.0,0.0
1.7623942767386325e-05,-5.017239163862541e-05,0.0,0.0,0.0
1.7813816157286055e-05,-5.000023156753741e-05,0.0,0.0,0.0
1.7953359929379076e-05,-4.986442581866868e-05,0.0,0.0,0.0
1.8130378521163948e-05,-4.982584505341947e-05,0.0,0.0,0.0
1.8134691345039755e-05,-5.018255615141243e-05,0.0,0.0,0.0
1.8251323126605712e-05,-5.020359458285384e-05,0.0,0.0,0.0
1.8478578567737713e-05,-5.003398473490961e-05,0.0,0.0,0.0
1.8443301087245345e-05,-5.000779128749855e-05,0.0,0.0,0.0
1.848705687734764e-05,-5.0239836127730086e-05,0.0,0.0,0.0
1.8437509424984455e-05,-5.0654511142056435e-05,0.0,0.0,0.0
1.849050386226736e-05,-5.0719572755042464e-05,0.0,0.0,0.0
1.8361643014941365e-05,-5.059304021415301e-05,0.0,0.0,0.0
1.824362698243931e-05,-5.046145088272169e-05,0.0,0.0,0.0
1.844083635660354e-05,-5.057434827904217e-05,0.0,0.0,0.0
1.879089541034773e-05,-5.0480299250921234e-05,0.0,0.0,0.0
1.8468703274265863e-05,-5.061956471763551e-05,0.0,0.0,0.0
1.8459100829204544e-05,-5.100741327623837e-05,0.0,0.0,0.0
1.846724990173243e-05,-5.0110971642425284e-05,0.0,0.0,0.0
1.8746823116089217e-05,-5.0223778089275584e-05,0.0,0.0,0.0
1.856763265095651e-05,-5.019280797569081e-05,0.0,0.0,0.0
1.918459020089358e-05,-4.935028118779883e-05,0.0,0.0,0.0
1.9383269318495877e-05,-4.939550126437098e-05,0.0,0.0,0.0
1.8474080206942745e-05,-4.930700742988847e-05,0.0,0.0,0.0
1.8783459381666034e-05,-4.9849670176627114e-05,0.0,0.0,0.0
1.8978134903591126e-05,-5.004003833164461e-05,0.0,0.0,0.0
1.87638452189276e-05,-5.0000842747977003e-05,0.0,0.0,0.0
1.8588503735372797e-05,-4.983281542081386e-05,0.0,0.0,0.0
1.8681645087781362e-05,-4.965519474353641e-05,0.0,0.0,0.0
1.875770431070123e-05,-4.934552634949796e-05,0.0,0.0,0.0
1.8859996998799033e-05,-4.914659075438976e-05,0.0,0.0,0.0
1.856652306742035e-05,-4.9062240577768534e-05,0.0,0.0,0.0
1.8690234355744906e-05,-4.879580592387356e-05,0.0,0.0,0.0
1.830281689763069e-05,-4.917069963994436e-05,0.0,0.0,0.0
1.8142340195481665e-05,-4.932768570142798e-05,0.0,0.0,0.0
1.8241633370053023e-05,-4.936198456562124e-05,0.0,0.0,0.0
1.8232221918879077e-05,-4.944462125422433e-05,0.0,0.0,0.0
1.7942960766959004e-05,-4.976895797881298e-05,0.0,0.0,0.0
1.796863398340065e-05,-4.9926762585528195e-05,0.0,0.0,0.0
1.7958875105250627e-05,-4.978341530659236e-05,0.0,0.0,0.0
1.8081218513543718e-05,-5.0038241170113906e-05,0.0,0.0,0.0
1.8533721231506206e-05,-5.036157017457299e-05,0.0,0.0,0.0
1.835734656197019e-05,-5.0309201469644904e-05,0.0,0.0,0.0
1.8251617802889086e-05,-5.008616790291853e-05,0.0,0.0,0.0
1.8323686163057573e-05,-5.028887972002849e-05,0.0,0.0,0.0
1.8270689906785265e-05,-5.040790347266011e-05,0.0,0.0,0.0
1.8868786355596967e-05,-5.0312901294091716e-05,0.0,0.0,0.0
1.8804596038535237e-05,-5.0386766815790907e-05,0.0,0.0,0.0
1.8736191123025492e-05,-5.0065485993400216e-05,0.0,0.0,0.0
1.915932443807833e-05,-5.025589416618459e-05,0.0,0.0,0.0
1.8298365830560215e-05,-5.089407932246104e-05,0.0,0.0,0.0
1.8637585526448674e-05,-5.103673174744472e-05,0.0,0.0,0.0
1.8332799299969338e-05,-5.0796676077879965e-05,0.0,0.0,0.0
1.898106165754143e-05,-5.0671831559157e-05,0.0,0.0,0.0
1.8909664504462853e-05,-5.070844781585038e-05,0.0,0.0,0.0
1.8784947314998135e-05,-5.0481976359151304e-05,0.0,0.0,0.0
1.9010596588486806e-05,-5.035951471654698e-05,0.0,0.0,0.0
1.909861202875618e-05,-5.017912189941853e-05,0.0,0.0,0.0
1.9183036783942953e-05,-5.017994044465013e-05,0.0,0.0,0.0
1.907734440464992e-05,-5.020466778660193e-05,0.0,0.0,0.0
1.9199011148884892e-05,-5.002357283956371e-05,0.0,0.0,0.0
1.919376700243447e-05,-5.001380486646667e-05,0.0,0.0,0.0
1.9532912119757384e-05,-5.00247988384217e-05,0.0,0.0,0.0
1.9299939594930038e-05,-5.001315730623901e-05,0.0,0.0,0.0
1.9023158529307693e-05,-5.0216382078360766e-05,0.0,0.0,0.0
1.8594575522001833e-05,-5.047729064244777e-05,0.0,0.0,0.0
1.8981965695274994e-05,-5.010027234675363e-05,0.0,0.0,0.0
1.85117623914266e-05,-4.975839328835718e-05,0.0,0.0,0.0
1.8427204850013368e-05,-4.920933861285448e-05,0.0,0.0,0.0
1.848964711825829e-05,-4.919449202134274e-05,0.0,0.0,0.0
1.8413351426715963e-05,-4.947516936226748e-05,0.0,0.0,0.0
1.8178094251197763e-05,-4.92434119223617e-05,0.0,0.0,0.0
1.8088137949234806e-05,-4.9431069783167914e-05,0.0,0.0,0.0
1.8732611351879314e-05,-4.9282913096249104e-05,0.0,0.0,0.0
1.858150790212676e-05,-4.967243512510322e-05,0.0,0.0,0.0
1.810851608752273e-05,-4.968738721800037e-05,0.0,0.0,0.0
1.8423750589136034e-05,-4.941775478073396e-05,0.0,0.0,0.0
1.797180993889924e-05,-4.9821363063529134e-05,0.0,0.0,0.0
1.7737032976583578e-05,-5.0080834625987336e-05,0.0,0.0,0.0
1.7392952941008843e-05,-4.9974511057371274e-05,0.0,0.0,0.0
1.7462491086916998e-05,-5.0261427531950176e-05,0.0,0.0,0.0
1.789848829503171e-05,-5.0355720304651186e-05,0.0,0.0,0.0
1.770296148606576e-05,-4.9963251512963325e-05,0.0,0.0,0.0
1.8046435798169114e-05,-4.9856636906042695e-05,0.0,0.0,0.0
1.8075594198307954e-05,-5.002558827982284e-05,0.0,0.0,0.0
1.848843203333672e-05,-5.002129546483047e-05,0.0,0.0,0.0
1.8917908164439723e-05,-5.015865826862864e-05,0.0,0.0,0.0
1.8879358322010376e-05,-5.036757283960469e-05,0.0,0.0,0.0
1.8459035345586017e-05,-5.021003380534239e-05,0.0,0.0,0.0
1.8581053154775873e-05,-5.028199666412547e-05,0.0,0.0,0.0
1.8683071175473742e-05,-5.0636510422918946e-05,0.0,0.0,0.0
1.838874231907539e-05,-5.074117871117778e-05,0.0,0.0,0.0
1.8215934687759727e-05,-5.064342622063123e-05,0.0,0.0,0.0
1.8436336176819168e-05,-5.073352440376766e-05,0.0,0.0,0.0
1.8552496840129606e-05,-5.0524005928309634e-05,0.0,0.0,0.0
1.8800330508383922e-05,-5.0110844313167036e-05,0.0,0.0,0.0
1.919100213854108e-05,-4.994033224647865e-05,0.0,0.0,0.0
1.939085268531926e-05,-5.011749090044759e-05,0.0,0.0,0.0
1.9235812942497432e-05,-5.0197246309835464e-05,0.0,0.0,0.0
1.9360933947609738e-05,-4.955069744028151e-05,0.0,0.0,0.0
1.898831942526158e-05,-4.917896512779407e-05,0.0,0.0,0.0
1.8917287889053114e-05,-4.976175841875374e-05,0.0,0.0,0.0
1.903708471218124e-05,-4.961164086125791e-05,0.0,0.0,0.0
1.8883185475715436e-05,-4.9480968300485983e-05,0.0,0.0,0.0
1.905863064166624e-05,-4.928045382257551e-05,0.0,0.0,0.0
1.8638294932316057e-05,-4.9395053792977706e-05,0.0,0.0,0.0
1.8700520740821958e-05,-4.976432683179155e-05,0.0,0.0,0.0
1.813668859540485e-05,-4.986367639503442e-05,0.0,0.0,0.0
1.8192393326899037e-05,-4.942623127135448e-05,0.0,0.0,0.0
1.8278829884366132e-05,-4.917643673252314e-05,0.0,0.0,0.0
1.8494065443519503e-05,-4.8814723413670436e-05,0.0,0.0,0.0
1.8452426957082935e-05,-4.867033931077458e-05,0.0,0.0,0.0
1.8457947589922696e-05,-4.885231828666292e-05,0.0,0.0,0.0
1.8482407540432177e-05,-4.913711018161848e-05,0.0,0.0,0.0
1.8157084923586808e-05,-4.937637277180329e-05,0.0,0.0,0.0
1.7841040971688926e-05,-4.9313657655147836e-05,0.0,0.0,0.0
1.785500717232935e-05,-4.961939703207463e-05,0.0,0.0,0.0
1.806642467272468e-05,-4.984857514500618e-05,0.0,0.0,0.0
1.7759208276402205e-05,-4.98563313158229e-05,0.0,0.0,0.0
1.7828559066401795e-05,-4.9928406951949e-05,0.0,0.0,0.0
1.775331656972412e-05,-5.017574585508555e-05,0.0,0.0,0.0
1.789533234841656e-05,-5.0191942136734724e-05,0.0,0.0,0.0
1.8113109035766684e-05,-5.013444024370983e-05,0.0,0.0,0.0
1.845105543907266e-05,-4.987730790162459e-05,0.0,0.0,0.0
1.816593976400327e-05,-4.980266385246068e-05,0.0,0.0,0.0
1.8421935237711295e-05,-4.9583704821998253e-05,0.0,0.0,0.0
1.849663385655731e-05,-4.976492346031591e-05,0.0,0.0,0.0
1.8437018297845498e-05,-4.9905596824828535e-05,0.0,0.0,0.0
1.8484273823560216e-05,-5.0662929425016046e-05,0.0,0.0,0.0
1.8446993635734543e-05,-5.069561302661896e-05,0.0,0.0,0.0
1.847637031460181e-05,-5.0679442210821435e-05,0.0,0.0,0.0
1.8453110897098668e-05,-5.021737888455391e-05,0.0,0.0,0.0
1.8471771909389645e-05,-5.017700823373161e-05,0.0,0.0,0.0
1.8456428733770736e-05,-5.0672850193222985e-05,0.0,0.0,0.0
1.846951818151865e-05,-5.0626578740775585e-05,0.0,0.0,0.0
1.886193967948202e-05,-5.034475543652661e-05,0.0,0.0,0.0
1.8786407963489182e-05,-4.974546027369797e-05,0.0,0.0,0.0
1.841163611970842e-05,-5.0105780246667564e-05,0.0,0.0,0.0
1.867692481027916e-05,-5.031712134950794e-05,0.0,0.0,0.0
1.876772876130417e-05,-5.022897676099092e-05,0.0,0.0,0.0
1.8973887563333847e-05,-4.998787335352972e-05,0.0,0.0,0.0
1.8973369151353836e-05,-5.0046222895616665e-05,0.0,0.0,0.0
1.8951121091959067e-05,-4.974051262252033e-05,0.0,0.0,0.0
1.9105949832010083e-05,-4.9618804041529074e-05,0.0,0.0,0.0
1.894615161290858e-05,-4.9963487981585786e-05,0.0,0.0,0.0
1.8474336684448645e-05,-5.006607898394577e-05,0.0,0.0,0.0
1.8453185475664213e-05,-4.989486842532642e-05,0.0,0.0,0.0
1.8472868759999983e-05,-4.9662849050946534e-05,0.0,0.0,0.0
1.8454808014212176e-05,-4.93288753204979e-05,0.0,0.0,0.0
1.8524324332247488e-05,-4.936138793709688e-05,0.0,0.0,0.0
1.8717775674303994e-05,-4.933850505040027e-05,0.0,0.0,0.0
1.8499869838706218e-05,-4.935282777296379e-05,0.0,0.0,0.0
1.8108576114173047e-05,-4.93247716804035e-05,0.0,0.0,0.0
1.814309143810533e-05,-4.905249079456553e-05,0.0,0.0,0.0
1.840287950471975e-05,-4.926761903334409e-05,0.0,0.0,0.0
1.823693855840247e-05,-4.996528150513768e-05,0.0,0.0,0.0
1.8049386198981665e-05,-4.9777929234551266e-05,0.0,0.0,0.0
1.844657708716113e-05,-4.93692459713202e-05,0.0,0.0,0.0
1.819945828174241e-05,-4.961380182066932e-05,0.0,0.0,0.0
1.834676913858857e-05,-4.992432877770625e-05,0.0,0.0,0.0
1.82804033102002e-05,-5.026367580285296e-05,0.0,0.0,0.0
1.8069813449983485e-05,-5.014293492422439e-05,0.0,0.0,0.0
1.7976461094804108e-05,-5.020492244511843e-05,0.0,0.0,0.0
1.8116186765837483e-05,-4.999756129109301e-05,0.0,0.0,0.0
1.8535771232564002e-05,-4.9823014705907553e-05,0.0,0.0,0.0
1.8403145077172667e-05,-5.022827099310234e-05,0.0,0.0,0.0
1.8512717360863462e-05,-5.033048364566639e-05,0.0,0.0,0.0
1.8424028894514777e-05,-5.0371196266496554e-05,0.0,0.0,0.0
1.877041722764261e-05,-5.0345050112809986e-05,0.0,0.0,0.0
1.8846214516088367e-05,-5.02312250318937e-05,0.0,0.0,0.0
1.8505983462091535e-05,-5.002839316148311e-05,0.0,0.0,0.0
1.8536762581788935e-05,-5.0219798140460625e-05,0.0,0.0,0.0
1.871257154562045e-05,-5.067367237643339e-05,0.0,0.0,0.0
1.8563254343462177e-05,-5.070155020803213e-05,0.0,0.0,0.0
1.8760607417789288e-05,-5.060972034698352e-05,0.0,0.0,0.0
1.896326466521714e-05,-5.038247036281973e-05,0.0,0.0,0.0
1.9272471035947092e-05,-5.038718518335372e-05,0.0,0.0,0.0
1.8943877876154147e-05,-5.0673363148234785e-05,0.0,0.0,0.0
1.8706068658502772e-05,-5.0675800594035536e-05,0.0,0.0,0.0
1.9202947441954166e-05,-5.035512731410563e-05,0.0,0.0,0.0
1.907747173390817e-05,-5.0044651288772e-05,0.0,0.0,0.0
1.91822909982875e-05,-4.970830923411995e-05,0.0,0.0,0.0
1.8543289115768857e-05,-4.9940321332542226e-05,0.0,0.0,0.0
1.8418308172840625e-05,-4.9540070904185995e-05,0.0,0.0,0.0
1.9013772543985397e-05,-4.949140202370472e-05,0.0,0.0,0.0
1.8672761143534444e-05,-4.956110933562741e-05,0.0,0.0,0.0
1.8386670490144752e-05,-4.945470573147759e-05,0.0,0.0,0.0
1.8525470295571722e-05,-4.9809565098257735e-05,0.0,0.0,0.0
1.862721546785906e-05,-4.9583613872528076e-05,0.0,0.0,0.0
1.9056222299695946e-05,-4.9557784222997725e-05,0.0,0.0,0.0
1.910768696689047e-05,-4.927704139845446e-05,0.0,0.0,0.0
1.8791124603012577e-05,-4.921733125229366e-05,0.0,0.0,0.0
1.87780551641481e-05,-4.914121745969169e-05,0.0,0.0,0.0
1.884075754787773e-05,-4.9536331061972305e-05,0.0,0.0,0.0
1.844628968683537e-05,-4.967028144164942e-05,0.0,0.0,0.0
1.819432873162441e-05,-4.96845314046368e-05,0.0,0.0,0.0
1.793120100046508e-05,-4.969201108906418e-05,0.0,0.0,0.0
1.7984903024625964e-05,-4.966689448338002e-05,0.0,0.0,0.0
1.7726744772517122e-05,-4.981228994438425e-05,0.0,0.0,0.0
1.7525782823213376e-05,-4.978520519216545e-05,0.0,0.0,0.0
1.7801576177589595e-05,-4.9513477279106155e-05,0.0,0.0,0.0
1.7778598703444004e-05,-4.958621502737515e-05,0.0,0.0,0.0
1.7808311895350926e-05,-4.983514008927159e-05,0.0,0.0,0.0
1.7880085579236038e-05,-4.991166133549996e-05,0.0,0.0,0.0
1.8418999388813972e-05,-5.0113110773963854e-05,0.0,0.0,0.0
1.849762338679284e-05,-4.990590605302714e-05,0.0,0.0,0.0
1.8437945982441306e-05,-4.9769849283620715e-05,0.0,0.0,0.0
1.8481496226741e-05,-4.929915667162277e-05,0.0,0.0,0.0
1.845151200541295e-05,-4.9960886826738715e-05,0.0,0.0,0.0
1.8470243958290666e-05,-5.034770947531797e-05,0.0,0.0,0.0
1.899242852232419e-05,-5.0345777708571404e-05,0.0,0.0,0.0
1.8692728190217167e-05,-5.0620474212337285e-05,0.0,0.0,0.0
1.8591288608149625e-05,-5.0709739298326895e-05,0.0,0.0,0.0
1.8921160517493263e-05,-5.067764868726954e-05,0.0,0.0,0.0
1.847820749389939e-05,-5.0697504775598645e-05,0.0,0.0,0.0
1.8518308934289962e-05,-5.0263166485819966e-05,0.0,0.0,0.0
1.8423703295411542e-05,-5.0182883569505066e-05,0.0,0.0,0.0
1.8872971850214526e-05,-5.0596656365087256e-05,0.0,0.0,0.0
1.93223386304453e-05,-5.047526792623103e-05,0.0,0.0,0.0
1.9126176994177513e-05,-5.0378748710500076e-05,0.0,0.0,0.0
1.8639933841768652e-05,-5.0172275223303586e-05,0.0,0.0,0.0
1.8753471522359177e-05,-4.974190960638225e-05,0.0,0.0,0.0
1.8866245227400213e-05,-4.933200034429319e-05,0.0,0.0,0.0
1.859047006291803e-05,-4.936259574606083e-05,0.0,0.0,0.0
1.891162719402928e-05,-4.933362652081996e-05,0.0,0.0,0.0
1.8910661310655996e-05,-4.9573456635698676e-05,0.0,0.0,0.0
1.841118501033634e-05,-4.9976322770817205e-05,0.0,0.0,0.0
1.8191729395766743e-05,-5.0056318286806345e-05,0.0,0.0,0.0
1.8461312720319256e-05,-4.991254900232889e-05,0.0,0.0,0.0
1.8527583961258642e-05,-4.967214408679865e-05,0.0,0.0,0.0
1.871814311016351e-05,-4.922564767184667e-05,0.0,0.0,0.0
1.851812885433901e-05,-4.8795147449709475e-05,0.0,0.0,0.0
1.8353994164499454e-05,-4.888114199275151e-05,0.0,0.0,0.0
1.7928139641298912e-05,-4.883946894551627e-05,0.0,0.0,0.0
1.7989659681916237e-05,-4.916435500490479e-05,0.0,0.0,0.0
1.8242675650981255e-05,-4.9499078158987686e-05,0.0,0.0,0.0
1.7756867237039842e-05,-4.950151560478844e-05,0.0,0.0,0.0
1.7830307115218602e-05,-4.9552218115422875e-05,0.0,0.0,0.0
1.801885991881136e-05,-4.971809539711103e-05,0.0,0.0,0.0
1.793412411643658e-05,-5.043446071795188e-05,0.0,0.0,0.0
1.7959611795959063e-05,-5.0249993364559487e-05,0.0,0.0,0.0
1.8426468159304932e-05,-5.043049532105215e-05,0.0,0.0,0.0
1.842673918872606e-05,-5.009165397495963e-05,0.0,0.0,0.0
1.8488377463654615e-05,-5.0029848353005946e-05,0.0,0.0,0.0
1.8639879272086546e-05,-4.983233884559013e-05,0.0,0.0,0.0
1.8816861484083347e-05,-4.983549297321588e-05,0.0,0.0,0.0
1.879037699836772e-05,-5.0063910748576745e-05,0.0,0.0,0.0
1.880035961221438e-05,-4.996948700863868e-05,0.0,0.0,0.0
1.8952880054712296e-05,-5.022062032367103e-05,0.0,0.0,0.0
1.898472328321077e-05,-5.0436690798960626e-05,0.0,0.0,0.0
1.8947654098155908e-05,-5.061399133410305e-05,0.0,0.0,0.0
1.8869135601562448e-05,-5.031266118749045e-05,0.0,0.0,0.0
1.8519296645536087e-05,-5.0503051170380786e-05,0.0,0.0,0.0
1.8507133063394576e-05,-5.0634298531804234e-05,0.0,0.0,0.0
1.87432233360596e-05,-5.065745426691137e-05,0.0,0.0,0.0
1.8606693629408255e-05,-5.0254810048500076e-05,0.0,0.0,0.0
1.9091125068371184e-05,-5.006828723708168e-05,0.0,0.0,0.0
1.917016015795525e-05,-4.9975758884102106e-05,0.0,0.0,0.0
1.914918357215356e-05,-5.005644561606459e-05,0.0,0.0,0.0
1.9457276721368544e-05,-4.998758959118277e-05,0.0,0.0,0.0
1.9419750969973393e-05,-5.000226155971177e-05,0.0,0.0,0.0
1.8576656657387502e-05,-4.941133374813944e-05,0.0,0.0,0.0
1.8942908354802057e-05,-4.986585918231867e-05,0.0,0.0,0.0
1.9295332094770856e-05,-5.015065835323185e-05,0.0,0.0,0.0
1.8736542187980376e-05,-4.990693196305074e-05,0.0,0.0,0.0
1.861678174464032e-05,-5.011379471397959e-05,0.0,0.0,0.0
1.8375867512077093e-05,-4.9939895689021796e-05,0.0,0.0,0.0
1.8765367713058367e-05,-5.008443622500636e-05,0.0,0.0,0.0
1.854939000622835e-05,-4.974258990841918e-05,0.0,0.0,0.0
1.84579494089121e-05,-4.9491925892652944e-05,0.0,0.0,0.0
1.8474289390724152e-05,-4.931436706101522e-05,0.0,0.0,0.0
1.844831604103092e-05,-4.89901467517484e-05,0.0,0.0,0.0
1.848169631557539e-05,-4.881622953689657e-05,0.0,0.0,0.0
1.8272736269864254e-05,-4.9220929213333875e-05,0.0,0.0,0.0
1.8145099602406844e-05,-4.964259278494865e-05,0.0,0.0,0.0
1.810865978768561e-05,-5.003793557989411e-05,0.0,0.0,0.0
1.8147722585126758e-05,-4.9869435315486044e-05,0.0,0.0,0.0
1.8107390133081935e-05,-4.969384826836176e-05,0.0,0.0,0.0
1.8030847058980726e-05,-4.979574077879079e-05,0.0,0.0,0.0
1.7678257790976204e-05,-5.011315079173073e-05,0.0,0.0,0.0
1.757544669089839e-05,-5.035395224695094e-05,0.0,0.0,0.0
1.79220805875957e-05,-5.035179856349714e-05,0.0,0.0,0.0
1.8380183973931707e-05,-5.036074799136259e-05,0.0,0.0,0.0
1.8223880033474416e-05,-5.03464943903964e-05,0.0,0.0,0.0
1.840754885051865e-05,-5.0364727940177545e-05,0.0,0.0,0.0
1.8510552763473243e-05,-5.038622111896984e-05,0.0,0.0,0.0
1.8423997971694916e-05,-5.0635037041502073e-05,0.0,0.0,0.0
1.8496051779948175e-05,-5.0390008254908025e-05,0.0,0.0,0.0
1.8436719983583316e-05,-5.0015150918625295e-05,0.0,0.0,0.0
1.8484950487618335e-05,-5.0307196943322197e-05,0.0,0.0,0.0
1.8446349713485688e-05,-5.0673701480263844e-05,0.0,0.0,0.0
1.9008391973329708e-05,-5.0690789066720754e-05,0.0,0.0,0.0
1.8683253074414097e-05,-5.069161124993116e-05,0.0,0.0,0.0
1.835095463320613e-05,-5.117746695759706e-05,0.0,0.0,0.0
1.9025410438189283e-05,-5.0952465244336054e-05,0.0,0.0,0.0
1.9106428226223215e-05,-5.036853690398857e-05,0.0,0.0,0.0
1.8943690520245582e-05,-5.020302705815993e-05,0.0,0.0,0.0
1.876577880466357e-05,-4.954753239871934e-05,0.0,0.0,0.0
1.9015424186363816e-05,-4.937268022331409e-05,0.0,0.0,0.0
1.8947810531244613e-05,-4.95103704452049e-05,0.0,0.0,0.0
1.896309549920261e-05,-4.987338979844935e-05,0.0,0.0,0.0
1.8828844986273907e-05,-4.985112536814995e-05,0.0,0.0,0.0
1.859585063357372e-05,-4.953664029017091e-05,0.0,0.0,0.0
1.8813176211551763e-05,-4.9351474444847554e-05,0.0,0.0,0.0
1.8657847249414772e-05,-4.934070966555737e-05,0.0,0.0,0.0
1.8602206182549708e-05,-4.9357226089341566e-05,0.0,0.0,0.0
1.866075581347104e-05,-4.933608215651475e-05,0.0,0.0,0.0
1.8507265849621035e-05,-4.936081313644536e-05,0.0,0.0,0.0
1.8425142116029747e-05,-4.9248374125454575e-05,0.0,0.0,0.0
1.8496466509532183e-05,-4.9123322241939604e-05,0.0,0.0,0.0
1.843524478317704e-05,-4.9160786147695035e-05,0.0,0.0,0.0
1.8487058696337044e-05,-4.8839243390830234e-05,0.0,0.0,0.0
1.8443963199388236e-05,-4.892780270893127e-05,0.0,0.0,0.0
1.8447122783982195e-05,-4.9420385039411485e-05,0.0,0.0,0.0
1.811167567211669e-05,-4.9286765715805814e-05,0.0,0.0,0.0
1.7516373191028833e-05,-4.939780046697706e-05,0.0,0.0,0.0
1.7693764675641432e-05,-4.95945023430977e-05,0.0,0.0,0.0
1.8149936295230873e-05,-4.975590491085313e-05,0.0,0.0,0.0
1.8099262888426892e-05,-4.989144144929014e-05,0.0,0.0,0.0
1.8148792150896043e-05,-5.035336289438419e-05,0.0,0.0,0.0
1.835775219660718e-05,-4.983508188161068e-05,0.0,0.0,0.0
1.8266138795297593e-05,-4.9647962441667914e-05,0.0,0.0,0.0
1.7852786186267622e-05,-4.994175105821341e-05,0.0,0.0,0.0
1.78099398908671e-05,-5.000588498660363e-05,0.0,0.0,0.0
1.8185604858445004e-05,-4.9832819058792666e-05,0.0,0.0,0.0
1.8496686607250012e-05,-4.945962064084597e-05,0.0,0.0,0.0
1.880216041172389e-05,-4.954847099725157e-05,0.0,0.0,0.0
1.882411197584588e-05,-4.9840764404507354e-05,0.0,0.0,0.0
1.8275808542966843e-05,-5.0038117478834465e-05,0.0,0.0,0.0
1.829241227824241e-05,-5.0148708396591246e-05,0.0,0.0,0.0
1.845447695814073e-05,-5.0233531510457397e-05,0.0,0.0,0.0
1.8464790628058836e-05,-5.0263093726243824e-05,0.0,0.0,0.0
1.846827581175603e-05,-5.0567210564622656e-05,0.0,0.0,0.0
1.8453543816576712e-05,-5.0264767196495086e-05,0.0,0.0,0.0
1.8477208868716843e-05,-5.002131365472451e-05,0.0,0.0,0.0
1.844669895945117e-05,-5.001630415790714e-05,0.0,0.0,0.0
1.8631071725394577e-05,-5.002211037208326e-05,0.0,0.0,0.0
1.9064142179558985e-05,-5.001598401577212e-05,0.0,0.0,0.0
1.9198510926798917e-05,-5.002203397452831e-05,0.0,0.0,0.0
1.9077982869930565e-05,-5.00163841934409e-05,0.0,0.0,0.0
1.915303073474206e-05,-5.002137186238542e-05,0.0,0.0,0.0
1.877281829365529e-05,-4.9995975132333115e-05,0.0,0.0,0.0
1.8510010704630986e-05,-4.972658643964678e-05,0.0,0.0,0.0
1.842385063355323e-05,-4.9934293201658875e-05,0.0,0.0,0.0
1.849635737016797e-05,-5.0089965952793136e-05,0.0,0.0,0.0
1.8702547095017508e-05,-4.996079587726854e-05,0.0,0.0,0.0
1.8599304894451052e-05,-4.981072197551839e-05,0.0,0.0,0.0
1.8387889213045128e-05,-4.93709922011476e-05,0.0,0.0,0.0
1.8523764083511196e-05,-4.960732258041389e-05,0.0,0.0,0.0
1.8416734747006558e-05,-4.946690387441777e-05,0.0,0.0,0.0
1.8497894416213967e-05,-4.931676448904909e-05,0.0,0.0,0.0
1.843974860094022e-05,-4.917525438941084e-05,0.0,0.0,0.0
1.8477610865375027e-05,-4.87778197566513e-05,0.0,0.0,0.0
1.8457438272889704e-05,-4.906528556603007e-05,0.0,0.0,0.0
1.8462373191141523e-05,-4.9678270443109795e-05,0.0,0.0,0.0
1.8151322365156375e-05,-5.003892511012964e-05,0.0,0.0,0.0
1.792660441424232e-05,-5.000050077796914e-05,0.0,0.0,0.0
1.8142965927836485e-05,-5.003626938560046e-05,0.0,0.0,0.0
1.8237746189697646e-05,-5.000332384952344e-05,0.0,0.0,0.0
1.8356960936216637e-05,-5.003332262276672e-05,0.0,0.0,0.0
1.8020700736087747e-05,-5.021904144086875e-05,0.0,0.0,0.0
1.790696296666283e-05,-5.0670947530306876e-05,0.0,0.0,0.0
1.80895203811815e-05,-5.0536953494884074e-05,0.0,0.0,0.0
1.8237473341287114e-05,-5.004894046578556e-05,0.0,0.0,0.0
1.8405815353617072e-05,-5.0057329644914716e-05,0.0,0.0,0.0
1.856729249993805e-05,-5.0294489483349025e-05,0.0,0.0,0.0
1.868052095232997e-05,-5.0015012675430626e-05,0.0,0.0,0.0
1.8563634512247518e-05,-4.971739690518007e-05,0.0,0.0,0.0
1.8378888853476383e-05,-5.000019882572815e-05,0.0,0.0,0.0
1.8533544789534062e-05,-5.0346538046142086e-05,0.0,0.0,0.0
1.869357583927922e-05,-5.0649621698539704e-05,0.0,0.0,0.0
1.8608749087434262e-05,-5.04478084621951e-05,0.0,0.0,0.0
1.8357037333771586e-05,-5.0289512728340924e-05,0.0,0.0,0.0
1.854783477028832e-05,-5.0152826588600874e-05,0.0,0.0,0.0
1.91324288607575e-05,-5.0190003094030544e-05,0.0,0.0,0.0
1.8899407223216258e-05,-5.020749813411385e-05,0.0,0.0,0.0
1.828847234719433e-05,-4.992572939954698e-05,0.0,0.0,0.0
1.860003249021247e-05,-5.030513057135977e-05,0.0,0.0,0.0
1.8764838387141936e-05,-5.011488246964291e-05,0.0,0.0,0.0
1.923680247273296e-05,-5.002991383662447e-05,0.0,0.0,0.0
1.9244582290411927e-05,-4.983564213034697e-05,0.0,0.0,0.0
1.9352448362042196e-05,-4.984140832675621e-05,0.0,0.0,0.0
1.9262119167251512e-05,-5.003991464036517e-05,0.0,0.0,0.0
1.948230783455074e-05,-4.9996000598184764e-05,0.0,0.0,0.0
1.9339002392371185e-05,-5.004361446481198e-05,0.0,0.0,0.0
1.9118258933303878e-05,-4.9738500820240006e-05,0.0,0.0,0.0
1.916415203595534e-05,-4.939064456266351e-05,0.0,0.0,0.0
1.8882796211983077e-05,-4.930731302010827e-05,0.0,0.0,0.0
1.854091533459723e-05,-4.938517668051645e-05,0.0,0.0,0.0
1.8555267160991207e-05,-4.9228157877223566e-05,0.0,0.0,0.0
1.909388265630696e-05,-4.8990776122082025e-05,0.0,0.0,0.0
1.878659168141894e-05,-4.865488881478086e-05,0.0,0.0,0.0
1.887117286969442e-05,-4.880153210251592e-05,0.0,0.0,0.0
1.899439848784823e-05,-4.926739347865805e-05,0.0,0.0,0.0
1.852352943387814e-05,-4.9479553126730025e-05,0.0,0.0,0.0
1.7780221241991967e-05,-4.984256156603806e-05,0.0,0.0,0.0
1.81172217708081e-05,-4.954331961926073e-05,0.0,0.0,0.0
1.7847043636720628e-05,-4.91850332764443e-05,0.0,0.0,0.0
1.7747321180650033e-05,-5.0033453590003774e-05,0.0,0.0,0.0
1.8093964172294363e-05,-4.972284295945428e-05,0.0,0.0,0.0
1.813320704968646e-05,-4.992300091544166e-05,0.0,0.0,0.0
1.836674528021831e-05,-4.9825528549263254e-05,0.0,0.0,0.0
1.8262324374518357e-05,-4.9840185965877026e-05,0.0,0.0,0.0
1.807598164305091e-05,-5.033739944337867e-05,0.0,0.0,0.0
1.8169816030422226e-05,-5.007879371987656e-05,0.0,0.0,0.0
1.829670691222418e-05,-5.005821003578603e-05,0.0,0.0,0.0
1.850264197855722e-05,-4.979145887773484e-05,0.0,0.0,0.0
1.843442805693485e-05,-4.9886170017998666e-05,0.0,0.0,0.0
1.86532961379271e-05,-5.000592500437051e-05,0.0,0.0,0.0
1.863273610069882e-05,-5.019207310397178e-05,0.0,0.0,0.0
1.846265331550967e-05,-5.034253263147548e-05,0.0,0.0,0.0
1.846929626481142e-05,-5.036717266193591e-05,0.0,0.0,0.0
1.8708400602918118e-05,-5.047012018621899e-05,0.0,0.0,0.0
1.9014303688891232e-05,-5.069362305221148e-05,0.0,0.0,0.0
1.8703074601944536e-05,-5.058043097960763e-05,0.0,0.0,0.0
1.8570275642559864e-05,-5.02783695992548e-05,0.0,0.0,0.0
1.8936483684228733e-05,-5.010568202123977e-05,0.0,0.0,0.0
1.945887015608605e-05,-5.0257363909622654e-05,0.0,0.0,0.0
1.9412651454331353e-05,-5.006375431548804e-05,0.0,0.0,0.0
1.9162267562933266e-05,-4.9928126827580854e-05,0.0,0.0,0.0
1.9150300431647338e-05,-4.978950892109424e-05,0.0,0.0,0.0
1.9461494957795367e-05,-4.993045513401739e-05,0.0,0.0,0.0
1.9454020730336197e-05,-5.0093171012122184e-05,0.0,0.0,0.0
1.917540794238448e-05,-4.995796552975662e-05,0.0,0.0,0.0
1.8810751498676836e-05,-5.0068614655174315e-05,0.0,0.0,0.0
1.85147382580908e-05,-4.997976066078991e-05,0.0,0.0,0.0
1.843045902205631e-05,-4.951765004079789e-05,0.0,0.0,0.0
1.8492572053219192e-05,-4.925631947116926e-05,0.0,0.0,0.0
1.8438007828081027e-05,-4.942081432091072e-05,0.0,0.0,0.0
1.8485177861293778e-05,-4.882271969108842e-05,0.0,0.0,0.0
1.8221848222310655e-05,-4.911686119157821e-05,0.0,0.0,0.0
1.7908723748405464e-05,-4.918742342852056e-05,0.0,0.0,0.0
1.7982123608817346e-05,-4.874368823948316e-05,0.0,0.0,0.0
1.815136056393385e-05,-4.8912217607721686e-05,0.0,0.0,0.0
1.8290074876858853e-05,-4.8983019951265305e-05,0.0,0.0,0.0
1.8144664863939397e-05,-4.954914766130969e-05,0.0,0.0,0.0
1.7926651707966812e-05,-5.000843884772621e-05,0.0,0.0,0.0
1.8146720321965404e-05,-5.003016849514097e-05,0.0,0.0,0.0
1.7977225070353597e-05,-5.000787496101111e-05,0.0,0.0,0.0
1.7803726223064587e-05,-4.99024499731604e-05,0.0,0.0,0.0
1.79030485014664e-05,-4.9681548262014985e-05,0.0,0.0,0.0
1.8223023289465345e-05,-4.979203004040755e-05,0.0,0.0,0.0
1.8461645595380105e-05,-5.0001177442027256e-05,0.0,0.0,0.0
1.8461003492120653e-05,-4.994971095584333e-05,0.0,0.0,0.0
1.8469308997737244e-05,-4.976625496055931e-05,0.0,0.0,0.0
1.8582320990390144e-05,-5.0050275604007766e-05,0.0,0.0,0.0
1.908847116283141e-05,-5.0300855946261436e-05,0.0,0.0,0.0
1.917086774483323e-05,-5.005163620808162e-05,0.0,0.0,0.0
1.907585101434961e-05,-4.9991573177976534e-05,0.0,0.0,0.0
1.8835706214304082e-05,-5.0041893700836226e-05,0.0,0.0,0.0
1.8460048522683792e-05,-5.000054807169363e-05,0.0,0.0,0.0
1.8175063814851455e-05,-5.0320821173954755e-05,0.0,0.0,0.0
1.8368071323493496e-05,-5.038478411734104e-05,0.0,0.0,0.0
1.8527620341046713e-05,-5.086010423838161e-05,0.0,0.0,0.0
1.841380617406685e-05,-5.086293458589353e-05,0.0,0.0,0.0
1.8744914996204898e-05,-5.0092592573491856e-05,0.0,0.0,0.0
1.856703238445334e-05,-5.005389539292082e-05,0.0,0.0,0.0
1.8879003619076684e-05,-5.021466495236382e-05,0.0,0.0,0.0
1.9207780496799387e-05,-5.061008414486423e-05,0.0,0.0,0.0
1.906998841150198e-05,-5.027070801588707e-05,0.0,0.0,0.0
1.900037932500709e-05,-5.000067176297307e-05,0.0,0.0,0.0
1.891919964691624e-05,-4.9855887482408434e-05,0.0,0.0,0.0
1.9024109860765748e-05,-4.982894824934192e-05,0.0,0.0,0.0
1.8585598809295334e-05,-5.00457281304989e-05,0.0,0.0,0.0
1.8505961634218693e-05,-4.969801375409588e-05,0.0,0.0,0.0
1.8429753254167736e-05,-4.937195990351029e-05,0.0,0.0,0.0
1.8489014109945856e-05,-4.919889397569932e-05,0.0,0.0,0.0
1.844508915382903e-05,-4.9038935685530305e-05,0.0,0.0,0.0
1.847525345510803e-05,-4.909523340757005e-05,0.0,0.0,0.0
1.8457320038578473e-05,-4.935183824272826e-05,0.0,0.0,0.0
1.8464501408743672e-05,-4.934459866490215e-05,0.0,0.0,0.0
1.8466653273208067e-05,-4.934975731885061e-05,0.0,0.0,0.0
1.8456521502230316e-05,-4.934650132781826e-05,0.0,0.0,0.0
1.847334897320252e-05,-4.940121289109811e-05,0.0,0.0,0.0
1.840849290601909e-05,-4.969431756762788e-05,0.0,0.0,0.0
1.81453851837432e-05,-5.0009923143079504e-05,0.0,0.0,0.0
1.7785001546144485e-05,-5.0006517994916067e-05,0.0,0.0,0.0
1.7801012290874496e-05,-4.9717025831341743e-05,0.0,0.0,0.0
1.8068680219585076e-05,-4.965568587067537e-05,0.0,0.0,0.0
1.7903814296005294e-05,-4.99822199344635e-05,0.0,0.0,0.0
1.7707790902932175e-05,-5.00392634421587e-05,0.0,0.0,0.0
1.811941183404997e-05,-4.974567491444759e-05,0.0,0.0,0.0
1.8342419934924692e-05,-4.9913091061171144e-05,0.0,0.0,0.0
1.8516087948228233e-05,-5.005839193472639e-05,0.0,0.0,0.0
1.8420072592562065e-05,-4.998737131245434e-05,0.0,0.0,0.0
1.8498272766009904e-05,-5.004400736652315e-05,0.0,0.0,0.0
1.8436241589370184e-05,-5.000010787625797e-05,0.0,0.0,0.0
1.848369174695108e-05,-5.0224240112584084e-05,0.0,0.0,0.0
1.844929465733003e-05,-4.999517113901675e-05,0.0,0.0,0.0
1.8472104784450494e-05,-5.0004091463051736e-05,0.0,0.0,0.0
1.8459479179000482e-05,-5.038196104578674e-05,0.0,0.0,0.0
1.861213968368247e-05,-5.062885975348763e-05,0.0,0.0,0.0
1.8662440197658725e-05,-5.076589513919316e-05,0.0,0.0,0.0
1.846423401730135e-05,-5.022463665227406e-05,0.0,0.0,0.0
1.846569102781359e-05,-5.002884427085519e-05,0.0,0.0,0.0
1.8671278667170554e-05,-5.022446202929132e-05,0.0,0.0,0.0
1.9111002984573133e-05,-5.0664832087932155e-05,0.0,0.0,0.0
1.9152608729200438e-05,-5.054354915046133e-05,0.0,0.0,0.0
1.9047789464821108e-05,-5.004206832381897e-05,0.0,0.0,0.0
1.8832537534763105e-05,-5.0064310926245525e-05,0.0,0.0,0.0
1.882644028228242e-05,-5.028755549574271e-05,0.0,0.0,0.0
1.9079569028690457e-05,-5.0064310926245525e-05,0.0,0.0,0.0
1.8816050214809366e-05,-4.9947539082495496e-05,0.0,0.0,0.0
1.8500611986382864e-05,-4.973515751771629e-05,0.0,0.0,0.0
1.9057477402384393e-05,-4.932719093631022e-05,0.0,0.0,0.0
1.8624241420184262e-05,-4.936488039675169e-05,0.0,0.0,0.0
1.8606158846523613e-05,-4.960995283909142e-05,0.0,0.0,0.0
1.868053004727699e-05,-4.973267641616985e-05,0.0,0.0,0.0
1.8309528968529776e-05,-4.938750134897418e-05,0.0,0.0,0.0
1.8586846636026166e-05,-4.886020178673789e-05,0.0,0.0,0.0
1.836697629187256e-05,-4.885468297288753e-05,0.0,0.0,0.0
1.8982782421517186e-05,-4.9081190809374675e-05,0.0,0.0,0.0
1.8699745851336047e-05,-4.895655729342252e-05,0.0,0.0,0.0
1.8426741007715464e-05,-4.925718894810416e-05,0.0,0.0,0.0
1.8119859305443242e-05,-4.932988667860627e-05,0.0,0.0,0.0
1.7909587768372148e-05,-4.93585248477757e-05,0.0,0.0,0.0
1.8195330994785763e-05,-4.968309076502919e-05,0.0,0.0,0.0
1.790599344531074e-05,-5.0028073019348085e-05,0.0,0.0,0.0
1.7847400158643723e-05,-5.0016187742585316e-05,0.0,0.0,0.0
1.7880114683066495e-05,-5.00168462167494e-05,0.0,0.0,0.0
1.816718213376589e-05,-5.0025497330352664e-05,0.0,0.0,0.0
1.8209917470812798e-05,-5.000929013476707e-05,0.0,0.0,0.0
1.8481503502698615e-05,-5.003145633963868e-05,0.0,0.0,0.0
1.8256812836625613e-05,-5.000477176508866e-05,0.0,0.0,0.0
1.7926713553606533e-05,-5.0034679588861763e-05,0.0,0.0,0.0
1.8138878658646718e-05,-5.007714207749814e-05,0.0,0.0,0.0
1.8617995010572486e-05,-5.028230953030288e-05,0.0,0.0,0.0
1.90569171536481e-05,-5.0052691221935675e-05,0.0,0.0,0.0
1.911320759973023e-05,-5.0035276217386127e-05,0.0,0.0,0.0
1.8483586245565675e-05,-5.037146183894947e-05,0.0,0.0,0.0
1.8420918422634713e-05,-5.062452328274958e-05,0.0,0.0,0.0
1.819166573113762e-05,-5.012078690924682e-05,0.0,0.0,0.0
1.83567881322233e-05,-4.9934893468162045e-05,0.0,0.0,0.0
1.883353979792446e-05,-5.008766311220825e-05,0.0,0.0,0.0
1.9286990209366195e-05,-5.023012272431515e-05,0.0,0.0,0.0
1.932325540110469e-05,-5.0431950512574986e-05,0.0,0.0,0.0
1.9011617041542195e-05,-5.004923150409013e-05,0.0,0.0,0.0
1.923833042383194e-05,-5.050589970778674e-05,0.0,0.0,0.0
1.9049110051128082e-05,-5.0281592848477885e-05,0.0,0.0,0.0
1.920446811709553e-05,-4.9940772441914305e-05,0.0,0.0,0.0
1.9079532648902386e-05,-4.988597356714308e-05,0.0,0.0,0.0
1.898587288451381e-05,-4.980017911293544e-05,0.0,0.0,0.0
1.893752778414637e-05,-4.9732396291801706e-05,0.0,0.0,0.0
1.9173137843608856e-05,-4.926916881231591e-05,0.0,0.0,0.0
1.894888555398211e-05,-4.9412017688155174e-05,0.0,0.0,0.0
1.8962826288770884e-05,-4.9445101467426866e-05,0.0,0.0,0.0
1.8849836123990826e-05,-4.958288627676666e-05,0.0,0.0,0.0
1.8603092030389234e-05,-4.919802086078562e-05,0.0,0.0,0.0
1.8902570445789024e-05,-4.9151178245665506e-05,0.0,0.0,0.0
1.8916400222224183e-05,-4.9322028644382954e-05,0.0,0.0,0.0
1.850421176641248e-05,-4.9268452130490914e-05,0.0,0.0,0.0
1.8338510926696472e-05,-4.910720235784538e-05,0.0,0.0,0.0
1.8262568119098432e-05,-4.931142757413909e-05,0.0,0.0,0.0
1.84465607162565e-05,-4.938396159559488e-05,0.0,0.0,0.0
1.8789109162753448e-05,-4.93649895361159e-05,0.0,0.0,0.0
1.8413846191833727e-05,-4.972898750565946e-05,0.0,0.0,0.0
1.813878770917654e-05,-5.000898090656847e-05,0.0,0.0,0.0
1.7771470083971508e-05,-5.03131486766506e-05,0.0,0.0,0.0
1.7498474335297942e-05,-4.97630717291031e-05,0.0,0.0,0.0
1.799426718207542e-05,-4.9906186177395284e-05,0.0,0.0,0.0
1.796419201127719e-05,-5.011093890061602e-05,0.0,0.0,0.0
1.7925900465343148e-05,-4.967995482729748e-05,0.0,0.0,0.0
1.8526057829149067e-05,-4.9961035983869806e-05,0.0,0.0,0.0
1.837825584516395e-05,-5.0036342145176604e-05,0.0,0.0,0.0
1.852965579018928e-05,-4.9999791372101754e-05,0.0,0.0,0.0
1.84140371857211e-05,-5.0039630878018215e-05,0.0,0.0,0.0
1.8497903511160985e-05,-4.999788507120684e-05,0.0,0.0,0.0
1.8846089005819522e-05,-5.004032573197037e-05,0.0,0.0,0.0
1.879117189673707e-05,-4.999823067919351e-05,0.0,0.0,0.0
1.877813156170305e-05,-5.003909609513357e-05,0.0,0.0,0.0
1.8840390112018213e-05,-5.017035800847225e-05,0.0,0.0,0.0
1.8425802409183234e-05,-5.053630593465641e-05,0.0,0.0,0.0
1.863307443272788e-05,-5.0523405661806464e-05,0.0,0.0,0.0
1.8928829376818612e-05,-5.023457924835384e-05,0.0,0.0,0.0
1.9125900507788174e-05,-5.00087407999672e-05,0.0,0.0,0.0
1.9270000848337077e-05,-5.014464841224253e-05,0.0,0.0,0.0
1.943289680639282e-05,-5.033590059611015e-05,0.0,0.0,0.0
1.951208832906559e-05,-5.0274513341719285e-05,0.0,0.0,0.0
1.9171160602127202e-05,-5.0025519158225507e-05,0.0,0.0,0.0
1.8723692846833728e-05,-5.001233876100741e-05,0.0,0.0,0.0
1.9046183297177777e-05,-4.996230563847348e-05,0.0,0.0,0.0
1.957709901034832e-05,-4.965149128111079e-05,0.0,0.0,0.0
1.9333565433043987e-05,-4.9362930440111086e-05,0.0,0.0,0.0
1.918889938679058e-05,-4.9365007726009935e-05,0.0,0.0,0.0
1.8418142644804902e-05,-4.9637415941106156e-05,0.0,0.0,0.0
1.8189752154285088e-05,-4.940904545946978e-05,0.0,0.0,0.0
1.8363181879976764e-05,-4.9871698138304055e-05,0.0,0.0,0.0
1.8546446881373413e-05,-5.014151247451082e-05,0.0,0.0,0.0
1.8662105503608473e-05,-4.93873558298219e-05,0.0,0.0,0.0
1.914148379000835e-05,-4.935865945299156e-05,0.0,0.0,0.0
1.8608472601044923e-05,-4.909853669232689e-05,0.0,0.0,0.0
1.8433154764352366e-05,-4.898324914393015e-05,0.0,0.0,0.0
1.8271512089995667e-05,-4.926394103677012e-05,0.0,0.0,0.0
1.786160282790661e-05,-4.9127986130770296e-05,0.0,0.0,0.0
1.8026537873083726e-05,-4.900393832940608e-05,0.0,0.0,0.0
1.810978756111581e-05,-4.9206206313101575e-05,0.0,0.0,0.0
1.7967113308259286e-05,-4.9541209591552615e-05,0.0,0.0,0.0
1.776222779881209e-05,-4.9677018978400156e-05,0.0,0.0,0.0
1.782152867235709e-05,-5.001123281545006e-05,0.0,0.0,0.0
1.7911990653374232e-05,-5.019773016101681e-05,0.0,0.0,0.0
1.8015427485806867e-05,-5.0031449063681066e-05,0.0,0.0,0.0
1.790011447155848e-05,-4.975001866114326e-05,0.0,0.0,0.0
1.8254864698974416e-05,-4.9496804422233254e-05,0.0,0.0,0.0
1.844093822001014e-05,-4.974741750629619e-05,0.0,0.0,0.0
1.8292790628038347e-05,-5.004224294680171e-05,0.0,0.0,0.0
1.798051380319521e-05,-4.9912439862964675e-05,0.0,0.0,0.0
1.840468030422926e-05,-4.9725131248123944e-05,0.0,0.0,0.0
1.851258821261581e-05,-4.971061207470484e-05,0.0,0.0,0.0
1.8422735593048856e-05,-5.00220266985707e-05,0.0,0.0,0.0
1.8496612028684467e-05,-5.0059094064636156e-05,0.0,0.0,0.0
1.843678364821244e-05,-5.0321435992373154e-05,0.0,0.0,0.0
1.8484344764146954e-05,-5.038341259933077e-05,0.0,0.0,0.0
1.844741200329736e-05,-5.0330254453001544e-05,0.0,0.0,0.0
1.8475218894309364e-05,-5.037566734245047e-05,0.0,0.0,0.0
1.873167093435768e-05,-5.033703564549796e-05,0.0,0.0,0.0
1.8842170902644284e-05,-5.036975926486775e-05,0.0,0.0,0.0
1.850949956860859e-05,-5.0086928240489215e-05,0.0,0.0,0.0
1.8948294382425956e-05,-4.9509300879435614e-05,0.0,0.0,0.0
1.919612259371206e-05,-4.9777143431128934e-05,0.0,0.0,0.0
1.8858530893339776e-05,-4.9653677706373855e-05,0.0,0.0,0.0
1.9035813238588162e-05,-4.923784945276566e-05,0.0,0.0,0.0
1.8930204532807693e-05,-4.964002073393203e-05,0.0,0.0,0.0
1.8978240404976532e-05,-4.9625083192950115e-05,0.0,0.0,0.0
1.8794600691762753e-05,-4.954790711053647e-05,0.0,0.0,0.0
1.8770428141579032e-05,-4.930587238050066e-05,0.0,0.0,0.0
1.8851867935154587e-05,-4.937803896609694e-05,0.0,0.0,0.0
1.843232530518435e-05,-4.947612978867255e-05,0.0,0.0,0.0
1.848706233431585e-05,-4.955495387548581e-05,0.0,0.0,0.0
1.857385905168485e-05,-4.9095149734057486e-05,0.0,0.0,0.0
1.868501931312494e-05,-4.868567339144647e-05,0.0,0.0,0.0
1.8476168406778015e-05,-4.8779798817122355e-05,0.0,0.0,0.0
1.8353683117311448e-05,-4.9089736421592534e-05,0.0,0.0,0.0
1.8246306353830732e-05,-4.926406836602837e-05,0.0,0.0,0.0
1.8410222764941864e-05,-4.917721525998786e-05,0.0,0.0,0.0
1.85109420272056e-05,-4.9559108447283506e-05,0.0,0.0,0.0
1.8368162272963673e-05,-4.947694833390415e-05,0.0,0.0,0.0
1.815402356442064e-05,-4.9590933485887945e-05,0.0,0.0,0.0
1.776821409293916e-05,-4.9789214244810864e-05,0.0,0.0,0.0
1.7790884157875553e-05,-4.992279355064966e-05,0.0,0.0,0.0
1.748155409586616e-05,-5.009529195376672e-05,0.0,0.0,0.0
1.772143332345877e-05,-4.996044299332425e-05,0.0,0.0,0.0
1.8405295122647658e-05,-5.0062408263329417e-05,0.0,0.0,0.0
1.8222104699816555e-05,-4.998891745344736e-05,0.0,0.0,0.0
1.8328109945286997e-05,-5.0037993787555024e-05,0.0,0.0,0.0
1.8539842130849138e-05,-5.000960300094448e-05,0.0,0.0,0.0
1.840082768467255e-05,-4.978674405720085e-05,0.0,0.0,0.0
1.896021240099799e-05,-4.988694854546338e-05,0.0,0.0,0.0
1.892544787551742e-05,-4.98381195939146e-05,0.0,0.0,0.0
1.8573209672467783e-05,-4.944291868014261e-05,0.0,0.0,0.0
1.8471868315828033e-05,-4.97419350722339e-05,0.0,0.0,0.0
1.845340375439264e-05,-5.0218834076076746e-05,0.0,0.0,0.0
1.8474627722753212e-05,-5.034127752878703e-05,0.0,0.0,0.0
1.8291826563654467e-05,-5.021171455155127e-05,0.0,0.0,0.0
1.828798122005537e-05,-5.014825364924036e-05,0.0,0.0,0.0
1.8725757399806753e-05,-5.03731171193067e-05,0.0,0.0,0.0
1.9138500647386536e-05,-5.033628985984251e-05,0.0,0.0,0.0
1.91298640856985e-05,-5.0255850510438904e-05,0.0,0.0,0.0
1.9034343495150097e-05,-4.990756860934198e-05,0.0,0.0,0.0
1.8903680029325187e-05,-4.970432200934738e-05,0.0,0.0,0.0
1.910984792630188e-05,-4.966462074662559e-05,0.0,0.0,0.0
1.9006029106094502e-05,-4.9699785449774936e-05,0.0,0.0,0.0
1.8625803932081908e-05,-4.973320028511807e-05,0.0,0.0,0.0
1.9046676243306138e-05,-4.989560693502426e-05,0.0,0.0,0.0
1.9125507606077008e-05,-4.951192022417672e-05,0.0,0.0,0.0
1.84695945790736e-05,-4.981675010640174e-05,0.0,0.0,0.0
1.845751830842346e-05,-4.954261748935096e-05,0.0,0.0,0.0
1.846911800384987e-05,-4.918321792501956e-05,0.0,0.0,0.0
1.8457853002473712e-05,-4.9197551561519504e-05,0.0,0.0,0.0
1.8745397028396837e-05,-4.885847738478333e-05,0.0,0.0,0.0
1.8565591744845733e-05,-4.940265353070572e-05,0.0,0.0,0.0
1.8402837667963468e-05,-4.877237370237708e-05,0.0,0.0,0.0
1.8512673705117777e-05,-4.866202289122157e-05,0.0,0.0,0.0
1.8424336303723976e-05,-4.869479380431585e-05,0.0,0.0,0.0
1.849341788329184e-05,-4.88778532599099e-05,0.0,0.0,0.0
1.8228758563054726e-05,-4.92699327878654e-05,0.0,0.0,0.0
1.8326842109672725e-05,-4.9322337872581556e-05,0.0,0.0,0.0
1.810107278288342e-05,-4.937366975354962e-05,0.0,0.0,0.0
1.7749167454894632e-05,-4.9321613914798945e-05,0.0,0.0,0.0
1.7830507204052992e-05,-4.97136170451995e-05,0.0,0.0,0.0
1.8076747437589802e-05,-5.000343298888765e-05,0.0,0.0,0.0
1.849625004979316e-05,-5.003543265047483e-05,0.0,0.0,0.0
1.829697794164531e-05,-5.0002490752376616e-05,0.0,0.0,0.0
1.815698306018021e-05,-4.9780206609284505e-05,0.0,0.0,0.0
1.7986078091780655e-05,-4.946629633195698e-05,0.0,0.0,0.0
1.793081537471153e-05,-4.977747084922157e-05,0.0,0.0,0.0
1.8181188352173194e-05,-4.9917580327019095e-05,0.0,0.0,0.0
1.8479713617125526e-05,-4.979288496542722e-05,0.0,0.0,0.0
1.8450995412422344e-05,-5.012452675146051e-05,0.0,0.0,0.0
1.84723648999352e-05,-5.067707024863921e-05,0.0,0.0,0.0
1.845756014517974e-05,-5.064894867246039e-05,0.0,0.0,0.0
1.8466551409801468e-05,-5.041906479164027e-05,0.0,0.0,0.0
1.846265331550967e-05,-5.063707794761285e-05,0.0,0.0,0.0
1.8462143998476677e-05,-5.071381383459084e-05,0.0,0.0,0.0
1.8466414985596202e-05,-5.036010406911373e-05,0.0,0.0,0.0
1.845899168984033e-05,-5.006141509511508e-05,0.0,0.0,0.0
1.8468996131559834e-05,-5.026148210163228e-05,0.0,0.0,0.0
1.845693805080373e-05,-5.015332862967625e-05,0.0,0.0,0.0
1.8725799236563034e-05,-4.993308903067373e-05,0.0,0.0,0.0
1.8822636775439605e-05,-5.0087815907318145e-05,0.0,0.0,0.0
1.8781049220706336e-05,-4.99656998727005e-05,0.0,0.0,0.0
1.8589078536024317e-05,-5.005884304409847e-05,0.0,0.0,0.0
1.864579098764807e-05,-5.020392927690409e-05,0.0,0.0,0.0
1.8638067558640614e-05,-5.0188024033559486e-05,0.0,0.0,0.0
1.860863449110184e-05,-4.9789789045462385e-05,0.0,0.0,0.0
1.8665010429685935e-05,-4.9697173380991444e-05,0.0,0.0,0.0
1.8420261767460033e-05,-4.984874613001011e-05,0.0,0.0,0.0
1.8495118638384156e-05,-4.986136264051311e-05,0.0,0.0,0.0
1.844165672082454e-05,-4.968747089151293e-05,0.0,0.0,0.0
1.8476641344022937e-05,-4.9534781283000484e-05,0.0,0.0,0.0
1.871266977104824e-05,-4.9368372856406495e-05,0.0,0.0,0.0
1.900032839330379e-05,-4.9206817493541166e-05,0.0,0.0,0.0
1.8724982510320842e-05,-4.9050067900680006e-05,0.0,0.0,0.0
1.844636062742211e-05,-4.906998583464883e-05,0.0,0.0,0.0
1.8397220628685318e-05,-4.936568075208925e-05,0.0,0.0,0.0
1.80552524398081e-05,-4.9402948206989095e-05,0.0,0.0,0.0
1.788295412552543e-05,-4.967770291841589e-05,0.0,0.0,0.0
1.8072767488774844e-05,-4.968538269167766e-05,0.0,0.0,0.0
1.813462222344242e-05,-4.972672468284145e-05,0.0,0.0,0.0
1.7783277144189924e-05,-4.998090662411414e-05,0.0,0.0,0.0
1.780083039193414e-05,-5.005330604035407e-05,0.0,0.0,0.0
1.77834699570667e-05,-4.998883014195599e-05,0.0,0.0,0.0
1.8087177522829734e-05,-5.004533159080893e-05,0.0,0.0,0.0
1.7885018678498454e-05,-4.999674274586141e-05,0.0,0.0,0.0
1.7992191715165973e-05,-5.003758269594982e-05,0.0,0.0,0.0
1.847175917646382e-05,-5.000424062018283e-05,0.0,0.0,0.0
1.8421469576423988e-05,-5.0030412239721045e-05,0.0,0.0,0.0
1.8496610209695064e-05,-5.001101453672163e-05,0.0,0.0,0.0
1.8661168724065647e-05,-5.0247417675564066e-05,0.0,0.0,0.0
1.862659519247245e-05,-5.037371374783106e-05,0.0,0.0,0.0
1.8414619262330234e-05,-5.033691195421852e-05,0.0,0.0,0.0
1.8501146769267507e-05,-5.037163646193221e-05,0.0,0.0,0.0
1.861610871856101e-05,-5.0519625801825896e-05,0.0,0.0,0.0
1.8656639440450817e-05,-5.071340638096444e-05,0.0,0.0,0.0
1.8439755876897834e-05,-5.06698816025164e-05,0.0,0.0,0.0
1.862768840510398e-05,-5.0411112169967964e-05,0.0,0.0,0.0
1.906516627059318e-05,-5.000681630917825e-05,0.0,0.0,0.0
1.9336617697263137e-05,-4.9774404033087194e-05,0.0,0.0,0.0
1.9270451957709156e-05,-4.935608012601733e-05,0.0,0.0,0.0
1.9119113858323544e-05,-4.934015669277869e-05,0.0,0.0,0.0
1.8636877939570695e-05,-4.954579708282836e-05,0.0,0.0,0.0
1.8625329175847583e-05,-4.980563244316727e-05,0.0,0.0,0.0
1.871278254839126e-05,-4.9428803322371095e-05,0.0,0.0,0.0
1.899668131954968e-05,-4.93424704473e-05,0.0,0.0,0.0
1.920005161082372e-05,-4.955323674948886e-05,0.0,0.0,0.0
1.8688320778892376e-05,-4.883346628048457e-05,0.0,0.0,0.0
1.855507980508264e-05,-4.91826212964952e-05,0.0,0.0,0.0
1.8366712538409047e-05,-4.916424586554058e-05,0.0,0.0,0.0
1.8230328350909986e-05,-4.8883361159823835e-05,0.0,0.0,0.0
1.8331971659790725e-05,-4.94062842335552e-05,0.0,0.0,0.0
1.856964809121564e-05,-4.930095747113228e-05,0.0,0.0,0.0
1.8379803805146366e-05,-4.911791984341107e-05,0.0,0.0,0.0
1.8782126062433235e-05,-4.869557960773818e-05,0.0,0.0,0.0
1.8539953089202754e-05,-4.893695586360991e-05,0.0,0.0,0.0
1.8205828382633626e-05,-4.949877256876789e-05,0.0,0.0,0.0
1.835433067753911e-05,-4.9488695367472246e-05,0.0,0.0,0.0
1.8048625861410983e-05,-4.930709837935865e-05,0.0,0.0,0.0
1.7755290173226967e-05,-4.957873898092657e-05,0.0,0.0,0.0
1.8006045138463378e-05,-4.967893619323149e-05,0.0,0.0,0.0
1.8309157894691452e-05,-4.986254862160422e-05,0.0,0.0,0.0
1.8292401364305988e-05,-5.0033562729367986e-05,0.0,0.0,0.0
1.8132037439499982e-05,-5.000205783289857e-05,0.0,0.0,0.0
1.8264876416651532e-05,-5.003788464819081e-05,0.0,0.0,0.0
1.83406791620655e-05,-4.999910743208602e-05,0.0,0.0,0.0
1.849590080382768e-05,-4.991199966752902e-05,0.0,0.0,0.0
1.889328814286273e-05,-4.978844663128257e-05,0.0,0.0,0.0
1.8488850400899537e-05,-5.001973840990104e-05,0.0,0.0,0.0
1.854194670158904e-05,-5.011211760574952e-05,0.0,0.0,0.0
1.8790809917845763e-05,-5.0255148380529135e-05,0.0,0.0,0.0
1.88846552191535e-05,-5.0051890866598114e-05,0.0,0.0,0.0
1.8968899894389324e-05,-4.99925808981061e-05,0.0,0.0,0.0
1.855630034697242e-05,-5.004011109122075e-05,0.0,0.0,0.0
1.8382172129349783e-05,-5.0045233365381137e-05,0.0,0.0,0.0
1.8533575712353922e-05,-5.030002648709342e-05,0.0,0.0,0.0
1.8403748981654644e-05,-5.007844447391108e-05,0.0,0.0,0.0
1.851322849688586e-05,-4.996773714083247e-05,0.0,0.0,0.0
1.842280471464619e-05,-5.006288120057434e-05,0.0,0.0,0.0
1.8495511540095322e-05,-5.0258775445399806e-05,0.0,0.0,0.0
1.8439146515447646e-05,-5.015698116039857e-05,0.0,0.0,0.0
1.8480564904166386e-05,-4.967352288076654e-05,0.0,0.0,0.0
1.8941895177704282e-05,-4.997037831344642e-05,0.0,0.0,0.0
1.919540954986587e-05,-4.978043943992816e-05,0.0,0.0,0.0
1.864193291112315e-05,-4.9659371143206954e-05,0.0,0.0,0.0
1.8667220501811244e-05,-4.9494163249619305e-05,0.0,0.0,0.0
1.882990363810677e-05,-4.9711121391737834e-05,0.0,0.0,0.0
1.8959502995130606e-05,-4.970208465238102e-05,0.0,0.0,0.0
1.8815353541867808e-05,-4.8906589654507115e-05,0.0,0.0,0.0
1.8578166418592446e-05,-4.906822869088501e-05,0.0,0.0,0.0
1.869398693088442e-05,-4.93131774419453e-05,0.0,0.0,0.0
1.8711860320763662e-05,-4.937683115713298e-05,0.0,0.0,0.0
1.8897091649705544e-05,-4.9185142415808514e-05,0.0,0.0,0.0
1.8568856830825098e-05,-4.890962009085342e-05,0.0,0.0,0.0
1.8808415916282684e-05,-4.866434392170049e-05,0.0,0.0,0.0
1.868615254352335e-05,-4.879154948866926e-05,0.0,0.0,0.0
1.8291506421519443e-05,-4.908609116682783e-05,0.0,0.0,0.0
1.789935959095601e-05,-4.926096153212711e-05,0.0,0.0,0.0
1.8084905605064705e-05,-4.903695298708044e-05,0.0,0.0,0.0
1.8165907022194006e-05,-4.905294917989522e-05,0.0,0.0,0.0
1.8093780454364605e-05,-4.9393001972930506e-05,0.0,0.0,0.0
1.8115208149538375e-05,-4.965691550751217e-05,0.0,0.0,0.0
1.780085040081758e-05,-4.973894829163328e-05,0.0,0.0,0.0
1.7806545656640083e-05,-4.995943891117349e-05,0.0,0.0,0.0
1.8090666344505735e-05,-5.0070342695107684e-05,0.0,0.0,0.0
1.844716098275967e-05,-4.968831854057498e-05,0.0,0.0,0.0
1.847654493758455e-05,-4.9955433496506885e-05,0.0,0.0,0.0
1.8187225578003563e-05,-4.979496225132607e-05,0.0,0.0,0.0
1.8356329746893607e-05,-4.9869056965690106e-05,0.0,0.0,0.0
1.8762253603199497e-05,-4.9618829507380724e-05,0.0,0.0,0.0
1.8547129002399743e-05,-4.9452806706540287e-05,0.0,0.0,0.0
1.8677328625926748e-05,-5.00365968036931e-05,0.0,0.0,0.0
1.861553573689889e-05,-4.99354355270043e-05,0.0,0.0,0.0
1.8421389540890232e-05,-5.008396692574024e-05,0.0,0.0,0.0
1.8497928977012634e-05,-4.9970705731539056e-05,0.0,0.0,0.0
1.843563950387761e-05,-5.023378616897389e-05,0.0,0.0,0.0
1.8825516235665418e-05,-5.0511396693764254e-05,0.0,0.0,0.0
1.912744846777059e-05,-5.0380313041387126e-05,0.0,0.0,0.0
1.9139475625706837e-05,-5.0165257562184706e-05,0.0,0.0,0.0
1.885595338535495e-05,-5.020908429287374e-05,0.0,0.0,0.0
1.8857477698475122e-05,-5.0038390327245e-05,0.0,0.0,0.0
1.9552970115910284e-05,-4.9995236622635275e-05,0.0,0.0,0.0
1.9822824469883926e-05,-4.993988841306418e-05,0.0,0.0,0.0
1.960172812687233e-05,-4.957358760293573e-05,0.0,0.0,0.0
1.918211637530476e-05,-4.9554106226423755e-05,0.0,0.0,0.0
1.902120311569888e-05,-4.986458225175738e-05,0.0,0.0,0.0
1.8920147340395488e-05,-4.978134893462993e-05,0.0,0.0,0.0
1.900599818327464e-05,-4.949018330080435e-05,0.0,0.0,0.0
1.893583612400107e-05,-4.919459024677053e-05,0.0,0.0,0.0
1.895836066978518e-05,-4.9256002967013046e-05,0.0,0.0,0.0
1.863287434389349e-05,-5.005228740628809e-05,0.0,0.0,0.0
1.8323939002584666e-05,-4.968090797774494e-05,0.0,0.0,0.0
1.8576069123810157e-05,-4.939579594065435e-05,0.0,0.0,0.0
1.8374621504335664e-05,-4.903324952465482e-05,0.0,0.0,0.0
1.853114736150019e-05,-4.87369870825205e-05,0.0,0.0,0.0
1.8414139049127698e-05,-4.8653095291228965e-05,0.0,0.0,0.0
1.849667569331359e-05,-4.893648292636499e-05,0.0,0.0,0.0
1.8209946574643254e-05,-4.9264886911259964e-05,0.0,0.0,0.0
1.7887741705635563e-05,-4.935195102007128e-05,0.0,0.0,0.0
1.7793106962926686e-05,-4.977387288818136e-05,0.0,0.0,0.0
1.778306432242971e-05,-4.964547770214267e-05,0.0,0.0,0.0
1.7998696421273053e-05,-4.929793067276478e-05,0.0,0.0,0.0
1.7938002201844938e-05,-4.974534749635495e-05,0.0,0.0,0.0
1.7968843167182058e-05,-5.0010683480650187e-05,0.0,0.0,0.0
1.796030846890062e-05,-4.9860613216878846e-05,0.0,0.0,0.0
1.780405546014663e-05,-4.9687201681081206e-05,0.0,0.0,0.0
1.79137186933076e-05,-4.981232632417232e-05,0.0,0.0,0.0
1.826978041208349e-05,-4.9899754230864346e-05,0.0,0.0,0.0
1.8437436665408313e-05,-4.96797620144207e-05,0.0,0.0,0.0
1.870278356363997e-05,-4.979757795808837e-05,0.0,0.0,0.0
1.9077506294706836e-05,-4.999255543225445e-05,0.0,0.0,0.0
1.901684663607739e-05,-4.9875699914991856e-05,0.0,0.0,0.0
1.8460486899130046e-05,-4.9514066631672904e-05,0.0,0.0,0.0
1.8467528207111172e-05,-4.9892863899003714e-05,0.0,0.0,0.0
1.845869883254636e-05,-4.9815280362963676e-05,0.0,0.0,0.0
1.8468263078830205e-05,-4.9923408369068056e-05,0.0,0.0,0.0
1.8426926544634625e-05,-5.0064823881257325e-05,0.0,0.0,0.0
1.819160024751909e-05,-4.96601642225869e-05,0.0,0.0,0.0
1.838558637246024e-05,-4.9698635848471895e-05,0.0,0.0,0.0
1.9102784790447913e-05,-4.9674767069518566e-05,0.0,0.0,0.0
1.8887119949795306e-05,-4.996301140636206e-05,0.0,0.0,0.0
1.873535984486807e-05,-5.005811544833705e-05,0.0,0.0,0.0
1.9109384084003977e-05,-4.998280928703025e-05,0.0,0.0,0.0
1.862951467046514e-05,-4.931852163281292e-05,0.0,0.0,0.0
1.865608646767214e-05,-4.913245720672421e-05,0.0,0.0,0.0
1.8633774743648246e-05,-4.991504829376936e-05,0.0,0.0,0.0
1.8395474398857914e-05,-4.953533789375797e-05,0.0,0.0,0.0
1.871971835498698e-05,-4.9561313062440604e-05,0.0,0.0,0.0
1.8580238247523084e-05,-4.949884532834403e-05,0.0,0.0,0.0
1.8471326256985776e-05,-4.896692553302273e-05,0.0,0.0,0.0
1.8460779756424017e-05,-4.9018959543900564e-05,0.0,0.0,0.0
1.846156010287814e-05,-4.903332228423096e-05,0.0,0.0,0.0
1.8617924069985747e-05,-4.882175926468335e-05,0.0,0.0,0.0
1.8650083802640438e-05,-4.887086834060028e-05,0.0,0.0,0.0
1.84819582500495e-05,-4.868806718150154e-05,0.0,0.0,0.0
1.844371399783995e-05,-4.8896094085648656e-05,0.0,0.0,0.0
1.8377437299932353e-05,-4.933963282383047e-05,0.0,0.0,0.0
1.8122480469173752e-05,-4.944666943629272e-05,0.0,0.0,0.0
1.813498602132313e-05,-4.966546839568764e-05,0.0,0.0,0.0
1.8118953448720276e-05,-4.962072489433922e-05,0.0,0.0,0.0
1.813749986467883e-05,-4.943025851389393e-05,0.0,0.0,0.0
1.8117338186129928e-05,-4.963530591339804e-05,0.0,0.0,0.0
1.8138322047889233e-05,-4.976993295713328e-05,0.0,0.0,0.0
1.8149106836062856e-05,-4.991187961422838e-05,0.0,0.0,0.0
1.839243486756459e-05,-4.976668060407974e-05,0.0,0.0,0.0
1.789898487913888e-05,-4.929964052280411e-05,0.0,0.0,0.0
1.770247945387382e-05,-4.996292045689188e-05,0.0,0.0,0.0
1.8419004845782183e-05,-5.034334753872827e-05,0.0,0.0,0.0
1.847879684646614e-05,-4.982050086255185e-05,0.0,0.0,0.0
1.8448323316988535e-05,-4.987186912330799e-05,0.0,0.0,0.0
1.8477952835382894e-05,-5.010572203900665e-05,0.0,0.0,0.0
1.844966391217895e-05,-4.994783739675768e-05,0.0,0.0,0.0
1.8252874724566936e-05,-5.029970270697959e-05,0.0,0.0,0.0
1.8307568097952753e-05,-5.03311566717457e-05,0.0,0.0,0.0
1.8509292203816585e-05,-5.016875729779713e-05,0.0,0.0,0.0
1.861657074186951e-05,-4.99951456731651e-05,0.0,0.0,0.0
1.902239819173701e-05,-5.0034675950882956e-05,0.0,0.0,0.0
1.9108603737549856e-05,-5.018086449126713e-05,0.0,0.0,0.0
1.8995406207977794e-05,-5.036147922510281e-05,0.0,0.0,0.0
1.8932118109660223e-05,-5.035429785493761e-05,0.0,0.0,0.0
1.9143308236380108e-05,-5.007350046071224e-05,0.0,0.0,0.0
1.9130906366626732e-05,-4.9830869102152064e-05,0.0,0.0,0.0
1.9134751710225828e-05,-4.9754275096347556e-05,0.0,0.0,0.0
1.9031911506317556e-05,-4.9509337259223685e-05,0.0,0.0,0.0
1.8712482415139675e-05,-4.961617014487274e-05,0.0,0.0,0.0
1.8477529010851867e-05,-4.974473995389417e-05,0.0,0.0,0.0
1.8448190530762076e-05,-4.962778984918259e-05,0.0,0.0,0.0
1.847937710408587e-05,-4.9669477448333055e-05,0.0,0.0,0.0
1.8447071852278896e-05,-4.933193849865347e-05,0.0,0.0,0.0
1.843729660322424e-05,-4.936236291541718e-05,0.0,0.0,0.0
1.8146778529626317e-05,-4.9334237701259553e-05,0.0,0.0,0.0
1.8134845959139057e-05,-4.931718285661191e-05,0.0,0.0,0.0
1.8431424905429594e-05,-4.874957085121423e-05,0.0,0.0,0.0
1.849255568231456e-05,-4.890140917268582e-05,0.0,0.0,0.0
1.8437125618220307e-05,-4.910502320853993e-05,0.0,0.0,0.0
1.8221018763142638e-05,-4.8934623919194564e-05,0.0,0.0,0.0
1.8327802536077797e-05,-4.882012217422016e-05,0.0,0.0,0.0
1.805207648430951e-05,-4.8838752263691276e-05,0.0,0.0,0.0
1.7671498426352628e-05,-4.933979289489798e-05,0.0,0.0,0.0
1.789142334018834e-05,-4.929716669721529e-05,0.0,0.0,0.0
1.7498989109299146e-05,-4.959838406648487e-05,0.0,0.0,0.0
1.770375638443511e-05,-4.987611100659706e-05,0.0,0.0,0.0
1.796477044990752e-05,-5.003668411518447e-05,0.0,0.0,0.0
1.8149423340219073e-05,-4.9828366172732785e-05,0.0,0.0,0.0
1.7944939827430062e-05,-5.0019280024571344e-05,0.0,0.0,0.0
1.7792244761949405e-05,-5.021258766646497e-05,0.0,0.0,0.0
1.794636955310125e-05,-4.999949305783957e-05,0.0,0.0,0.0
1.8115468265023082e-05,-4.9900394515134394e-05,0.0,0.0,0.0
1.8398915926809423e-05,-4.966962296748534e-05,0.0,0.0,0.0
1.887982762127649e-05,-4.969696237822063e-05,0.0,0.0,0.0
1.8946173440781422e-05,-4.9776630476117134e-05,0.0,0.0,0.0
1.8469088900019415e-05,-5.0016038585454226e-05,0.0,0.0,0.0
1.8377468222752213e-05,-5.010596942156553e-05,0.0,0.0,0.0
1.8221131540485658e-05,-5.0406259106239304e-05,0.0,0.0,0.0
1.8489276044419967e-05,-5.06842989125289e-05,0.0,0.0,0.0
1.8746164641925134e-05,-5.064294600742869e-05,0.0,0.0,0.0
1.8498651115805842e-05,-5.0381739129079506e-05,0.0,0.0,0.0
1.8430297131999396e-05,-5.0363778427708894e-05,0.0,0.0,0.0
1.849417640187312e-05,-5.0628666940610856e-05,0.0,0.0,0.0
1.8435204765410163e-05,-5.011937173549086e-05,0.0,0.0,0.0
1.9063232684857212e-05,-4.9934282287722453e-05,0.0,0.0,0.0
1.919419810292311e-05,-5.0089704018319026e-05,0.0,0.0,0.0
1.9086190150119364e-05,-4.9961297918343917e-05,0.0,0.0,0.0
1.9173998225596733e-05,-4.981001256965101e-05,0.0,0.0,0.0
1.9103852537227795e-05,-4.986107524018735e-05,0.0,0.0,0.0
1.915866778290365e-05,-4.9865368055179715e-05,0.0,0.0,0.0
1.889371924335137e-05,-4.959612851962447e-05,0.0,0.0,0.0
1.879055162135046e-05,-4.9750971811590716e-05,0.0,0.0,0.0
1.8808399545378052e-05,-4.943107342114672e-05,0.0,0.0,0.0
1.8598075257614255e-05,-4.936819095746614e-05,0.0,0.0,0.0
1.846182749432046e-05,-4.933779564453289e-05,0.0,0.0,0.0
1.8463257219991647e-05,-4.934854950988665e-05,0.0,0.0,0.0
1.8305367120774463e-05,-4.9194786697626114e-05,0.0,0.0,0.0
1.827295454859268e-05,-4.8997979320120066e-05,0.0,0.0,0.0
1.8465159882907756e-05,-4.889213960268535e-05,0.0,0.0,0.0
1.846163286245428e-05,-4.878755862591788e-05,0.0,0.0,0.0
1.8465076209395193e-05,-4.9139543989440426e-05,0.0,0.0,0.0
1.8249314962304197e-05,-4.932187221129425e-05,0.0,0.0,0.0
1.7728076272760518e-05,-4.9469806981505826e-05,0.0,0.0,0.0
1.7533124264446087e-05,-4.955324766342528e-05,0.0,0.0,0.0
1.7850996300694533e-05,-4.956027623848058e-05,0.0,0.0,0.0
1.8116254068445414e-05,-4.991154128219932e-05,0.0,0.0,0.0
1.813683229556773e-05,-5.011236135032959e-05,0.0,0.0,0.0
1.8120759705197997e-05,-4.9939146265387535e-05,0.0,0.0,0.0
1.8132710465579294e-05,-5.005462662666105e-05,0.0,0.0,0.0
1.8103222828358412e-05,-4.9644808314042166e-05,0.0,0.0,0.0
1.7835587641457096e-05,-4.9402122385799885e-05,0.0,0.0,0.0
1.8043394447886385e-05,-4.9304064305033535e-05,0.0,0.0,0.0
1.847405292210169e-05,-4.993443508283235e-05,0.0,0.0,0.0
1.844439611886628e-05,-5.006975698051974e-05,0.0,0.0,0.0
1.8477019693818875e-05,-4.9972906708717346e-05,0.0,0.0,0.0
1.8943746908917092e-05,-5.0061047659255564e-05,0.0,0.0,0.0
1.872727443696931e-05,-4.9980990297626704e-05,0.0,0.0,0.0
1.8366867152508348e-05,-5.0053527957061306e-05,0.0,0.0,0.0
1.8540375094744377e-05,-4.998800068278797e-05,0.0,0.0,0.0
1.84038290171884e-05,-5.004698323318735e-05,0.0,0.0,0.0
1.850772423495073e-05,-4.9802685680333525e-05,0.0,0.0,0.0
1.8432436263537966e-05,-4.987516513210721e-05,0.0,0.0,0.0
1.8482893210602924e-05,-5.001650424674153e-05,0.0,0.0,0.0
1.8772800103761256e-05,-5.002254692954011e-05,0.0,0.0,0.0
1.9138706193189137e-05,-5.0014888984151185e-05,0.0,0.0,0.0
1.8862117940443568e-05,-4.9885533371707425e-05,0.0,0.0,0.0
1.871936365205329e-05,-4.9811318604042754e-05,0.0,0.0,0.0
1.9239856555941515e-05,-4.9893864343175665e-05,0.0,0.0,0.0
1.9356833945494145e-05,-4.970185909769498e-05,0.0,0.0,0.0
1.906603210954927e-05,-4.966808410244994e-05,0.0,0.0,0.0
1.870478445198387e-05,-4.969584915670566e-05,0.0,0.0,0.0
1.84976543096127e-05,-4.9598915211390704e-05,0.0,0.0,0.0
1.843032987380866e-05,-4.938087295158766e-05,0.0,0.0,0.0
1.849488035077229e-05,-4.932009687763639e-05,0.0,0.0,0.0
1.8433969671605155e-05,-4.932772208121605e-05,0.0,0.0,0.0
1.8458638805896044e-05,-4.9092897825175896e-05,0.0,0.0,0.0
1.81417417479679e-05,-4.956928751198575e-05,0.0,0.0,0.0
1.8116874343832023e-05,-4.946913759340532e-05,0.0,0.0,0.0
1.8136024664272554e-05,-4.924480526824482e-05,0.0,0.0,0.0
1.8121385437552817e-05,-4.943362364429049e-05,0.0,0.0,0.0
1.8132555851479992e-05,-4.9808801122708246e-05,0.0,0.0,0.0
1.8123959307558835e-05,-4.9634290917310864e-05,0.0,0.0,0.0
1.7886137356981635e-05,-4.9183541705133393e-05,0.0,0.0,0.0
1.7527681848150678e-05,-4.994805931346491e-05,0.0,0.0,0.0
1.745732697600033e-05,-4.996386996936053e-05,0.0,0.0,0.0
1.7668111468083225e-05,-4.984478073311038e-05,0.0,0.0,0.0
1.7810834833653644e-05,-4.984379484085366e-05,0.0,0.0,0.0
1.7776092136045918e-05,-5.005960338166915e-05,0.0,0.0,0.0
1.7986252714763395e-05,-4.999450902687386e-05,0.0,0.0,0.0
1.8124286725651473e-05,-4.9859838327392936e-05,0.0,0.0,0.0
1.8130827811546624e-05,-4.983890903531574e-05,0.0,0.0,0.0
1.8273702153237537e-05,-5.00138194183819e-05,0.0,0.0,0.0
1.8187614841735922e-05,-5.0033326260745525e-05,0.0,0.0,0.0
1.805731881177053e-05,-4.974238981958479e-05,0.0,0.0,0.0
1.8437227481626906e-05,-4.95090898766648e-05,0.0,0.0,0.0
1.8379714674665593e-05,-4.962512321071699e-05,0.0,0.0,0.0
1.8028011254500598e-05,-4.9836322432383895e-05,0.0,0.0,0.0
1.7898921214509755e-05,-4.994502160116099e-05,0.0,0.0,0.0
1.816185613279231e-05,-5.0162270781584084e-05,0.0,0.0,0.0
1.8471942894393578e-05,-5.020252865506336e-05,0.0,0.0,0.0
1.851015076681506e-05,-5.0232833018526435e-05,0.0,0.0,0.0
1.8771741451928392e-05,-5.044781573815271e-05,0.0,0.0,0.0
1.8823287973646075e-05,-5.025635618949309e-05,0.0,0.0,0.0
1.8799179088091478e-05,-5.007884465157986e-05,0.0,0.0,0.0
1.9111359506496228e-05,-4.965040352544747e-05,0.0,0.0,0.0
1.915437496791128e-05,-4.909625931759365e-05,0.0,0.0,0.0
1.8565735445008613e-05,-5.0105591071769595e-05,0.0,0.0,0.0
1.8666713003767654e-05,-4.966573396814056e-05,0.0,0.0,0.0
1.9141634766128846e-05,-4.945615364704281e-05,0.0,0.0,0.0
1.860400880104862e-05,-4.9304864660371095e-05,0.0,0.0,0.0
1.8675435057957657e-05,-4.937121775583364e-05,0.0,0.0,0.0
1.861999771790579e-05,-4.934076787321828e-05,0.0,0.0,0.0
1.8404256479698233e-05,-4.9340429541189224e-05,0.0,0.0,0.0
1.8513303075451404e-05,-4.896263635600917e-05,0.0,0.0,0.0
1.842192250478547e-05,-4.9001322622643784e-05,0.0,0.0,0.0
1.885894380393438e-05,-4.924969107378274e-05,0.0,0.0,0.0
1.8953232938656583e-05,-4.909420749754645e-05,0.0,0.0,0.0
1.8962491594720632e-05,-4.9275644414592534e-05,0.0,0.0,0.0
1.8984967027790844e-05,-4.87807956233155e-05,0.0,0.0,0.0
1.86629404197447e-05,-4.8753518058219925e-05,0.0,0.0,0.0
1.872284701676108e-05,-4.8733989387983456e-05,0.0,0.0,0.0
1.8645141608431004e-05,-4.9182788643520325e-05,0.0,0.0,0.0
1.785964377631899e-05,-4.928798443870619e-05,0.0,0.0,0.0
1.782895196811296e-05,-4.959097350365482e-05,0.0,0.0,0.0
1.8074582840199582e-05,-4.9852347729029134e-05,0.0,0.0,0.0
1.778684600139968e-05,-4.984872430213727e-05,0.0,0.0,0.0
1.792368493624963e-05,-4.985419218428433e-05,0.0,0.0,0.0
1.8403134163236246e-05,-4.974212424713187e-05,0.0,0.0,0.0
1.8514130715630017e-05,-4.9373389629181474e-05,0.0,0.0,0.0
1.8421394997858442e-05,-4.996208008378744e-05,0.0,0.0,0.0
1.8476321201887913e-05,-4.972758688381873e-05,0.0,0.0,0.0
1.814250754250679e-05,-4.9328544264426455e-05,0.0,0.0,0.0
1.8400209228275344e-05,-4.99432826472912e-05,0.0,0.0,0.0
1.8518883734941483e-05,-5.007813160773367e-05,0.0,0.0,0.0
1.8415106751490384e-05,-4.9974933062912896e-05,0.0,0.0,0.0
1.8505135813029483e-05,-5.0305261538596824e-05,0.0,0.0,0.0
1.8427748727845028e-05,-5.012188557884656e-05,0.0,0.0,0.0
1.8727521819528192e-05,-5.020872049499303e-05,0.0,0.0,0.0
1.8575161448097788e-05,-5.019942909711972e-05,0.0,0.0,0.0
1.8867853214032948e-05,-4.9935282731894404e-05,0.0,0.0,0.0
1.878409784694668e-05,-5.009393862565048e-05,0.0,0.0,0.0
1.858146788435988e-05,-4.995270137442276e-05,0.0,0.0,0.0
1.9051229173783213e-05,-4.989659646525979e-05,0.0,0.0,0.0
1.9255416191299446e-05,-4.9794944061432034e-05,0.0,0.0,0.0
1.9354243704583496e-05,-4.99140442116186e-05,0.0,0.0,0.0
1.9100871213595383e-05,-4.963664832757786e-05,0.0,0.0,0.0
1.9020815670955926e-05,-4.985962004866451e-05,0.0,0.0,0.0
1.8916287444881164e-05,-4.985602936358191e-05,0.0,0.0,0.0
1.912993502628524e-05,-4.960269870935008e-05,0.0,0.0,0.0
1.9144095858791843e-05,-4.9437971028964967e-05,0.0,0.0,0.0
1.9026294467039406e-05,-4.967836139257997e-05,0.0,0.0,0.0
1.891839929157868e-05,-4.969123983755708e-05,0.0,0.0,0.0
