1.7704865967971273e-05,-4.863593858317472e-05,0.0,0.0,0.0
1.7865375411929563e-05,-4.8707333917263895e-05,0.0,0.0,0.0
1.7731166735757142e-05,-4.8653393605491146e-05,0.0,0.0,0.0
1.7841603039414622e-05,-4.8947280447464436e-05,0.0,0.0,0.0
1.750792762322817e-05,-4.8788868298288435e-05,0.0,0.0,0.0
1.7459033188060857e-05,-4.909489143756218e-05,0.0,0.0,0.0
1.723353489069268e-05,-4.9217662308365107e-05,0.0,0.0,0.0
1.7308884707745165e-05,-4.869787517236546e-05,0.0,0.0,0.0
1.790134956536349e-05,-4.874417936662212e-05,0.0,0.0,0.0
1.7928970919456333e-05,-4.861961861024611e-05,0.0,0.0,0.0
1.7969734471989796e-05,-4.872268618782982e-05,0.0,0.0,0.0
1.796596552594565e-05,-4.880932829109952e-05,0.0,0.0,0.0
1.778264413587749e-05,-4.920478750136681e-05,0.0,0.0,0.0
1.7797410691855475e-05,-4.902632281300612e-05,0.0,0.0,0.0
1.7789972844184376e-05,-4.855868246522732e-05,0.0,0.0,0.0
1.804654129955452e-05,-4.8459343815920874e-05,0.0,0.0,0.0
1.8331940736970864e-05,-4.878839899902232e-05,0.0,0.0,0.0
1.8043867385131307e-05,-4.890161653747782e-05,0.0,0.0,0.0
1.778996374923736e-05,-4.8691385018173605e-05,0.0,0.0,0.0
1.7706812286633067e-05,-4.8666966904420406e-05,0.0,0.0,0.0
1.7480177120887674e-05,-4.8680616600904614e-05,0.0,0.0,0.0
1.749820148688741e-05,-4.861234992858954e-05,0.0,0.0,0.0
1.7730146282701753e-05,-4.825948053621687e-05,0.0,0.0,0.0
1.7494689018349163e-05,-4.775756679009646e-05,0.0,0.0,0.0
1.7424677935196087e-05,-4.7927260311553255e-05,0.0,0.0,0.0
1.7460775779909454e-05,-4.807362347492017e-05,0.0,0.0,0.0
1.714199606794864e-05,-4.7944522520992905e-05,0.0,0.0,0.0
1.73883145180298e-05,-4.805737262358889e-05,0.0,0.0,0.0
1.7791408026823774e-05,-4.7683253797004e-05,0.0,0.0,0.0
1.7514050341560505e-05,-4.846730371355079e-05,0.0,0.0,0.0
1.7432193999411538e-05,-4.826872100238688e-05,0.0,0.0,0.0
1.698724736343138e-05,-4.785667988471687e-05,0.0,0.0,0.0
1.6946672985795885e-05,-4.836149309994653e-05,0.0,0.0,0.0
1.7204922187374905e-05,-4.8041954869404435e-05,0.0,0.0,0.0
1.6838832380017266e-05,-4.804282070836052e-05,0.0,0.0,0.0
1.7024689441313967e-05,-4.8179630539380014e-05,0.0,0.0,0.0
1.7680637029116042e-05,-4.81818278785795e-05,0.0,0.0,0.0
1.7989570551435463e-05,-4.797137444256805e-05,0.0,0.0,0.0
1.7752001440385357e-05,-4.836782318307087e-05,0.0,0.0,0.0
1.7661863239482045e-05,-4.867207826464437e-05,0.0,0.0,0.0
1.758383405103814e-05,-4.867458847002126e-05,0.0,0.0,0.0
1.7802949514589272e-05,-4.868274845648557e-05,0.0,0.0,0.0
1.7788101104088128e-05,-4.866605013376102e-05,0.0,0.0,0.0
1.7790096535463817e-05,-4.8689369577914476e-05,0.0,0.0,0.0
1.7798713088268414e-05,-4.876748789683916e-05,0.0,0.0,0.0
1.7781523638404906e-05,-4.92045255668927e-05,0.0,0.0,0.0
1.780544153007213e-05,-4.9471822421764955e-05,0.0,0.0,0.0
1.7776454114937223e-05,-4.916854595649056e-05,0.0,0.0,0.0
1.7872840544441715e-05,-4.9186353862751275e-05,0.0,0.0,0.0
1.8028056729235686e-05,-4.912491931463592e-05,0.0,0.0,0.0
1.782391882443335e-05,-4.891568096354604e-05,0.0,0.0,0.0
1.745796726027038e-05,-4.90929014631547e-05,0.0,0.0,0.0
1.7780579582904465e-05,-4.894517405773513e-05,0.0,0.0,0.0
1.7800699424697086e-05,-4.906589674646966e-05,0.0,0.0,0.0
1.7785559975891374e-05,-4.8682602937333286e-05,0.0,0.0,0.0
1.7520222172606736e-05,-4.894342418992892e-05,0.0,0.0,0.0
1.7946937077795155e-05,-4.90617094328627e-05,0.0,0.0,0.0
1.8485719920136034e-05,-4.871107012149878e-05,0.0,0.0,0.0
1.792034163372591e-05,-4.868697942583822e-05,0.0,0.0,0.0
1.7779670088202693e-05,-4.866404924541712e-05,0.0,0.0,0.0
1.780434286047239e-05,-4.846637602895498e-05,0.0,0.0,0.0
1.778000660124235e-05,-4.8517809773329645e-05,0.0,0.0,0.0
1.7803489754442126e-05,-4.872656427323818e-05,0.0,0.0,0.0
1.7589851267985068e-05,-4.8249166866298765e-05,0.0,0.0,0.0
1.7635777112445794e-05,-4.784032716997899e-05,0.0,0.0,0.0
1.76300345628988e-05,-4.781641109730117e-05,0.0,0.0,0.0
1.744584551488515e-05,-4.8029658501036465e-05,0.0,0.0,0.0
1.7612857845961116e-05,-4.828144665225409e-05,0.0,0.0,0.0
1.7508151358924806e-05,-4.869001713814214e-05,0.0,0.0,0.0
1.7264363123103976e-05,-4.853782957070507e-05,0.0,0.0,0.0
1.743438588164281e-05,-4.8357480409322307e-05,0.0,0.0,0.0
1.7368261978845112e-05,-4.8433576012030244e-05,0.0,0.0,0.0
1.7120884876931086e-05,-4.8383924877271056e-05,0.0,0.0,0.0
1.7119777112384327e-05,-4.7901277866913006e-05,0.0,0.0,0.0
1.7121874407166615e-05,-4.8316702304873616e-05,0.0,0.0,0.0
1.711911681923084e-05,-4.873579018749297e-05,0.0,0.0,0.0
1.7122260032920167e-05,-4.862530477112159e-05,0.0,0.0,0.0
1.711895856715273e-05,-4.871949931839481e-05,0.0,0.0,0.0
1.7154137822217308e-05,-4.8640082241036e-05,0.0,0.0,0.0
1.7437501810491085e-05,-4.87061552121304e-05,0.0,0.0,0.0
1.7784128431230783e-05,-4.865207301918417e-05,0.0,0.0,0.0
1.7799036868382245e-05,-4.869544136454351e-05,0.0,0.0,0.0
1.7785776435630396e-05,-4.9214599130209535e-05,0.0,0.0,0.0
1.7531703633721918e-05,-4.916809848509729e-05,0.0,0.0,0.0
1.7672173271421343e-05,-4.916239413432777e-05,0.0,0.0,0.0
1.7856254999060184e-05,-4.946368426317349e-05,0.0,0.0,0.0
1.7504657080280595e-05,-4.9254627811023965e-05,0.0,0.0,0.0
1.747549140418414e-05,-4.942031955579296e-05,0.0,0.0,0.0
1.7654419934842736e-05,-4.929303759126924e-05,0.0,0.0,0.0
1.7820448192651384e-05,-4.9386559112463146e-05,0.0,0.0,0.0
1.7770160411600955e-05,-4.9131027481053025e-05,0.0,0.0,0.0
1.780810453055892e-05,-4.9014292017091066e-05,0.0,0.0,0.0
1.7951122572412714e-05,-4.90175407321658e-05,0.0,0.0,0.0
1.7979469703277573e-05,-4.9159509217133746e-05,0.0,0.0,0.0
1.7933061826624908e-05,-4.936601180816069e-05,0.0,0.0,0.0
1.7990816559176892e-05,-4.918761987937614e-05,0.0,0.0,0.0
1.767207504599355e-05,-4.891401476925239e-05,0.0,0.0,0.0
1.7571988792042248e-05,-4.865441223955713e-05,0.0,0.0,0.0
1.778424484655261e-05,-4.869947588304058e-05,0.0,0.0,0.0
1.760433951858431e-05,-4.86524986627046e-05,0.0,0.0,0.0
1.7157579350168817e-05,-4.852984784520231e-05,0.0,0.0,0.0
1.7086385923903435e-05,-4.802575131179765e-05,0.0,0.0,0.0
1.727968810882885e-05,-4.7925659600878134e-05,0.0,0.0,0.0
1.7652948372415267e-05,-4.7708741476526484e-05,0.0,0.0,0.0
1.752018761180807e-05,-4.763757897308096e-05,0.0,0.0,0.0
1.7064961866708472e-05,-4.772589818458073e-05,0.0,0.0,0.0
1.7167432815767825e-05,-4.792596519109793e-05,0.0,0.0,0.0
1.7081943951779976e-05,-4.775803245138377e-05,0.0,0.0,0.0
1.7151873180409893e-05,-4.759610237670131e-05,0.0,0.0,0.0
1.7096112060244195e-05,-4.8004876589402556e-05,0.0,0.0,0.0
1.713906203804072e-05,-4.8261514166370034e-05,0.0,0.0,0.0
1.710760989226401e-05,-4.863514186581597e-05,0.0,0.0,0.0
1.7128830222645774e-05,-4.843272108701058e-05,0.0,0.0,0.0
1.7350592315779068e-05,-4.8075027734739706e-05,0.0,0.0,0.0
1.748115391819738e-05,-4.800939859705977e-05,0.0,0.0,0.0
1.722603883536067e-05,-4.821164475288242e-05,0.0,0.0,0.0
1.7316098819719627e-05,-4.836529114982113e-05,0.0,0.0,0.0
1.747981514199637e-05,-4.831843398278579e-05,0.0,0.0,0.0
1.7433489119866863e-05,-4.836012885789387e-05,0.0,0.0,0.0
1.7478296285844408e-05,-4.849378819926642e-05,0.0,0.0,0.0
1.7435373592888936e-05,-4.8695237637730315e-05,0.0,0.0,0.0
1.762498686730396e-05,-4.8809659347170964e-05,0.0,0.0,0.0
1.7771451894077472e-05,-4.916042598779313e-05,0.0,0.0,0.0
1.793873707356397e-05,-4.920738501823507e-05,0.0,0.0,0.0
1.8101443856721744e-05,-4.926405017613433e-05,0.0,0.0,0.0
1.804490057111252e-05,-4.9538972234586254e-05,0.0,0.0,0.0
1.7786525859264657e-05,-4.9394016969017684e-05,0.0,0.0,0.0
1.771203096723184e-05,-4.922485095448792e-05,0.0,0.0,0.0
1.7548172763781622e-05,-4.9063979531638324e-05,0.0,0.0,0.0
1.781577884685248e-05,-4.9033969844458625e-05,0.0,0.0,0.0
1.8133017874788493e-05,-4.929857823299244e-05,0.0,0.0,0.0
1.808101478673052e-05,-4.904362867819145e-05,0.0,0.0,0.0
1.7798633052734658e-05,-4.8981968575390056e-05,0.0,0.0,0.0
1.748376598698087e-05,-4.9018985009752214e-05,0.0,0.0,0.0
1.7744383512763306e-05,-4.8691734264139086e-05,0.0,0.0,0.0
1.7832708181231283e-05,-4.8665377107681707e-05,0.0,0.0,0.0
1.8034232198260725e-05,-4.868327232543379e-05,0.0,0.0,0.0
1.7662170648691244e-05,-4.867260213359259e-05,0.0,0.0,0.0
1.733282806526404e-05,-4.867719326284714e-05,0.0,0.0,0.0
1.7802511138143018e-05,-4.8677626182325184e-05,0.0,0.0,0.0
1.7503965864307247e-05,-4.867312964051962e-05,0.0,0.0,0.0
1.7249651136808097e-05,-4.868082396569662e-05,0.0,0.0,0.0
1.7090085748350248e-05,-4.867071766057052e-05,0.0,0.0,0.0
1.7343343643005937e-05,-4.868253381573595e-05,0.0,0.0,0.0
1.7267318980884738e-05,-4.8286769015248865e-05,0.0,0.0,0.0
1.7102216588682495e-05,-4.7989291488192976e-05,0.0,0.0,0.0
1.7481217582826503e-05,-4.784632983501069e-05,0.0,0.0,0.0
1.74605429492658e-05,-4.765640551340766e-05,0.0,0.0,0.0
1.713324490992818e-05,-4.782704127137549e-05,0.0,0.0,0.0
1.6828635125420988e-05,-4.8135298129636794e-05,0.0,0.0,0.0
1.6732852600398473e-05,-4.834027276956476e-05,0.0,0.0,0.0
1.7308550013694912e-05,-4.822555638384074e-05,0.0,0.0,0.0
1.7598704289412126e-05,-4.822640403290279e-05,0.0,0.0,0.0
1.7131458662333898e-05,-4.8639321903465316e-05,0.0,0.0,0.0
1.7114196452894248e-05,-4.870670454693027e-05,0.0,0.0,0.0
1.71978917933302e-05,-4.865160008193925e-05,0.0,0.0,0.0
1.7494863641331904e-05,-4.8695939767640084e-05,0.0,0.0,0.0
1.7676287825452164e-05,-4.871415512752719e-05,0.0,0.0,0.0
1.7194708561873995e-05,-4.894903031527065e-05,0.0,0.0,0.0
1.7087764717871323e-05,-4.87622273794841e-05,0.0,0.0,0.0
1.7452419342589565e-05,-4.8905127187026665e-05,0.0,0.0,0.0
1.714753670967184e-05,-4.8791294830152765e-05,0.0,0.0,0.0
1.7672055037110113e-05,-4.886629176326096e-05,0.0,0.0,0.0
1.7340511476504616e-05,-4.91338869323954e-05,0.0,0.0,0.0
1.696016261121258e-05,-4.917748810839839e-05,0.0,0.0,0.0
1.7253794794669375e-05,-4.946305853081867e-05,0.0,0.0,0.0
1.725645961414557e-05,-4.925540633848868e-05,0.0,0.0,0.0
1.7571181160747074e-05,-4.9653292080620304e-05,0.0,0.0,0.0
1.7588634364074096e-05,-4.965446350979619e-05,0.0,0.0,0.0
1.7670476154307835e-05,-4.948769128532149e-05,0.0,0.0,0.0
1.7369331544614397e-05,-4.9323040002491325e-05,0.0,0.0,0.0
1.7329599359072745e-05,-4.93605766678229e-05,0.0,0.0,0.0
1.7425672922399826e-05,-4.934475146001205e-05,0.0,0.0,0.0
1.767546018527355e-05,-4.917210026178509e-05,0.0,0.0,0.0
1.7417152776033618e-05,-4.9179197958437726e-05,0.0,0.0,0.0
1.762722422427032e-05,-4.918589547742158e-05,0.0,0.0,0.0
1.750588126014918e-05,-4.889421325060539e-05,0.0,0.0,0.0
1.738420542096719e-05,-4.8657046136213467e-05,0.0,0.0,0.0
1.777730903995689e-05,-4.869910117122345e-05,0.0,0.0,0.0
1.7795486201066524e-05,-4.8650956159690395e-05,0.0,0.0,0.0
1.7701990145724267e-05,-4.870314660365693e-05,0.0,0.0,0.0
1.7547126844874583e-05,-4.8648718802724034e-05,0.0,0.0,0.0
1.769815025909338e-05,-4.855492079514079e-05,0.0,0.0,0.0
1.7427446437068284e-05,-4.8028647142928094e-05,0.0,0.0,0.0
1.7126065358752385e-05,-4.8040677938843146e-05,0.0,0.0,0.0
1.7194832253153436e-05,-4.8278201575158164e-05,0.0,0.0,0.0
1.767254616424907e-05,-4.8059431719593704e-05,0.0,0.0,0.0
1.7239963199244812e-05,-4.795671338797547e-05,0.0,0.0,0.0
1.7024523913278244e-05,-4.804682612302713e-05,0.0,0.0,0.0
1.7483582269051112e-05,-4.796897337655537e-05,0.0,0.0,0.0
1.7439144357922487e-05,-4.8035013605840504e-05,0.0,0.0,0.0
1.7199326975969598e-05,-4.85119890072383e-05,0.0,0.0,0.0
1.682876973063685e-05,-4.8509391490370035e-05,0.0,0.0,0.0
1.7024021872202866e-05,-4.823737617698498e-05,0.0,0.0,0.0
1.7157915863208473e-05,-4.8423829866806045e-05,0.0,0.0,0.0
1.730846088321414e-05,-4.849865581491031e-05,0.0,0.0,0.0
1.7510668840259314e-05,-4.874660589848645e-05,0.0,0.0,0.0
1.700416032690555e-05,-4.862384594161995e-05,0.0,0.0,0.0
1.6989106370601803e-05,-4.871291093877517e-05,0.0,0.0,0.0
1.7481643226346932e-05,-4.8472677008248866e-05,0.0,0.0,0.0
1.8149386960431002e-05,-4.851371340919286e-05,0.0,0.0,0.0
1.8298675058758818e-05,-4.868657197221182e-05,0.0,0.0,0.0
1.8130889657186344e-05,-4.86597309645731e-05,0.0,0.0,0.0
1.771034294506535e-05,-4.883608198724687e-05,0.0,0.0,0.0
1.7393924281350337e-05,-4.91088030685205e-05,0.0,0.0,0.0
1.799320125428494e-05,-4.92549515911378e-05,0.0,0.0,0.0
1.8254475435242057e-05,-4.910368443233892e-05,0.0,0.0,0.0
1.7820319044403732e-05,-4.935015022056177e-05,0.0,0.0,0.0
1.7766789824236184e-05,-4.942583473166451e-05,0.0,0.0,0.0
1.774007614585571e-05,-4.9671714805299416e-05,0.0,0.0,0.0
1.752537900756579e-05,-4.968928624293767e-05,0.0,0.0,0.0
1.7759741240297444e-05,-4.957575583830476e-05,0.0,0.0,0.0
1.7818500055000186e-05,-4.911606083624065e-05,0.0,0.0,0.0
1.773890107870102e-05,-4.926329347654246e-05,0.0,0.0,0.0
1.751138552208431e-05,-4.939466089126654e-05,0.0,0.0,0.0
1.7411390217603184e-05,-4.89997401018627e-05,0.0,0.0,0.0
1.777929901436437e-05,-4.9305541324429214e-05,0.0,0.0,0.0
1.7805366951506585e-05,-4.883402289124206e-05,0.0,0.0,0.0
1.7778287656255998e-05,-4.8564470489509404e-05,0.0,0.0,0.0
1.780590901034884e-05,-4.877230821875855e-05,0.0,0.0,0.0
1.7778178516891785e-05,-4.883954898105003e-05,0.0,0.0,0.0
1.7337688404950313e-05,-4.887353861704469e-05,0.0,0.0,0.0
1.7281798136536963e-05,-4.857345629716292e-05,0.0,0.0,0.0
1.753080687194597e-05,-4.854662256548181e-05,0.0,0.0,0.0
1.7393578673363663e-05,-4.8055513616418466e-05,0.0,0.0,0.0
1.7316930097877048e-05,-4.805425851373002e-05,0.0,0.0,0.0
1.724788853607606e-05,-4.796998473466374e-05,0.0,0.0,0.0
1.7336788005195558e-05,-4.7856872697593644e-05,0.0,0.0,0.0
1.707659976091236e-05,-4.7813115088501945e-05,0.0,0.0,0.0
1.715373946353793e-05,-4.8308960685972124e-05,0.0,0.0,0.0
1.6958891137619503e-05,-4.867523239227012e-05,0.0,0.0,0.0
1.6932979633565992e-05,-4.841403278987855e-05,0.0,0.0,0.0
1.733336284814868e-05,-4.803599222213961e-05,0.0,0.0,0.0
1.756849633238744e-05,-4.8077043174998835e-05,0.0,0.0,0.0
1.716568658594042e-05,-4.8457204684382305e-05,0.0,0.0,0.0
1.7077183656510897e-05,-4.854823782807216e-05,0.0,0.0,0.0
1.723658169794362e-05,-4.847963646170683e-05,0.0,0.0,0.0
1.7455471606808715e-05,-4.859060936723836e-05,0.0,0.0,0.0
1.7821874280343764e-05,-4.875364902545698e-05,0.0,0.0,0.0
1.7721298718242906e-05,-4.864960283157416e-05,0.0,0.0,0.0
1.754981894919183e-05,-4.900607018498704e-05,0.0,0.0,0.0
1.7699208910926245e-05,-4.869120675721206e-05,0.0,0.0,0.0
1.787194560165517e-05,-4.866472590947524e-05,0.0,0.0,0.0
1.8011169231613167e-05,-4.8972287913784385e-05,0.0,0.0,0.0
1.822578633436933e-05,-4.932278534397483e-05,0.0,0.0,0.0
1.8046514014713466e-05,-4.962221282767132e-05,0.0,0.0,0.0
1.7938375094672665e-05,-4.945517866872251e-05,0.0,0.0,0.0
1.7953414499061182e-05,-4.9294332711724564e-05,0.0,0.0,0.0
1.798718949430622e-05,-4.962524326401763e-05,0.0,0.0,0.0
1.747111491567921e-05,-4.944986358168535e-05,0.0,0.0,0.0
1.772319956216961e-05,-4.9119993491331115e-05,0.0,0.0,0.0
1.7973812646232545e-05,-4.921120489598252e-05,0.0,0.0,0.0
1.7960132026928477e-05,-4.897909457213245e-05,0.0,0.0,0.0
1.794966374291107e-05,-4.88256846438162e-05,0.0,0.0,0.0
1.7976424715016037e-05,-4.904251545667648e-05,0.0,0.0,0.0
1.7939935787580907e-05,-4.883113797404803e-05,0.0,0.0,0.0
1.827853157010395e-05,-4.8837151553016156e-05,0.0,0.0,0.0
1.8192436982644722e-05,-4.8866248107515275e-05,0.0,0.0,0.0
1.7789418052416295e-05,-4.8555812099948525e-05,0.0,0.0,0.0
1.7568167095305398e-05,-4.823062045034021e-05,0.0,0.0,0.0
1.712859739200212e-05,-4.821914990316145e-05,0.0,0.0,0.0
1.7120595657615922e-05,-4.864840229856782e-05,0.0,0.0,0.0
1.7114231013692915e-05,-4.861107299802825e-05,0.0,0.0,0.0
1.720649925118778e-05,-4.827515294891782e-05,0.0,0.0,0.0
1.7415764887118712e-05,-4.801859176950529e-05,0.0,0.0,0.0
1.7495804058853537e-05,-4.799689122592099e-05,0.0,0.0,0.0
1.737599086482078e-05,-4.800809983862564e-05,0.0,0.0,0.0
1.719148531265091e-05,-4.8037491069408134e-05,0.0,0.0,0.0
1.7057740478776395e-05,-4.8276873712893575e-05,0.0,0.0,0.0
1.7175707398564555e-05,-4.808578160009347e-05,0.0,0.0,0.0
1.707309093035292e-05,-4.764680124935694e-05,0.0,0.0,0.0
1.7160902643809095e-05,-4.796615758095868e-05,0.0,0.0,0.0
1.6821375538711436e-05,-4.802421972271986e-05,0.0,0.0,0.0
1.7032582036335953e-05,-4.8244914069073275e-05,0.0,0.0,0.0
1.7159691196866333e-05,-4.83834337501321e-05,0.0,0.0,0.0
1.732022974465508e-05,-4.830581019632518e-05,0.0,0.0,0.0
1.7511032638140023e-05,-4.8591638915240765e-05,0.0,0.0,0.0
1.740936204441823e-05,-4.8675810830900446e-05,0.0,0.0,0.0
1.749638977344148e-05,-4.867513052886352e-05,0.0,0.0,0.0
1.7613785530556925e-05,-4.848719618166797e-05,0.0,0.0,0.0
1.7831791410571896e-05,-4.8507001338293776e-05,0.0,0.0,0.0
1.7759019101504236e-05,-4.869701660936698e-05,0.0,0.0,0.0
1.781904575182125e-05,-4.865861774305813e-05,0.0,0.0,0.0
1.7770238628145307e-05,-4.88398945890367e-05,0.0,0.0,0.0
1.767096546245739e-05,-4.885970338364132e-05,0.0,0.0,0.0
1.7576116078998893e-05,-4.882062421529554e-05,0.0,0.0,0.0
1.7905296772369184e-05,-4.8989662900567055e-05,0.0,0.0,0.0
1.8014250599662773e-05,-4.913659722660668e-05,0.0,0.0,0.0
1.781192622729577e-05,-4.9222042434848845e-05,0.0,0.0,0.0
1.777645775291603e-05,-4.896991958958097e-05,0.0,0.0,0.0
1.780380443960894e-05,-4.8737481847638264e-05,0.0,0.0,0.0
1.7719677998684347e-05,-4.899612758890726e-05,0.0,0.0,0.0
1.759705992299132e-05,-4.902739601675421e-05,0.0,0.0,0.0
1.8036069377558306e-05,-4.903960507363081e-05,0.0,0.0,0.0
1.8171913325204514e-05,-4.926293695461936e-05,0.0,0.0,0.0
1.7768441466614604e-05,-4.8769667046144605e-05,0.0,0.0,0.0
1.7809086784836836e-05,-4.859886394115165e-05,0.0,0.0,0.0
1.7780583220883273e-05,-4.87393481307663e-05,0.0,0.0,0.0
1.7798633052734658e-05,-4.86260287289042e-05,0.0,0.0,0.0
1.752360913087614e-05,-4.844929208047688e-05,0.0,0.0,0.0
1.7421023585484363e-05,-4.8532496293773875e-05,0.0,0.0,0.0
1.7244068658328615e-05,-4.826707299798727e-05,0.0,0.0,0.0
1.7063419363694265e-05,-4.812113911611959e-05,0.0,0.0,0.0
1.7170244973385707e-05,-4.8234382120426744e-05,0.0,0.0,0.0
1.7078065866371617e-05,-4.789284503203817e-05,0.0,0.0,0.0
1.7156628018710762e-05,-4.809022357221693e-05,0.0,0.0,0.0
1.6899230104172602e-05,-4.775149136548862e-05,0.0,0.0,0.0
1.7340529666398652e-05,-4.7880464990157634e-05,0.0,0.0,0.0
1.7465135897509754e-05,-4.799765156349167e-05,0.0,0.0,0.0
1.709981916064862e-05,-4.800069655175321e-05,0.0,0.0,0.0
1.7286833099205978e-05,-4.801840623258613e-05,0.0,0.0,0.0
1.7439995644963346e-05,-4.826043368666433e-05,0.0,0.0,0.0
1.7597472833585925e-05,-4.8564532335149124e-05,0.0,0.0,0.0
1.7772226783563383e-05,-4.83280309708789e-05,0.0,0.0,0.0
1.75958175532287e-05,-4.846456795348786e-05,0.0,0.0,0.0
1.7137770555564202e-05,-4.863958019996062e-05,0.0,0.0,0.0
1.710528704279568e-05,-4.8713263822719455e-05,0.0,0.0,0.0
1.7134221707237884e-05,-4.8639885790180415e-05,0.0,0.0,0.0
1.7300106264883652e-05,-4.8711350245866925e-05,0.0,0.0,0.0
1.8052178347716108e-05,-4.853679274674505e-05,0.0,0.0,0.0
1.8191802155342884e-05,-4.81846000184305e-05,0.0,0.0,0.0
1.804208841349464e-05,-4.852356141782366e-05,0.0,0.0,0.0
1.789628186088521e-05,-4.880641427007504e-05,0.0,0.0,0.0
1.801705548132304e-05,-4.8567071644356474e-05,0.0,0.0,0.0
1.821917248889804e-05,-4.934049866278656e-05,0.0,0.0,0.0
1.777698525984306e-05,-4.9357538955518976e-05,0.0,0.0,0.0
1.7813123122323304e-05,-4.9335336370859295e-05,0.0,0.0,0.0
1.803350642148871e-05,-4.910701682092622e-05,0.0,0.0,0.0
1.8166261725127697e-05,-4.920891660731286e-05,0.0,0.0,0.0
1.7865766494651325e-05,-4.918566264677793e-05,0.0,0.0,0.0
1.733969293127302e-05,-4.892350625596009e-05,0.0,0.0,0.0
1.7513091734144837e-05,-4.9088997911894694e-05,0.0,0.0,0.0
1.8052520317723975e-05,-4.894539597444236e-05,0.0,0.0,0.0
1.809869718272239e-05,-4.9260492232861e-05,0.0,0.0,0.0
1.8146340153180063e-05,-4.9129612307297066e-05,0.0,0.0,0.0
1.8117945728590712e-05,-4.8865447752177715e-05,0.0,0.0,0.0
1.797053664631676e-05,-4.8651792894816026e-05,0.0,0.0,0.0
1.80923416337464e-05,-4.86964599986095e-05,0.0,0.0,0.0
1.8174818251281977e-05,-4.8521713324589655e-05,0.0,0.0,0.0
1.7818996639107354e-05,-4.823122435482219e-05,0.0,0.0,0.0
1.776321187207941e-05,-4.811600592802279e-05,0.0,0.0,0.0
1.7715470676193945e-05,-4.822592018172145e-05,0.0,0.0,0.0
1.7345902961096726e-05,-4.8220172175206244e-05,0.0,0.0,0.0
1.7155834939330816e-05,-4.853211066802032e-05,0.0,0.0,0.0
1.7161482901428826e-05,-4.8339745262637734e-05,0.0,0.0,0.0
1.7526377632748336e-05,-4.783913027495146e-05,0.0,0.0,0.0
1.7702506738714874e-05,-4.742338933283463e-05,0.0,0.0,0.0
1.7478640074841678e-05,-4.7342313337139785e-05,0.0,0.0,0.0
1.7099415345001034e-05,-4.799818998435512e-05,0.0,0.0,0.0
1.7117961760959588e-05,-4.803331466973759e-05,0.0,0.0,0.0
1.6810890883789398e-05,-4.829117824556306e-05,0.0,0.0,0.0
1.6762714949436486e-05,-4.809661550098099e-05,0.0,0.0,0.0
1.708044328552205e-05,-4.8479396355105564e-05,0.0,0.0,0.0
1.7142074284492992e-05,-4.881823042524047e-05,0.0,0.0,0.0
1.7103146092267707e-05,-4.855779479839839e-05,0.0,0.0,0.0
1.7134365407400765e-05,-4.877358514931984e-05,0.0,0.0,0.0
1.7110351109295152e-05,-4.859798718825914e-05,0.0,0.0,0.0
1.7127700630226173e-05,-4.873761281487532e-05,0.0,0.0,0.0
1.7329148249700665e-05,-4.884266672888771e-05,0.0,0.0,0.0
1.767778303474188e-05,-4.926498877466656e-05,0.0,0.0,0.0
1.8175396689912304e-05,-4.894296944257803e-05,0.0,0.0,0.0
1.8121470930054784e-05,-4.866561357630417e-05,0.0,0.0,0.0
1.7762587958713993e-05,-4.886165334028192e-05,0.0,0.0,0.0
1.7494170606369153e-05,-4.915727549814619e-05,0.0,0.0,0.0
1.7104164726333693e-05,-4.936679397360422e-05,0.0,0.0,0.0
1.7268190276809037e-05,-4.932626325171441e-05,0.0,0.0,0.0
1.7702970581012778e-05,-4.9370624765288085e-05,0.0,0.0,0.0
1.7996095266425982e-05,-4.932386946165934e-05,0.0,0.0,0.0
1.7821274013840593e-05,-4.947809429722838e-05,0.0,0.0,0.0
1.7762526113074273e-05,-4.954848191118799e-05,0.0,0.0,0.0
1.782128310878761e-05,-4.9317561206407845e-05,0.0,0.0,0.0
1.7763393771019764e-05,-4.9059250159189105e-05,0.0,0.0,0.0
1.7883457985590212e-05,-4.941092629451305e-05,0.0,0.0,0.0
1.807275111787021e-05,-4.954770702170208e-05,0.0,0.0,0.0
1.8176819139625877e-05,-4.9144262447953224e-05,0.0,0.0,0.0
1.805238389351871e-05,-4.920387436868623e-05,0.0,0.0,0.0
1.7868589566205628e-05,-4.9123682401841506e-05,0.0,0.0,0.0
1.7726555597619154e-05,-4.860718036070466e-05,0.0,0.0,0.0
1.8134327547159046e-05,-4.873181751463562e-05,0.0,0.0,0.0
1.784661435522139e-05,-4.89095073135104e-05,0.0,0.0,0.0
1.7225191186298616e-05,-4.934788739774376e-05,0.0,0.0,0.0
1.7082389604183845e-05,-4.881764107267372e-05,0.0,0.0,0.0
1.71513638633769e-05,-4.8135858378373086e-05,0.0,0.0,0.0
1.7096686860895716e-05,-4.799753151019104e-05,0.0,0.0,0.0
1.736175545374863e-05,-4.800591341336258e-05,0.0,0.0,0.0
1.7252470570383593e-05,-4.800922761205584e-05,0.0,0.0,0.0
1.7092688722186722e-05,-4.799606176675297e-05,0.0,0.0,0.0
1.7337910321657546e-05,-4.801735485671088e-05,0.0,0.0,0.0
1.7262864275835454e-05,-4.7989531594794244e-05,0.0,0.0,0.0
1.7295669749728404e-05,-4.8022415285231546e-05,0.0,0.0,0.0
1.713548590487335e-05,-4.814533895114437e-05,0.0,0.0,0.0
1.693526064627804e-05,-4.8361849621869624e-05,0.0,0.0,0.0
1.7114452930400148e-05,-4.83193107356783e-05,0.0,0.0,0.0
1.7128877516370267e-05,-4.8489077016711235e-05,0.0,0.0,0.0
1.7227714124601334e-05,-4.86474200442899e-05,0.0,0.0,0.0
1.734905526973307e-05,-4.8702979256631806e-05,0.0,0.0,0.0
1.713437268335838e-05,-4.865188748226501e-05,0.0,0.0,0.0
1.711111508484464e-05,-4.869826807407662e-05,0.0,0.0,0.0
1.7275406207772903e-05,-4.865675145993009e-05,0.0,0.0,0.0
1.780232742021326e-05,-4.869332769885659e-05,0.0,0.0,0.0
1.8089343939209357e-05,-4.866169911110774e-05,0.0,0.0,0.0
1.781375613063574e-05,-4.873098077950999e-05,0.0,0.0,0.0
1.7739333998179063e-05,-4.8966885515255854e-05,0.0,0.0,0.0
1.7514552382635884e-05,-4.904946035821922e-05,0.0,0.0,0.0
1.7405285689164884e-05,-4.898149200016633e-05,0.0,0.0,0.0
1.721344597171992e-05,-4.903607623418793e-05,0.0,0.0,0.0
1.7594624296179973e-05,-4.954668111167848e-05,0.0,0.0,0.0
1.7933869457920082e-05,-4.9772002967074513e-05,0.0,0.0,0.0
1.7674245100351982e-05,-4.961188096785918e-05,0.0,0.0,0.0
1.8132612240151502e-05,-4.949490903527476e-05,0.0,0.0,0.0
1.761118255672045e-05,-4.927740155835636e-05,0.0,0.0,0.0
1.7666459825704806e-05,-4.940122380503453e-05,0.0,0.0,0.0
1.8042108422378078e-05,-4.930887371301651e-05,0.0,0.0,0.0
1.7907286746776663e-05,-4.896946848020889e-05,0.0,0.0,0.0
1.7606131223146804e-05,-4.88238874822855e-05,0.0,0.0,0.0
1.7616623154026456e-05,-4.887159229838289e-05,0.0,0.0,0.0
1.7481084796600044e-05,-4.864260336034931e-05,0.0,0.0,0.0
1.7402104276698083e-05,-4.8695950681576505e-05,0.0,0.0,0.0
1.7828944692155346e-05,-4.866850940743461e-05,0.0,0.0,0.0
1.7620839571463875e-05,-4.839758912567049e-05,0.0,0.0,0.0
1.7363179722451605e-05,-4.802603871212341e-05,0.0,0.0,0.0
1.7450116502004676e-05,-4.8212379624601454e-05,0.0,0.0,0.0
1.7897418729262426e-05,-4.8469901230419055e-05,0.0,0.0,0.0
1.740672450978309e-05,-4.80232629342936e-05,0.0,0.0,0.0
1.7099493561545387e-05,-4.799552698386833e-05,0.0,0.0,0.0
1.7138809198513627e-05,-4.793240441358648e-05,0.0,0.0,0.0
1.7232643585884944e-05,-4.7762267058715224e-05,0.0,0.0,0.0
1.769489790603984e-05,-4.794615597347729e-05,0.0,0.0,0.0
1.7483045667177066e-05,-4.814437124878168e-05,0.0,0.0,0.0
1.7033773474395275e-05,-4.852403435506858e-05,0.0,0.0,0.0
1.6544847312616184e-05,-4.8441419494338334e-05,0.0,0.0,0.0
1.6369567674701102e-05,-4.763023025589064e-05,0.0,0.0,0.0
1.708871786831878e-05,-4.885041562374681e-05,0.0,0.0,0.0
1.6874064385774545e-05,-4.859665205003694e-05,0.0,0.0,0.0
1.6719157429179177e-05,-4.841462941840291e-05,0.0,0.0,0.0
1.7097758245654404e-05,-4.88709811179433e-05,0.0,0.0,0.0
1.710167998680845e-05,-4.851548874285072e-05,0.0,0.0,0.0
1.7137834220193326e-05,-4.880687265540473e-05,0.0,0.0,0.0
1.7105074221035466e-05,-4.857241583522409e-05,0.0,0.0,0.0
1.7134576410171576e-05,-4.875663944403641e-05,0.0,0.0,0.0
1.7310256225755438e-05,-4.86164353787899e-05,0.0,0.0,0.0
1.767324465618003e-05,-4.871837518294342e-05,0.0,0.0,0.0
1.7962451238417998e-05,-4.864938455284573e-05,0.0,0.0,0.0
1.7974227375816554e-05,-4.886046735919081e-05,0.0,0.0,0.0
1.7614227544981986e-05,-4.9172758735949174e-05,0.0,0.0,0.0
1.7618576748645864e-05,-4.933983655064367e-05,0.0,0.0,0.0
1.7502914488431998e-05,-4.950038783135824e-05,0.0,0.0,0.0
1.752423486323096e-05,-4.9275568017037585e-05,0.0,0.0,0.0
1.7967415260500275e-05,-4.896447353530675e-05,0.0,0.0,0.0
1.7840700820670463e-05,-4.937718404107727e-05,0.0,0.0,0.0
1.7751073755789548e-05,-4.9739326641429216e-05,0.0,0.0,0.0
1.7825954273575917e-05,-4.9545989895705134e-05,0.0,0.0,0.0
1.791329304978717e-05,-4.934348908136599e-05,0.0,0.0,0.0
1.843473182816524e-05,-4.8974627134157345e-05,0.0,0.0,0.0
1.848957981565036e-05,-4.9045625928556547e-05,0.0,0.0,0.0
1.839713513618335e-05,-4.893966615782119e-05,0.0,0.0,0.0
1.8152519260183908e-05,-4.876928142039105e-05,0.0,0.0,0.0
1.7760214177542366e-05,-4.890035052085295e-05,0.0,0.0,0.0
1.7507700249552727e-05,-4.879388143308461e-05,0.0,0.0,0.0
1.7412401575711556e-05,-4.857864405494183e-05,0.0,0.0,0.0
1.7493419363745488e-05,-4.8755682655610144e-05,0.0,0.0,0.0
1.7691303582978435e-05,-4.861342677031644e-05,0.0,0.0,0.0
1.7341249986202456e-05,-4.872422869084403e-05,0.0,0.0,0.0
1.7009464500006288e-05,-4.839705070480704e-05,0.0,0.0,0.0
1.744567089190241e-05,-4.786768477060832e-05,0.0,0.0,0.0
1.7407728591933846e-05,-4.763085235026665e-05,0.0,0.0,0.0
1.728030292724725e-05,-4.769450242747553e-05,0.0,0.0,0.0
1.7278644008911215e-05,-4.765518315252848e-05,0.0,0.0,0.0
1.769409755070228e-05,-4.78649053547997e-05,0.0,0.0,0.0
1.7589276467333548e-05,-4.802000694326125e-05,0.0,0.0,0.0
1.729078940115869e-05,-4.781481402460486e-05,0.0,0.0,0.0
1.711798358883243e-05,-4.7847766836639494e-05,0.0,0.0,0.0
1.7265767382923514e-05,-4.7983376134652644e-05,0.0,0.0,0.0
1.7324966393061914e-05,-4.8029520257841796e-05,0.0,0.0,0.0
1.7114853108068928e-05,-4.7978082875488326e-05,0.0,0.0,0.0
1.71303308889037e-05,-4.81499737361446e-05,0.0,0.0,0.0
1.710787182673812e-05,-4.819354944629595e-05,0.0,0.0,0.0
1.7135615053121e-05,-4.825055293622427e-05,0.0,0.0,0.0
1.7189184291055426e-05,-4.858910688199103e-05,0.0,0.0,0.0
1.7377291442244314e-05,-4.8753416194813326e-05,0.0,0.0,0.0
1.7338355974061415e-05,-4.8544967285124585e-05,0.0,0.0,0.0
1.7915763237397186e-05,-4.848070602747612e-05,0.0,0.0,0.0
1.760732993716374e-05,-4.861293200519867e-05,0.0,0.0,0.0
1.7299480532528833e-05,-4.909753624815494e-05,0.0,0.0,0.0
1.728221650409978e-05,-4.9244394176639616e-05,0.0,0.0,0.0
1.7300513718510047e-05,-4.912061558570713e-05,0.0,0.0,0.0
1.758230609993916e-05,-4.921081563225016e-05,0.0,0.0,0.0
1.708022682578303e-05,-4.945867112837732e-05,0.0,0.0,0.0
1.7159251001430675e-05,-4.952584640705027e-05,0.0,0.0,0.0
1.7351210772176273e-05,-4.952944436809048e-05,0.0,0.0,0.0
1.774484735506121e-05,-4.9239453801419586e-05,0.0,0.0,0.0
1.7790978745324537e-05,-4.9429290811531246e-05,0.0,0.0,0.0
1.7561604181537405e-05,-4.928951238980517e-05,0.0,0.0,0.0
1.7448732251068577e-05,-4.938536585541442e-05,0.0,0.0,0.0
1.7455280612921342e-05,-4.952973176841624e-05,0.0,0.0,0.0
1.7655744159128517e-05,-4.95113963552285e-05,0.0,0.0,0.0
1.7789772755349986e-05,-4.8970647185342386e-05,0.0,0.0,0.0
1.7630241927690804e-05,-4.883138171862811e-05,0.0,0.0,0.0
1.7279122403124347e-05,-4.920034552924335e-05,0.0,0.0,0.0
1.713958045002073e-05,-4.916491161566228e-05,0.0,0.0,0.0
1.709968455543276e-05,-4.891470234724693e-05,0.0,0.0,0.0
1.727025482978206e-05,-4.8637335567036644e-05,0.0,0.0,0.0
1.7425292753614485e-05,-4.8717793106334284e-05,0.0,0.0,0.0
1.7379497876390815e-05,-4.8633482947479934e-05,0.0,0.0,0.0
1.710841024760157e-05,-4.8719244659878314e-05,0.0,0.0,0.0
1.704764690657612e-05,-4.846395313506946e-05,0.0,0.0,0.0
1.694427373877261e-05,-4.80894414067734e-05,0.0,0.0,0.0
1.7461359675507993e-05,-4.805673597729765e-05,0.0,0.0,0.0
1.77596666617319e-05,-4.863285357714631e-05,0.0,0.0,0.0
1.7428741557523608e-05,-4.832023842027411e-05,0.0,0.0,0.0
1.7110720364144072e-05,-4.805415665032342e-05,0.0,0.0,0.0
1.6805066479719244e-05,-4.82440555060748e-05,0.0,0.0,0.0
1.6767704437370412e-05,-4.779885057359934e-05,0.0,0.0,0.0
1.708641320874449e-05,-4.7847301175352186e-05,0.0,0.0,0.0
1.7150139683508314e-05,-4.8688969400245696e-05,0.0,0.0,0.0
1.709522257442586e-05,-4.811319740838371e-05,0.0,0.0,0.0
1.6887181118363515e-05,-4.770262967213057e-05,0.0,0.0,0.0
1.6979760403046384e-05,-4.8415975470561534e-05,0.0,0.0,0.0
1.7190250218845904e-05,-4.85102464153897e-05,0.0,0.0,0.0
1.750939554767683e-05,-4.84876218251884e-05,0.0,0.0,0.0
1.745636654959526e-05,-4.875522790825926e-05,0.0,0.0,0.0
1.721377884678077e-05,-4.8617355787428096e-05,0.0,0.0,0.0
1.794173840607982e-05,-4.871753480983898e-05,0.0,0.0,0.0
1.7887865396915004e-05,-4.865046139457263e-05,0.0,0.0,0.0
1.765842353051994e-05,-4.9029080400941893e-05,0.0,0.0,0.0
1.7585987734491937e-05,-4.9355676310369745e-05,0.0,0.0,0.0
1.7663549442659132e-05,-4.9480979214422405e-05,0.0,0.0,0.0
1.7585805835551582e-05,-4.9564725486561656e-05,0.0,0.0,0.0
1.7787388060241938e-05,-4.932864976581186e-05,0.0,0.0,0.0
1.7802669390221126e-05,-4.913693919661455e-05,0.0,0.0,0.0
1.777655961632263e-05,-4.89931226184126e-05,0.0,0.0,0.0
1.771548340911977e-05,-4.945342516293749e-05,0.0,0.0,0.0
1.745308327372186e-05,-4.8992038500728086e-05,0.0,0.0,0.0
1.7538590327603742e-05,-4.864766378886998e-05,0.0,0.0,0.0
1.7755304725142196e-05,-4.875943704973906e-05,0.0,0.0,0.0
1.7827615010901354e-05,-4.891854041488841e-05,0.0,0.0,0.0
1.7758002286427654e-05,-4.873786383541301e-05,0.0,0.0,0.0
1.776027238520328e-05,-4.862851710640825e-05,0.0,0.0,0.0
1.7168013073387556e-05,-4.873343641520478e-05,0.0,0.0,0.0
1.7082531485357322e-05,-4.894427547696978e-05,0.0,0.0,0.0
1.7150674466392957e-05,-4.906477261101827e-05,0.0,0.0,0.0
1.7650476365815848e-05,-4.814251951756887e-05,0.0,0.0,0.0
1.735310252115596e-05,-4.792057370650582e-05,0.0,0.0,0.0
1.6976333427010104e-05,-4.859018372371793e-05,0.0,0.0,0.0
1.7238124200957827e-05,-4.818367960979231e-05,0.0,0.0,0.0
1.702686677163001e-05,-4.795423592440784e-05,0.0,0.0,0.0
1.7416803530068137e-05,-4.804526543011889e-05,0.0,0.0,0.0
1.6997510101646185e-05,-4.797332076122984e-05,0.0,0.0,0.0
1.6972502635326236e-05,-4.802893818123266e-05,0.0,0.0,0.0
1.7153797671198845e-05,-4.798715599463321e-05,0.0,0.0,0.0
1.7267728253500536e-05,-4.819813693757169e-05,0.0,0.0,0.0
1.7327527530142106e-05,-4.817016451852396e-05,0.0,0.0,0.0
1.707701085251756e-05,-4.799859380000271e-05,0.0,0.0,0.0
1.7160598872578703e-05,-4.8309386329492554e-05,0.0,0.0,0.0
1.6946189134614542e-05,-4.838883251068182e-05,0.0,0.0,0.0
1.6950234567048028e-05,-4.7898574848659337e-05,0.0,0.0,0.0
1.7078742530429736e-05,-4.7892484872136265e-05,0.0,0.0,0.0
1.726325172057841e-05,-4.832627018913627e-05,0.0,0.0,0.0
1.7314354408881627e-05,-4.844833165407181e-05,0.0,0.0,0.0
1.717822306090966e-05,-4.85623640997801e-05,0.0,0.0,0.0
1.7072601622203365e-05,-4.853604332311079e-05,0.0,0.0,0.0
1.722361776046455e-05,-4.885793532594107e-05,0.0,0.0,0.0
1.7449767256039195e-05,-4.8781388613861054e-05,0.0,0.0,0.0
1.7808120901463553e-05,-4.8672922275727615e-05,0.0,0.0,0.0
1.7717818991513923e-05,-4.9350586778018624e-05,0.0,0.0,0.0
1.720313957775943e-05,-4.934741082252003e-05,0.0,0.0,0.0
1.7054340787581168e-05,-4.934578828397207e-05,0.0,0.0,0.0
1.7459509763284586e-05,-4.935128163197078e-05,0.0,0.0,0.0
1.745857298374176e-05,-4.989575609215535e-05,0.0,0.0,0.0
1.7449463484808803e-05,-5.010050517739728e-05,0.0,0.0,0.0
1.772223367879633e-05,-4.9694219342200086e-05,0.0,0.0,0.0
1.8053980966215022e-05,-4.9466420023236424e-05,0.0,0.0,0.0
1.791178874555044e-05,-4.9296944780508056e-05,0.0,0.0,0.0
1.7747706806403585e-05,-4.961275772075169e-05,0.0,0.0,0.0
1.783339394023642e-05,-4.92455146741122e-05,0.0,0.0,0.0
1.775370583345648e-05,-4.918713239021599e-05,0.0,0.0,0.0
1.7827185729402117e-05,-4.900335261481814e-05,0.0,0.0,0.0
1.7579257473698817e-05,-4.880137930740602e-05,0.0,0.0,0.0
1.7647351342020556e-05,-4.9066718929680064e-05,0.0,0.0,0.0
1.761788735166192e-05,-4.8807192797539756e-05,0.0,0.0,0.0
1.7468841178924777e-05,-4.9009566282620654e-05,0.0,0.0,0.0
1.7582646250957623e-05,-4.890040872851387e-05,0.0,0.0,0.0
1.779775084287394e-05,-4.8255133151542395e-05,0.0,0.0,0.0
1.778663499862887e-05,-4.797907604370266e-05,0.0,0.0,0.0
1.7796888641896658e-05,-4.823769995709881e-05,0.0,0.0,0.0
1.778779369487893e-05,-4.843903298024088e-05,0.0,0.0,0.0
1.771042479958851e-05,-4.824943243875168e-05,0.0,0.0,0.0
1.7401198419975117e-05,-4.84222691738978e-05,0.0,0.0,0.0
1.712902849249076e-05,-4.826988879358396e-05,0.0,0.0,0.0
1.7060725440387614e-05,-4.839929169975221e-05,0.0,0.0,0.0
1.682199763308745e-05,-4.8209287342615426e-05,0.0,0.0,0.0
1.67861144291237e-05,-4.7869067202555016e-05,0.0,0.0,0.0
1.7106929590227082e-05,-4.841561531065963e-05,0.0,0.0,0.0
1.713369601930026e-05,-4.797379006049596e-05,0.0,0.0,0.0
1.710814467514865e-05,-4.859626278630458e-05,0.0,0.0,0.0
1.713252095214557e-05,-4.8476747906534e-05,0.0,0.0,0.0
1.71092979144305e-05,-4.849529068451375e-05,0.0,0.0,0.0
1.738661012495868e-05,-4.8811620217747986e-05,0.0,0.0,0.0
1.7232665413757786e-05,-4.8556663386989385e-05,0.0,0.0,0.0
1.7310454495600425e-05,-4.83131043438334e-05,0.0,0.0,0.0
1.7292850316152908e-05,-4.831180194742046e-05,0.0,0.0,0.0
1.7264235793845728e-05,-4.883699511992745e-05,0.0,0.0,0.0
1.7326956367469393e-05,-4.8744474042905495e-05,0.0,0.0,0.0
1.704910937405657e-05,-4.913592420052737e-05,0.0,0.0,0.0
1.7537287931190804e-05,-4.909349445370026e-05,0.0,0.0,0.0
1.7597005353309214e-05,-4.943265957990661e-05,0.0,0.0,0.0
1.7467000361648388e-05,-4.928397902403958e-05,0.0,0.0,0.0
1.7601767467567697e-05,-4.939252175972797e-05,0.0,0.0,0.0
1.764908120094333e-05,-4.945762702845968e-05,0.0,0.0,0.0
1.7726506484905258e-05,-4.943667954648845e-05,0.0,0.0,0.0
1.797510230971966e-05,-4.9032569222617894e-05,0.0,0.0,0.0
1.783978041203227e-05,-4.9090198444901034e-05,0.0,0.0,0.0
1.7555003068991937e-05,-4.936643017572351e-05,0.0,0.0,0.0
1.7371183275827207e-05,-4.932217416353524e-05,0.0,0.0,0.0
1.7675913113635033e-05,-4.9303987907478586e-05,0.0,0.0,0.0
1.7893582480610348e-05,-4.8938840336631984e-05,0.0,0.0,0.0
1.765093838912435e-05,-4.872068893746473e-05,0.0,0.0,0.0
1.7563424989930354e-05,-4.8588648496661335e-05,0.0,0.0,0.0
1.7334012227365747e-05,-4.84526353830006e-05,0.0,0.0,0.0
1.723426794342231e-05,-4.856391024077311e-05,0.0,0.0,0.0
1.7026910427375697e-05,-4.877620449406095e-05,0.0,0.0,0.0
1.719623469398357e-05,-4.83012008771766e-05,0.0,0.0,0.0
1.6784835679573007e-05,-4.8652469558874145e-05,0.0,0.0,0.0
1.6791815141914412e-05,-4.815105421585031e-05,0.0,0.0,0.0
1.704002352198586e-05,-4.793153129867278e-05,0.0,0.0,0.0
1.7146066966233775e-05,-4.8065357987070456e-05,0.0,0.0,0.0
1.7105296137742698e-05,-4.795563654624857e-05,0.0,0.0,0.0
1.6903853975236416e-05,-4.782107498613186e-05,0.0,0.0,0.0
1.6764690371928737e-05,-4.782955875271e-05,0.0,0.0,0.0
1.679525121289771e-05,-4.846844240091741e-05,0.0,0.0,0.0
1.6783034880063497e-05,-4.8658224841346964e-05,0.0,0.0,0.0
1.6960539142019115e-05,-4.8327172407880425e-05,0.0,0.0,0.0
1.7139485862571746e-05,-4.832154809264466e-05,0.0,0.0,0.0
1.7098614989663474e-05,-4.854282451560721e-05,0.0,0.0,0.0
1.7144877347163856e-05,-4.832082777284086e-05,0.0,0.0,0.0
1.709492971713189e-05,-4.8215293645625934e-05,0.0,0.0,0.0
1.727465496514924e-05,-4.813059058506042e-05,0.0,0.0,0.0
1.7421099983039312e-05,-4.8446745495311916e-05,0.0,0.0,0.0
1.759629049047362e-05,-4.867705865763128e-05,0.0,0.0,0.0
1.7649299479671754e-05,-4.8672511184122413e-05,0.0,0.0,0.0
1.7602613297640346e-05,-4.868230826104991e-05,0.0,0.0,0.0
1.7716043657856062e-05,-4.8668629460735247e-05,0.0,0.0,0.0
1.785776657925453e-05,-4.868499672738835e-05,0.0,0.0,0.0
1.7735907022142783e-05,-4.866697418037802e-05,0.0,0.0,0.0
1.7839111023931764e-05,-4.8770856665214524e-05,0.0,0.0,0.0
1.7753320207702927e-05,-4.9299673264613375e-05,0.0,0.0,0.0
1.782296567398589e-05,-4.969226574758068e-05,0.0,0.0,0.0
1.7768184989108704e-05,-4.9363912694389e-05,0.0,0.0,0.0
1.780938146112021e-05,-4.933361560688354e-05,0.0,0.0,0.0
1.8056998669635504e-05,-4.908340270048939e-05,0.0,0.0,0.0
1.7905922504724003e-05,-4.922939479001798e-05,0.0,0.0,0.0
1.7724350982462056e-05,-4.942304076394066e-05,0.0,0.0,0.0
1.8333526895730756e-05,-4.9284735723631456e-05,0.0,0.0,0.0
1.8246393665322103e-05,-4.939951759297401e-05,0.0,0.0,0.0
1.8083606846630573e-05,-4.9082365876529366e-05,0.0,0.0,0.0
1.7957063391804695e-05,-4.902407818008214e-05,0.0,0.0,0.0
1.7936426957021467e-05,-4.9205980758415535e-05,0.0,0.0,0.0
1.819444696593564e-05,-4.898398037767038e-05,0.0,0.0,0.0
1.8068787539959885e-05,-4.864012953476049e-05,0.0,0.0,0.0
1.8009157429332845e-05,-4.870373595622368e-05,0.0,0.0,0.0
1.7583204680704512e-05,-4.881592030869797e-05,0.0,0.0,0.0
1.764588159858249e-05,-4.9026570195565e-05,0.0,0.0,0.0
1.7479134839959443e-05,-4.8726898967288435e-05,0.0,0.0,0.0
1.728945062495768e-05,-4.822724804398604e-05,0.0,0.0,0.0
1.7296126316068694e-05,-4.800477472599596e-05,0.0,0.0,0.0
1.738126047712285e-05,-4.8001536924857646e-05,0.0,0.0,0.0
1.753028300299775e-05,-4.801099203177728e-05,0.0,0.0,0.0
1.7301379557466134e-05,-4.8081710701808333e-05,0.0,0.0,0.0
1.7280521205975674e-05,-4.825397991226055e-05,0.0,0.0,0.0
1.729309224174358e-05,-4.803801130037755e-05,0.0,0.0,0.0
1.728585448290687e-05,-4.803233241545968e-05,0.0,0.0,0.0
1.7247602954739705e-05,-4.837048618355766e-05,0.0,0.0,0.0
1.7050313545041718e-05,-4.8654284910298884e-05,0.0,0.0,0.0
1.745529516483657e-05,-4.869265103479847e-05,0.0,0.0,0.0
1.6840936950757168e-05,-4.866470044362359e-05,0.0,0.0,0.0
1.7017027857946232e-05,-4.839668326894753e-05,0.0,0.0,0.0
1.749176408338826e-05,-4.857181556872092e-05,0.0,0.0,0.0
1.7142279830295593e-05,-4.874979640590027e-05,0.0,0.0,0.0
1.71321771631483e-05,-4.861731213168241e-05,0.0,0.0,0.0
1.710583092062734e-05,-4.8722431529313326e-05,0.0,0.0,0.0
1.737179991323501e-05,-4.864133370574564e-05,0.0,0.0,0.0
1.746190719131846e-05,-4.914817327517085e-05,0.0,0.0,0.0
1.745590452628676e-05,-4.8947720642900094e-05,0.0,0.0,0.0
1.785668428055942e-05,-4.881736094830558e-05,0.0,0.0,0.0
1.816380608943291e-05,-4.9080754251917824e-05,0.0,0.0,0.0
1.791345675883349e-05,-4.8771431465866044e-05,0.0,0.0,0.0
1.7814796592574567e-05,-4.8889840400079265e-05,0.0,0.0,0.0
1.761116254783701e-05,-4.91390674142167e-05,0.0,0.0,0.0
1.7921396647579968e-05,-4.952520612278022e-05,0.0,0.0,0.0
1.8163684217142873e-05,-4.938130950904451e-05,0.0,0.0,0.0
1.7824178939918056e-05,-4.9298709200229496e-05,0.0,0.0,0.0
1.776311000867281e-05,-4.952316521666944e-05,0.0,0.0,0.0
1.781765604391694e-05,-4.9395417590858415e-05,0.0,0.0,0.0
1.7673919501248747e-05,-4.9117043090518564e-05,0.0,0.0,0.0
1.7579275663592853e-05,-4.8830173909664154e-05,0.0,0.0,0.0
1.7737964299158193e-05,-4.893360528512858e-05,0.0,0.0,0.0
1.790118039934896e-05,-4.901207285001874e-05,0.0,0.0,0.0
1.806175168894697e-05,-4.865401569986716e-05,0.0,0.0,0.0
1.8139486201107502e-05,-4.869125041295774e-05,0.0,0.0,0.0
1.775167947926093e-05,-4.8667669034330174e-05,0.0,0.0,0.0
1.7456615751143545e-05,-4.8679412429919466e-05,0.0,0.0,0.0
1.683552000031341e-05,-4.8677800805307925e-05,0.0,0.0,0.0
1.7312891941401176e-05,-4.8096593673108146e-05,0.0,0.0,0.0
1.7857231796369888e-05,-4.7931298468029127e-05,0.0,0.0,0.0
1.7191057850141078e-05,-4.806240031030029e-05,0.0,0.0,0.0
1.736654303385876e-05,-4.796150460606441e-05,0.0,0.0,0.0
1.7738739188644104e-05,-4.8035926738521084e-05,0.0,0.0,0.0
1.7789476260077208e-05,-4.775052366312593e-05,0.0,0.0,0.0
1.7569256669958122e-05,-4.743267345475033e-05,0.0,0.0,0.0
1.7223543181899004e-05,-4.75417218694929e-05,0.0,0.0,0.0
1.7117905372288078e-05,-4.788733349414542e-05,0.0,0.0,0.0
1.7124573787441477e-05,-4.801144314114936e-05,0.0,0.0,0.0
1.7296515579801053e-05,-4.79941263620276e-05,0.0,0.0,0.0
1.7469788872404024e-05,-4.801884279004298e-05,0.0,0.0,0.0
1.7284373825532384e-05,-4.830765101360157e-05,0.0,0.0,0.0
1.7130714695667848e-05,-4.869657277595252e-05,0.0,0.0,0.0
1.7249465599888936e-05,-4.865602750214748e-05,0.0,0.0,0.0
1.7587193724466488e-05,-4.8568395868642256e-05,0.0,0.0,0.0
1.7780244888854213e-05,-4.8213503760052845e-05,0.0,0.0,0.0
1.7696022041491233e-05,-4.8239609895972535e-05,0.0,0.0,0.0
1.746272209857125e-05,-4.862565765506588e-05,0.0,0.0,0.0
1.7535843653604388e-05,-4.8720245104050264e-05,0.0,0.0,0.0
1.7774875232134946e-05,-4.863866706728004e-05,0.0,0.0,0.0
1.7742679119692184e-05,-4.8707872338127345e-05,0.0,0.0,0.0
1.7526152078062296e-05,-4.875669037573971e-05,0.0,0.0,0.0
1.7745418517733924e-05,-4.930442446493544e-05,0.0,0.0,0.0
1.783197330951225e-05,-4.9418034905102104e-05,0.0,0.0,0.0
1.7758075046003796e-05,-4.954683026880957e-05,0.0,0.0,0.0
1.7820546418079175e-05,-4.8864996642805636e-05,0.0,0.0,0.0
1.7768348698155023e-05,-4.908994378638454e-05,0.0,0.0,0.0
1.781135688361246e-05,-4.956502380082384e-05,0.0,0.0,0.0
1.777652869350277e-05,-4.86350545543246e-05,0.0,0.0,0.0
1.8314593035029247e-05,-4.901074862573296e-05,0.0,0.0,0.0
1.8271925000590272e-05,-4.873709985986352e-05,0.0,0.0,0.0
1.7820648281485774e-05,-4.890223499387503e-05,0.0,0.0,0.0
1.782883373380173e-05,-4.904880188405514e-05,0.0,0.0,0.0
1.7761769413482398e-05,-4.876317689195275e-05,0.0,0.0,0.0
1.781634819053579e-05,-4.8693411372369155e-05,0.0,0.0,0.0
1.7772996216081083e-05,-4.8657548177288845e-05,0.0,0.0,0.0
1.7987114915740676e-05,-4.8696012527216226e-05,0.0,0.0,0.0
1.7955302610062063e-05,-4.865607479587197e-05,0.0,0.0,0.0
1.7468526493757963e-05,-4.869650365435518e-05,0.0,0.0,0.0
1.742120184644591e-05,-4.8656434955773875e-05,0.0,0.0,0.0
1.750702904246282e-05,-4.841891131945886e-05,0.0,0.0,0.0
1.7140951968031004e-05,-4.799752787221223e-05,0.0,0.0,0.0
1.7451715393690392e-05,-4.801226532435976e-05,0.0,0.0,0.0
1.7898109945235774e-05,-4.789138620253652e-05,0.0,0.0,0.0
1.7404037862434052e-05,-4.778696529683657e-05,0.0,0.0,0.0
1.710390097287018e-05,-4.7881865611998364e-05,0.0,0.0,0.0
1.713295205263421e-05,-4.7798104787943885e-05,0.0,0.0,0.0
1.7112080968217924e-05,-4.7933463065419346e-05,0.0,0.0,0.0
1.7179112546727993e-05,-4.8011621402110904e-05,0.0,0.0,0.0
1.7379221390001476e-05,-4.7694291424704716e-05,0.0,0.0,0.0
1.7183378076879308e-05,-4.801421891897917e-05,0.0,0.0,0.0
1.7069442037609406e-05,-4.8344696551794186e-05,0.0,0.0,0.0
1.7161537471110933e-05,-4.864672519033775e-05,0.0,0.0,0.0
1.7663038306636736e-05,-4.841653208131902e-05,0.0,0.0,0.0
1.7898135411087424e-05,-4.799768066732213e-05,0.0,0.0,0.0
1.7440444935346022e-05,-4.855648512602784e-05,0.0,0.0,0.0
1.7744712749845348e-05,-4.821662150789052e-05,0.0,0.0,0.0
1.780021375452634e-05,-4.8390767915407196e-05,0.0,0.0,0.0
1.77802376128966e-05,-4.881612039753236e-05,0.0,0.0,0.0
1.780656566552352e-05,-4.878615800407715e-05,0.0,0.0,0.0
1.7775448213797063e-05,-4.891034041065723e-05,0.0,0.0,0.0
1.8012018699664623e-05,-4.877392711932771e-05,0.0,0.0,0.0
1.7932090486283414e-05,-4.910622374154627e-05,0.0,0.0,0.0
1.778784644557163e-05,-4.91227547172457e-05,0.0,0.0,0.0
1.77920373971574e-05,-4.9234262405661866e-05,0.0,0.0,0.0
1.7954847862711176e-05,-4.912996882922016e-05,0.0,0.0,0.0
1.8271961380378343e-05,-4.9372531066183e-05,0.0,0.0,0.0
1.8191836716141552e-05,-4.9200200010091066e-05,0.0,0.0,0.0
1.7796082829590887e-05,-4.888592229690403e-05,0.0,0.0,0.0
1.779043668648228e-05,-4.8694750148570165e-05,0.0,0.0,0.0
1.789803536667023e-05,-4.87561737827491e-05,0.0,0.0,0.0
1.7922682673088275e-05,-4.9029164074454457e-05,0.0,0.0,0.0
1.7674256014288403e-05,-4.898820770904422e-05,0.0,0.0,0.0
1.80440183612518e-05,-4.896618702332489e-05,0.0,0.0,0.0
1.8197819372289814e-05,-4.86695789732039e-05,0.0,0.0,0.0
1.8016544345300645e-05,-4.868879841524176e-05,0.0,0.0,0.0
1.787125802366063e-05,-4.8616919229971245e-05,0.0,0.0,0.0
1.7695150745566934e-05,-4.836375592276454e-05,0.0,0.0,0.0
1.7525968360132538e-05,-4.801321847480722e-05,0.0,0.0,0.0
1.7088648746721447e-05,-4.8313449951820076e-05,0.0,0.0,0.0
1.7718224626150914e-05,-4.778608126798645e-05,0.0,0.0,0.0
1.7581791325937957e-05,-4.7573215852025896e-05,0.0,0.0,0.0
1.735951445880346e-05,-4.801271279575303e-05,0.0,0.0,0.0
1.7539960026624613e-05,-4.7977584472391754e-05,0.0,0.0,0.0
1.738489663694054e-05,-4.777957292390056e-05,0.0,0.0,0.0
1.728250390442554e-05,-4.7628680476918817e-05,0.0,0.0,0.0
1.7269672753172927e-05,-4.792303661815822e-05,0.0,0.0,0.0
1.7538182873977348e-05,-4.800393435289152e-05,0.0,0.0,0.0
1.7592414224054664e-05,-4.820451431442052e-05,0.0,0.0,0.0
1.7475371350883506e-05,-4.797716246685013e-05,0.0,0.0,0.0
1.7047312212525867e-05,-4.780899325851351e-05,0.0,0.0,0.0
1.734646866680123e-05,-4.838875975110568e-05,0.0,0.0,0.0
1.726123628031928e-05,-4.848901153309271e-05,0.0,0.0,0.0
1.7440068404539488e-05,-4.851154881180264e-05,0.0,0.0,0.0
1.750017690937966e-05,-4.865595110459253e-05,0.0,0.0,0.0
1.7392876543453895e-05,-4.869282929576002e-05,0.0,0.0,0.0
1.764950320648495e-05,-4.866333620157093e-05,0.0,0.0,0.0
1.737774073262699e-05,-4.868582618655637e-05,0.0,0.0,0.0
1.7213920727954246e-05,-4.8669895477360114e-05,0.0,0.0,0.0
1.751884883560706e-05,-4.867976167588495e-05,0.0,0.0,0.0
1.7794938685256056e-05,-4.86754288431257e-05,0.0,0.0,0.0
1.7911939721670933e-05,-4.8738595069153234e-05,0.0,0.0,0.0
1.825805338739883e-05,-4.898689439869486e-05,0.0,0.0,0.0
1.7629154172027484e-05,-4.911606083624065e-05,0.0,0.0,0.0
1.761884595907759e-05,-4.956730845151469e-05,0.0,0.0,0.0
1.7588079572306015e-05,-4.943368912790902e-05,0.0,0.0,0.0
1.703911038930528e-05,-4.896636528428644e-05,0.0,0.0,0.0
1.7182423107442446e-05,-4.933348827762529e-05,0.0,0.0,0.0
1.7905424101627432e-05,-4.936425466439687e-05,0.0,0.0,0.0
1.7739313989295624e-05,-4.906343383481726e-05,0.0,0.0,0.0
1.753051947162021e-05,-4.8741920181782916e-05,0.0,0.0,0.0
1.7476231732871383e-05,-4.8653506382834166e-05,0.0,0.0,0.0
1.739874824124854e-05,-4.916725811199285e-05,0.0,0.0,0.0
1.7763826690497808e-05,-4.915041063213721e-05,0.0,0.0,0.0
1.7499138266430236e-05,-4.8972513468470424e-05,0.0,0.0,0.0
1.7935632058652118e-05,-4.8839152441360056e-05,0.0,0.0,0.0
1.768974107108079e-05,-4.844991417485289e-05,0.0,0.0,0.0
1.7497111912234686e-05,-4.817345688934438e-05,0.0,0.0,0.0
1.6898333342396654e-05,-4.8330239224014804e-05,0.0,0.0,0.0
1.680405330262147e-05,-4.869340409641154e-05,0.0,0.0,0.0
1.6937392501858994e-05,-4.836909283767454e-05,0.0,0.0,0.0
1.7234740880667232e-05,-4.828854071092792e-05,0.0,0.0,0.0
1.748961949488148e-05,-4.8280890041496605e-05,0.0,0.0,0.0
1.7528280295664445e-05,-4.7702284064143896e-05,0.0,0.0,0.0
1.7727263184497133e-05,-4.775042907567695e-05,0.0,0.0,0.0
1.73268581420416e-05,-4.800783426617272e-05,0.0,0.0,0.0
1.718019848340191e-05,-4.8005440476117656e-05,0.0,0.0,0.0
1.705905560811516e-05,-4.800160604645498e-05,0.0,0.0,0.0
1.7246125935344025e-05,-4.801018803846091e-05,0.0,0.0,0.0
1.7314267097390257e-05,-4.7998160880524665e-05,0.0,0.0,0.0
1.7234387996722944e-05,-4.805503340321593e-05,0.0,0.0,0.0
1.6987525668810122e-05,-4.83291587443091e-05,0.0,0.0,0.0
1.6933403458097018e-05,-4.867570532951504e-05,0.0,0.0,0.0
1.6969808712019585e-05,-4.8676087317289785e-05,0.0,0.0,0.0
1.724755929899402e-05,-4.8676913138478994e-05,0.0,0.0,0.0
1.6739497368689626e-05,-4.8675479774829e-05,0.0,0.0,0.0
1.709695061435923e-05,-4.814528438146226e-05,0.0,0.0,0.0
1.71217125171097e-05,-4.844595605391078e-05,0.0,0.0,0.0
1.735810837999452e-05,-4.879611879005097e-05,0.0,0.0,0.0
1.773070835042745e-05,-4.857759631704539e-05,0.0,0.0,0.0
1.7552481949678622e-05,-4.897917460766621e-05,0.0,0.0,0.0
1.7455626220908016e-05,-4.91834434797056e-05,0.0,0.0,0.0
1.7247681171284057e-05,-4.9395053792977706e-05,0.0,0.0,0.0
1.75018376467051e-05,-4.931366493110545e-05,0.0,0.0,0.0
1.7808153643272817e-05,-4.9369973567081615e-05,0.0,0.0,0.0
1.7786662283469923e-05,-4.91653845529072e-05,0.0,0.0,0.0
1.778814839781262e-05,-4.9170368583872914e-05,0.0,0.0,0.0
1.795254138414748e-05,-4.920753417536616e-05,0.0,0.0,0.0
1.7831112927524373e-05,-4.913879092782736e-05,0.0,0.0,0.0
1.761985186021775e-05,-4.9229958676733077e-05,0.0,0.0,0.0
1.786177745088935e-05,-4.8890251491684467e-05,0.0,0.0,0.0
1.8163345885113813e-05,-4.8696900194045156e-05,0.0,0.0,0.0
1.8090793673763983e-05,-4.865436130785383e-05,0.0,0.0,0.0
1.7909836969920434e-05,-4.8698853788664564e-05,0.0,0.0,0.0
1.7372927686665207e-05,-4.865361188421957e-05,0.0,0.0,0.0
1.7840127839008346e-05,-4.8698551836423576e-05,0.0,0.0,0.0
1.7284044588450342e-05,-4.865481605520472e-05,0.0,0.0,0.0
1.707150659058243e-05,-4.865404844167642e-05,0.0,0.0,0.0
1.7829795979196206e-05,-4.8388894356321543e-05,0.0,0.0,0.0
1.774497468431946e-05,-4.858244210481644e-05,0.0,0.0,0.0
1.7513921193312854e-05,-4.813107807422057e-05,0.0,0.0,0.0
1.7126358216046356e-05,-4.818648085347377e-05,0.0,0.0,0.0
1.7662767277215607e-05,-4.8192287067649886e-05,0.0,0.0,0.0
1.7882262909552082e-05,-4.733028254122473e-05,0.0,0.0,0.0
1.7456313798902556e-05,-4.7635938244638965e-05,0.0,0.0,0.0
1.7740736439009197e-05,-4.7665373131167144e-05,0.0,0.0,0.0
1.7316104276687838e-05,-4.766761776409112e-05,0.0,0.0,0.0
1.7080132238334045e-05,-4.7898414777591825e-05,0.0,0.0,0.0
1.6940179193625227e-05,-4.8229463573079556e-05,0.0,0.0,0.0
1.6943873561103828e-05,-4.8150632210308686e-05,0.0,0.0,0.0
1.7169320926768705e-05,-4.816771615878679e-05,0.0,0.0,0.0
1.7262895198655315e-05,-4.855989755014889e-05,0.0,0.0,0.0
1.73238313436741e-05,-4.864927177550271e-05,0.0,0.0,0.0
1.708731724647805e-05,-4.870109842158854e-05,0.0,0.0,0.0
1.7443146134610288e-05,-4.865381197305396e-05,0.0,0.0,0.0
1.7770356862456538e-05,-4.8558038542978466e-05,0.0,0.0,0.0
1.7807453332352452e-05,-4.8200858145719394e-05,0.0,0.0,0.0
1.7664782717474736e-05,-4.825777068617754e-05,0.0,0.0,0.0
1.7580714484211057e-05,-4.8742684157332405e-05,0.0,0.0,0.0
1.7763701180228963e-05,-4.903028457192704e-05,0.0,0.0,0.0
1.781393075361848e-05,-4.891223579761572e-05,0.0,0.0,0.0
1.7701097021927126e-05,-4.8783989768708125e-05,0.0,0.0,0.0
1.755736411723774e-05,-4.895978418062441e-05,0.0,0.0,0.0
1.77337096829433e-05,-4.9107748054666445e-05,0.0,0.0,0.0
1.7882031897897832e-05,-4.928181806462817e-05,0.0,0.0,0.0
1.802255974325817e-05,-4.936897676088847e-05,0.0,0.0,0.0
1.7890231902129017e-05,-4.898746556136757e-05,0.0,0.0,0.0
1.7711719920043834e-05,-4.871720739174634e-05,0.0,0.0,0.0
1.7856449630926363e-05,-4.8932521167444065e-05,0.0,0.0,0.0
1.7741562260198407e-05,-4.935163087793626e-05,0.0,0.0,0.0
1.7564390873303637e-05,-4.907090624328703e-05,0.0,0.0,0.0
1.764946682669688e-05,-4.8726684326538816e-05,0.0,0.0,0.0
1.7870410374598578e-05,-4.867500683758408e-05,0.0,0.0,0.0
1.7497741282568313e-05,-4.890690615866333e-05,0.0,0.0,0.0
1.7699700038065203e-05,-4.8820242227520794e-05,0.0,0.0,0.0
1.7802649381337687e-05,-4.862465721089393e-05,0.0,0.0,0.0
1.777703255356755e-05,-4.8722871724748984e-05,0.0,0.0,0.0
1.7810312783694826e-05,-4.8634596168994904e-05,0.0,0.0,0.0
1.740976767905522e-05,-4.871319833910093e-05,0.0,0.0,0.0
1.7297230442636646e-05,-4.847380114370026e-05,0.0,0.0,0.0
1.7291093172389083e-05,-4.820441608899273e-05,0.0,0.0,0.0
1.7128926629084162e-05,-4.79835071018897e-05,0.0,0.0,0.0
1.7108981410274282e-05,-4.774620902026072e-05,0.0,0.0,0.0
1.7134703739429824e-05,-4.745741898659617e-05,0.0,0.0,0.0
1.7104888684116304e-05,-4.7662244469393045e-05,0.0,0.0,0.0
1.713732308417093e-05,-4.778310176334344e-05,0.0,0.0,0.0
1.710354808892589e-05,-4.807710138265975e-05,0.0,0.0,0.0
1.7052490875357762e-05,-4.8258625611197203e-05,0.0,0.0,0.0
1.6864969438756816e-05,-4.802261173608713e-05,0.0,0.0,0.0
1.709206662781071e-05,-4.799141242983751e-05,0.0,0.0,0.0
1.7143605873570777e-05,-4.8014542699093e-05,0.0,0.0,0.0
1.710237847873941e-05,-4.804115087608807e-05,0.0,0.0,0.0
1.7134878362412564e-05,-4.8340509238187224e-05,0.0,0.0,0.0
1.710969263513107e-05,-4.8624337068758905e-05,0.0,0.0,0.0
1.712881748971995e-05,-4.809489109902643e-05,0.0,0.0,0.0
1.7114647562266327e-05,-4.879194966633804e-05,0.0,0.0,0.0
1.712483208393678e-05,-4.891902062809095e-05,0.0,0.0,0.0
1.738366154313553e-05,-4.875370723311789e-05,0.0,0.0,0.0
1.7492555343778804e-05,-4.945440741721541e-05,0.0,0.0,0.0
1.7671163732302375e-05,-4.8984558816300705e-05,0.0,0.0,0.0
1.784390587999951e-05,-4.9308491725241765e-05,0.0,0.0,0.0
1.7749736798577942e-05,-4.977633943781257e-05,0.0,0.0,0.0
1.7613128875382245e-05,-4.96408247272484e-05,0.0,0.0,0.0
1.7614165699342266e-05,-4.948516652802937e-05,0.0,0.0,0.0
1.784120649972465e-05,-4.974074909114279e-05,0.0,0.0,0.0
1.7572951037436724e-05,-4.964716572430916e-05,0.0,0.0,0.0
1.747716851241421e-05,-4.987171632819809e-05,0.0,0.0,0.0
1.744226028677076e-05,-5.002058242098428e-05,0.0,0.0,0.0
1.761348539730534e-05,-4.985716441296972e-05,0.0,0.0,0.0
1.7786529497243464e-05,-4.9845930334413424e-05,0.0,0.0,0.0
1.792101284081582e-05,-4.972709939465858e-05,0.0,0.0,0.0
1.8120990716852248e-05,-4.9640355427982286e-05,0.0,0.0,0.0
1.791791510186158e-05,-4.993565380573273e-05,0.0,0.0,0.0
1.7487278455519117e-05,-4.990710658603348e-05,0.0,0.0,0.0
1.7512327758595347e-05,-4.93103034386877e-05,0.0,0.0,0.0
1.7871479940367863e-05,-4.931070361635648e-05,0.0,0.0,0.0
1.7968694010050967e-05,-4.8936875828076154e-05,0.0,0.0,0.0
1.7541911802254617e-05,-4.8718331527197734e-05,0.0,0.0,0.0
1.7339880287181586e-05,-4.8552334192208946e-05,0.0,0.0,0.0
1.718705243547447e-05,-4.8142577725229785e-05,0.0,0.0,0.0
1.6719293853384443e-05,-4.8189609515247867e-05,0.0,0.0,0.0
1.652734135859646e-05,-4.8156711272895336e-05,0.0,0.0,0.0
1.6959245840553194e-05,-4.7877885663183406e-05,0.0,0.0,0.0
1.6977995983324945e-05,-4.8109053750522435e-05,0.0,0.0,0.0
1.7169864804600365e-05,-4.792157051269896e-05,0.0,0.0,0.0
1.7388219930580817e-05,-4.8069276090245694e-05,0.0,0.0,0.0
1.6939327906584367e-05,-4.7957517381291837e-05,0.0,0.0,0.0
1.6795827832538635e-05,-4.803705814993009e-05,0.0,0.0,0.0
1.6514319213456474e-05,-4.7986126446630806e-05,0.0,0.0,0.0
1.6926234820857644e-05,-4.779922528541647e-05,0.0,0.0,0.0
1.688275187916588e-05,-4.745234036818147e-05,0.0,0.0,0.0
1.7207001292263158e-05,-4.732210436486639e-05,0.0,0.0,0.0
1.7064789062715136e-05,-4.753299435833469e-05,0.0,0.0,0.0
1.715025609883014e-05,-4.782256291946396e-05,0.0,0.0,0.0
1.711316690489184e-05,-4.819190507987514e-05,0.0,0.0,0.0
1.7407388440915383e-05,-4.845936200581491e-05,0.0,0.0,0.0
1.753742981236428e-05,-4.856922896578908e-05,0.0,0.0,0.0
1.735260411805939e-05,-4.831259502680041e-05,0.0,0.0,0.0
1.7925392967299558e-05,-4.8487399908481166e-05,0.0,0.0,0.0
1.787632572813891e-05,-4.873979924013838e-05,0.0,0.0,0.0
1.7436112102586776e-05,-4.9133665015688166e-05,0.0,0.0,0.0
1.7149259292636998e-05,-4.930286013404839e-05,0.0,0.0,0.0
1.7566109818289988e-05,-4.938929123454727e-05,0.0,0.0,0.0
1.7664853658061475e-05,-4.9181937356479466e-05,0.0,0.0,0.0
1.7598871636437252e-05,-4.882113717030734e-05,0.0,0.0,0.0
1.767857429513242e-05,-4.8900812544161454e-05,0.0,0.0,0.0
1.7892363757709973e-05,-4.9138456233777106e-05,0.0,0.0,0.0
1.7683269106782973e-05,-4.9208632844965905e-05,0.0,0.0,0.0
1.757321115292143e-05,-4.9151567509397864e-05,0.0,0.0,0.0
1.764503394952044e-05,-4.9184327508555725e-05,0.0,0.0,0.0
1.7914222553372383e-05,-4.975754563929513e-05,0.0,0.0,0.0
1.769269147189334e-05,-4.961485319654457e-05,0.0,0.0,0.0
1.787038127076812e-05,-4.922337757307105e-05,0.0,0.0,0.0
1.7732727428665385e-05,-4.867065217695199e-05,0.0,0.0,0.0
1.7834110622061417e-05,-4.8720779886934906e-05,0.0,0.0,0.0
1.754196455294732e-05,-4.887199247605167e-05,0.0,0.0,0.0
1.7660995581536554e-05,-4.883344081463292e-05,0.0,0.0,0.0
1.742201129673049e-05,-4.8640387831255794e-05,0.0,0.0,0.0
1.705358226899989e-05,-4.850389814237133e-05,0.0,0.0,0.0
1.7547101379022934e-05,-4.814389467355795e-05,0.0,0.0,0.0
1.7745382137945853e-05,-4.816899308934808e-05,0.0,0.0,0.0
1.75197928911075e-05,-4.836140215047635e-05,0.0,0.0,0.0
1.736952253850177e-05,-4.816363434656523e-05,0.0,0.0,0.0
1.7558371837367304e-05,-4.804054697160609e-05,0.0,0.0,0.0
1.70906259882031e-05,-4.771009844262153e-05,0.0,0.0,0.0
1.714947575237602e-05,-4.739296491607092e-05,0.0,0.0,0.0
1.7093258065870032e-05,-4.738138522952795e-05,0.0,0.0,0.0
1.714621248538606e-05,-4.7710353101138026e-05,0.0,0.0,0.0
1.7097045201808214e-05,-4.7543420805595815e-05,0.0,0.0,0.0
1.7067557564587332e-05,-4.7469318815274164e-05,0.0,0.0,0.0
1.6855008652783e-05,-4.758771319757216e-05,0.0,0.0,0.0
1.7087068044929765e-05,-4.779455775860697e-05,0.0,0.0,0.0
1.7148902770713903e-05,-4.795235872734338e-05,0.0,0.0,0.0
1.7096885130740702e-05,-4.841861664317548e-05,0.0,0.0,0.0
1.714047721179668e-05,-4.8556525143794715e-05,0.0,0.0,0.0
1.710406104393769e-05,-4.815285501535982e-05,0.0,0.0,0.0
1.7134418158093467e-05,-4.8456189688295126e-05,0.0,0.0,0.0
1.7109130567405373e-05,-4.858205284108408e-05,0.0,0.0,0.0
1.7396094335708767e-05,-4.842073394684121e-05,0.0,0.0,0.0
1.7227463104063645e-05,-4.8859230446396396e-05,0.0,0.0,0.0
1.706761759123765e-05,-4.853241262026131e-05,0.0,0.0,0.0
1.7164242308354005e-05,-4.901926513412036e-05,0.0,0.0,0.0
1.7308895621681586e-05,-4.8958263505483046e-05,0.0,0.0,0.0
1.7504786228528246e-05,-4.9042813770938665e-05,0.0,0.0,0.0
1.7418435163563117e-05,-4.879877815255895e-05,0.0,0.0,0.0
1.767617322911974e-05,-4.884759982815012e-05,0.0,0.0,0.0
1.7783184375730343e-05,-4.923548112856224e-05,0.0,0.0,0.0
1.7625352484174073e-05,-4.947593333781697e-05,0.0,0.0,0.0
1.761237763275858e-05,-4.973650720785372e-05,0.0,0.0,0.0
1.808965862437617e-05,-4.9328646127833053e-05,0.0,0.0,0.0
1.8049146092380397e-05,-4.921357685816474e-05,0.0,0.0,0.0
1.759574661264196e-05,-4.9405898607801646e-05,0.0,0.0,0.0
1.801049438654445e-05,-4.9508875235915184e-05,0.0,0.0,0.0
1.823673846956808e-05,-4.908404662273824e-05,0.0,0.0,0.0
1.7742248019203544e-05,-4.92721374030225e-05,0.0,0.0,0.0
1.7347590983263217e-05,-4.892305514658801e-05,0.0,0.0,0.0
1.7165360986837186e-05,-4.870606062468141e-05,0.0,0.0,0.0
1.7144097000709735e-05,-4.858322427025996e-05,0.0,0.0,0.0
1.7516887965030037e-05,-4.8343998059863225e-05,0.0,0.0,0.0
1.7667463907855563e-05,-4.7986475692596287e-05,0.0,0.0,0.0
1.7257600120501593e-05,-4.795800123247318e-05,0.0,0.0,0.0
1.7349375411868095e-05,-4.743821773445234e-05,0.0,0.0,0.0
1.785821768862661e-05,-4.786838690051809e-05,0.0,0.0,0.0
1.7737738744472153e-05,-4.783318945555948e-05,0.0,0.0,0.0
1.7282467524637468e-05,-4.725482358480804e-05,0.0,0.0,0.0
1.7011403542710468e-05,-4.7410325350938365e-05,0.0,0.0,0.0
1.720860382192768e-05,-4.752622407977469e-05,0.0,0.0,0.0
1.7540876797284e-05,-4.7505720431217924e-05,0.0,0.0,0.0
1.766566674632486e-05,-4.747451384901069e-05,0.0,0.0,0.0
1.7125172234955244e-05,-4.776799323735759e-05,0.0,0.0,0.0
1.7181664588861167e-05,-4.7378100134665146e-05,0.0,0.0,0.0
1.6876470908755437e-05,-4.7376175643876195e-05,0.0,0.0,0.0
1.6987474737106822e-05,-4.7494650061707944e-05,0.0,0.0,0.0
1.7313046555500478e-05,-4.751929373014718e-05,0.0,0.0,0.0
1.7274802303290926e-05,-4.7645931772422045e-05,0.0,0.0,0.0
1.713497840682976e-05,-4.8350251745432615e-05,0.0,0.0,0.0
1.724820504023228e-05,-4.8365538532380015e-05,0.0,0.0,0.0
1.7342701539746486e-05,-4.829030513064936e-05,0.0,0.0,0.0
1.735252772050444e-05,-4.8535825044382364e-05,0.0,0.0,0.0
1.7918364392244257e-05,-4.8589336074655876e-05,0.0,0.0,0.0
1.799536585167516e-05,-4.908610208076425e-05,0.0,0.0,0.0
1.7835111066233367e-05,-4.92600847792346e-05,0.0,0.0,0.0
1.7750313418218866e-05,-4.9112775741377845e-05,0.0,0.0,0.0
1.7757289242581464e-05,-4.923413143842481e-05,0.0,0.0,0.0
1.7508218661532737e-05,-4.913764860248193e-05,0.0,0.0,0.0
1.777619581844192e-05,-4.9210630095331e-05,0.0,0.0,0.0
1.776073440851178e-05,-4.920208812109195e-05,0.0,0.0,0.0
1.7483975170762278e-05,-4.95228377985768e-05,0.0,0.0,0.0
1.7452490283176303e-05,-4.979792720405385e-05,0.0,0.0,0.0
1.7772432329365984e-05,-4.927642294205725e-05,0.0,0.0,0.0
1.7808095435611904e-05,-4.940470898873173e-05,0.0,0.0,0.0
1.7778784240363166e-05,-4.9303514970233664e-05,0.0,0.0,0.0
1.72712498169858e-05,-4.93802763230633e-05,0.0,0.0,0.0
1.7808244592742994e-05,-4.9070131353801116e-05,0.0,0.0,0.0
1.8286376871401444e-05,-4.899409395875409e-05,0.0,0.0,0.0
1.776198041625321e-05,-4.926654219161719e-05,0.0,0.0,0.0
1.7651987946010195e-05,-4.9126108933705837e-05,0.0,0.0,0.0
1.736900412652176e-05,-4.878205436398275e-05,0.0,0.0,0.0
1.7322929124929942e-05,-4.8465233703609556e-05,0.0,0.0,0.0
1.7245198250748217e-05,-4.814767817151733e-05,0.0,0.0,0.0
1.751761737978086e-05,-4.798938971362077e-05,0.0,0.0,0.0
1.724141839076765e-05,-4.819324749405496e-05,0.0,0.0,0.0
1.714652171358466e-05,-4.832496779272333e-05,0.0,0.0,0.0
1.740372863423545e-05,-4.835846630157903e-05,0.0,0.0,0.0
1.7654854673310183e-05,-4.804462878382765e-05,0.0,0.0,0.0
1.7595857570995577e-05,-4.7827976231928915e-05,0.0,0.0,0.0
1.7765891243470833e-05,-4.784887278219685e-05,0.0,0.0,0.0
1.7608486814424396e-05,-4.771784369950183e-05,0.0,0.0,0.0
1.7120213669841178e-05,-4.772056854562834e-05,0.0,0.0,0.0
1.695628816378303e-05,-4.8026169679360464e-05,0.0,0.0,0.0
1.6632080587442033e-05,-4.791079118149355e-05,0.0,0.0,0.0
1.7045658751158044e-05,-4.771232124767266e-05,0.0,0.0,0.0
1.7233091057278216e-05,-4.768497819895856e-05,0.0,0.0,0.0
1.7336124074063264e-05,-4.800480746780522e-05,0.0,0.0,0.0
1.7217027561855502e-05,-4.8005342250689864e-05,0.0,0.0,0.0
1.7043930711224675e-05,-4.800390524906106e-05,0.0,0.0,0.0
1.7180098438984714e-05,-4.80064882140141e-05,0.0,0.0,0.0
1.736320336931385e-05,-4.886401802650653e-05,0.0,0.0,0.0
1.7252650650334544e-05,-4.913822704111226e-05,0.0,0.0,0.0
1.7027679859893396e-05,-4.86394674226176e-05,0.0,0.0,0.0
1.7702554032439366e-05,-4.898607949144207e-05,0.0,0.0,0.0
1.755685116222594e-05,-4.8753994633443654e-05,0.0,0.0,0.0
1.741343476169277e-05,-4.889213232672773e-05,0.0,0.0,0.0
1.7275498976232484e-05,-4.9276368372375146e-05,0.0,0.0,0.0
1.7270775060751475e-05,-4.954620453645475e-05,0.0,0.0,0.0
1.773340773070231e-05,-4.9713660700945184e-05,0.0,0.0,0.0
1.774010706867557e-05,-4.965786501998082e-05,0.0,0.0,0.0
1.7838141502579674e-05,-4.970447116647847e-05,0.0,0.0,0.0
1.7581482097739354e-05,-4.983648250345141e-05,0.0,0.0,0.0
1.7646038031671196e-05,-5.003699698136188e-05,0.0,0.0,0.0
1.8065324184135534e-05,-5.000544842914678e-05,0.0,0.0,0.0
1.8479810023563914e-05,-5.00288515468128e-05,0.0,0.0,0.0
1.8195429220213555e-05,-4.975745832780376e-05,0.0,0.0,0.0
1.7935717551154085e-05,-4.9368511099601164e-05,0.0,0.0,0.0
1.798816811060533e-05,-4.933170203003101e-05,0.0,0.0,0.0
1.7833777747000568e-05,-4.9263646360486746e-05,0.0,0.0,0.0
1.7843760360847227e-05,-4.8937650717562065e-05,0.0,0.0,0.0
1.7982523786486126e-05,-4.868700489168987e-05,0.0,0.0,0.0
1.7570700947544537e-05,-4.8669106035958976e-05,0.0,0.0,0.0
1.77171914401697e-05,-4.862723653786816e-05,0.0,0.0,0.0
1.7858405044535175e-05,-4.837098458665423e-05,0.0,0.0,0.0
1.76696376001928e-05,-4.8280966439051554e-05,0.0,0.0,0.0
1.7249167285626754e-05,-4.804728087037802e-05,0.0,0.0,0.0
1.7010530427796766e-05,-4.76559107482899e-05,0.0,0.0,0.0
1.7501031834399328e-05,-4.825531505048275e-05,0.0,0.0,0.0
1.741941559885163e-05,-4.7859299229457974e-05,0.0,0.0,0.0
1.7220318113686517e-05,-4.753409666591324e-05,0.0,0.0,0.0
1.7062628103303723e-05,-4.778090806212276e-05,0.0,0.0,0.0
1.7167267287732102e-05,-4.733378591481596e-05,0.0,0.0,0.0
1.7084124920074828e-05,-4.737786002806388e-05,0.0,0.0,0.0
1.7148115148302168e-05,-4.774757326231338e-05,0.0,0.0,0.0
1.7526459487271495e-05,-4.8282239731634036e-05,0.0,0.0,0.0
1.7436204871046357e-05,-4.830977559322491e-05,0.0,0.0,0.0
1.7438282156945206e-05,-4.816908767679706e-05,0.0,0.0,0.0
1.786385109880939e-05,-4.816381260752678e-05,0.0,0.0,0.0
1.7738084352458827e-05,-4.85306627524551e-05,0.0,0.0,0.0
1.7670752640697174e-05,-4.867067764280364e-05,0.0,0.0,0.0
1.7579317500349134e-05,-4.867467941949144e-05,0.0,0.0,0.0
1.7665457562543452e-05,-4.86837379867211e-05,0.0,0.0,0.0
1.7715454305289313e-05,-4.879180050920695e-05,0.0,0.0,0.0
1.809851710277144e-05,-4.890192212769762e-05,0.0,0.0,0.0
1.8160977560910396e-05,-4.899672057945281e-05,0.0,0.0,0.0
1.7995886082644574e-05,-4.954461473971605e-05,0.0,0.0,0.0
1.7848597053671256e-05,-4.948444984620437e-05,0.0,0.0,0.0
1.773733674781397e-05,-4.9695419875206426e-05,0.0,0.0,0.0
1.7908025256474502e-05,-4.991556124878116e-05,0.0,0.0,0.0
1.799668461899273e-05,-4.938830898026936e-05,0.0,0.0,0.0
1.7894159100251272e-05,-4.935197648592293e-05,0.0,0.0,0.0
1.7702301192912273e-05,-4.965171683579683e-05,0.0,0.0,0.0
1.784864980436396e-05,-4.9404887249693274e-05,0.0,0.0,0.0
1.743151187838521e-05,-4.961314698448405e-05,0.0,0.0,0.0
1.7477048459113576e-05,-4.94535306643229e-05,0.0,0.0,0.0
1.7716081856633537e-05,-4.926061592414044e-05,0.0,0.0,0.0
1.7842687157099135e-05,-4.941812585457228e-05,0.0,0.0,0.0
1.7496018699603155e-05,-4.903658918919973e-05,0.0,0.0,0.0
1.7701497199595906e-05,-4.8779373173601925e-05,0.0,0.0,0.0
1.782229264790658e-05,-4.887627801508643e-05,0.0,0.0,0.0
1.7317006495431997e-05,-4.883765723207034e-05,0.0,0.0,0.0
1.7104874132201076e-05,-4.861827255808748e-05,0.0,0.0,0.0
1.692874684522394e-05,-4.851814082940109e-05,0.0,0.0,0.0
1.7148002370959148e-05,-4.81028801004868e-05,0.0,0.0,0.0
1.7491627659182996e-05,-4.838857057620771e-05,0.0,0.0,0.0
1.7260930690099485e-05,-4.85088603454642e-05,0.0,0.0,0.0
1.713245546852704e-05,-4.848822209169157e-05,0.0,0.0,0.0
1.711549521132838e-05,-4.8394209443358704e-05,0.0,0.0,0.0
1.7120037227869034e-05,-4.799201269634068e-05,0.0,0.0,0.0
1.7125998056144454e-05,-4.7763365728314966e-05,0.0,0.0,0.0
1.722830165817868e-05,-4.733690002467483e-05,0.0,0.0,0.0
1.745672125252895e-05,-4.7438556066481397e-05,0.0,0.0,0.0
1.7356131138512865e-05,-4.774924673256464e-05,0.0,0.0,0.0
1.697689003776759e-05,-4.791566971107386e-05,0.0,0.0,0.0
1.6541427612537518e-05,-4.784280827152543e-05,0.0,0.0,0.0
1.6811560271889903e-05,-4.820565300178714e-05,0.0,0.0,0.0
1.7173599189845845e-05,-4.819981040782295e-05,0.0,0.0,0.0
1.7385236787959002e-05,-4.853802238358185e-05,0.0,0.0,0.0
1.7177111658384092e-05,-4.879217885900289e-05,0.0,0.0,0.0
1.7075746654882096e-05,-4.853786958847195e-05,0.0,0.0,0.0
1.7155376554001123e-05,-4.816673754248768e-05,0.0,0.0,0.0
1.7381758880219422e-05,-4.873311263509095e-05,0.0,0.0,0.0
1.7792424841900356e-05,-4.8966332542477176e-05,0.0,0.0,0.0
1.7517420928925276e-05,-4.845067087444477e-05,0.0,0.0,0.0
1.742546010063961e-05,-4.9367798055754974e-05,0.0,0.0,0.0
1.748564318404533e-05,-4.9268412112724036e-05,0.0,0.0,0.0
1.7194874089909717e-05,-4.9402497097617015e-05,0.0,0.0,0.0
1.7121545170084573e-05,-4.953726238454692e-05,0.0,0.0,0.0
1.7543214198667556e-05,-4.950762740918435e-05,0.0,0.0,0.0
1.7629787180339918e-05,-4.9311580369248986e-05,0.0,0.0,0.0
1.7790105630410835e-05,-4.93649895361159e-05,0.0,0.0,0.0
1.8372375052422285e-05,-4.9346093874191865e-05,0.0,0.0,0.0
1.790810529200826e-05,-4.933632226311602e-05,0.0,0.0,0.0
1.7638300050748512e-05,-4.936943150823936e-05,0.0,0.0,0.0
1.792471084627323e-05,-4.9317812226945534e-05,0.0,0.0,0.0
1.81376890395768e-05,-4.966009873896837e-05,0.0,0.0,0.0
1.8121434550266713e-05,-4.9585280066821724e-05,0.0,0.0,0.0
1.801371035980992e-05,-4.897347025689669e-05,0.0,0.0,0.0
1.7910355381900445e-05,-4.861320849158801e-05,0.0,0.0,0.0
1.7908057998283766e-05,-4.8736805183580145e-05,0.0,0.0,0.0
1.752037860569544e-05,-4.85340497107245e-05,0.0,0.0,0.0
1.7324819054920226e-05,-4.8415698984172195e-05,0.0,0.0,0.0
1.726028131088242e-05,-4.827326483791694e-05,0.0,0.0,0.0
1.73616899701301e-05,-4.829367753700353e-05,0.0,0.0,0.0
1.749502553138882e-05,-4.768148937728256e-05,0.0,0.0,0.0
1.708690069790464e-05,-4.765885751112364e-05,0.0,0.0,0.0
1.7148555343737826e-05,-4.767820064444095e-05,0.0,0.0,0.0
1.7097938325605355e-05,-4.76609384350013e-05,0.0,0.0,0.0
1.713857454888057e-05,-4.7964247642084956e-05,0.0,0.0,0.0
1.7383417798555456e-05,-4.803802949027158e-05,0.0,0.0,0.0
1.7238144209841266e-05,-4.771291423821822e-05,0.0,0.0,0.0
1.6792837413959205e-05,-4.765428093378432e-05,0.0,0.0,0.0
1.7056678188964725e-05,-4.7684410674264655e-05,0.0,0.0,0.0
1.6894849977688864e-05,-4.812154656974599e-05,0.0,0.0,0.0
1.6750309441704303e-05,-4.818211527890526e-05,0.0,0.0,0.0
1.6391530152759515e-05,-4.792685285792686e-05,0.0,0.0,0.0
1.645255360926967e-05,-4.807205550605431e-05,0.0,0.0,0.0
1.706178591120988e-05,-4.7756100684637204e-05,0.0,0.0,0.0
1.7240317902178504e-05,-4.77064932056237e-05,0.0,0.0,0.0
1.7345208107144572e-05,-4.814827116206288e-05,0.0,0.0,0.0
1.7067532098735683e-05,-4.887557224719785e-05,0.0,0.0,0.0
1.7461041352362372e-05,-4.883220390183851e-05,0.0,0.0,0.0
1.7754569853423163e-05,-4.870290285907686e-05,0.0,0.0,0.0
1.782098479452543e-05,-4.865535447606817e-05,0.0,0.0,0.0
1.7653585018706508e-05,-4.8692185373511165e-05,0.0,0.0,0.0
1.7483209376223385e-05,-4.887747491011396e-05,0.0,0.0,0.0
1.7436845155316405e-05,-4.9420348659623414e-05,0.0,0.0,0.0
1.755441007844638e-05,-4.951648588757962e-05,0.0,0.0,0.0
1.7613703676033765e-05,-4.9125621444545686e-05,0.0,0.0,0.0
1.725648507999722e-05,-4.9227070121560246e-05,0.0,0.0,0.0
1.742332096910104e-05,-4.919314233120531e-05,0.0,0.0,0.0
1.7786545868148096e-05,-4.94733321829699e-05,0.0,0.0,0.0
1.743297434586566e-05,-4.921744766761549e-05,0.0,0.0,0.0
1.7168344129459e-05,-4.9123369535664096e-05,0.0,0.0,0.0
1.7396636394551024e-05,-4.890875061391853e-05,0.0,0.0,0.0
1.778930709406268e-05,-4.906054891762324e-05,0.0,0.0,0.0
1.7522821508464403e-05,-4.958190402248874e-05,0.0,0.0,0.0
1.740759762469679e-05,-4.8894820793066174e-05,0.0,0.0,0.0
1.7501601178082637e-05,-4.937783887726255e-05,0.0,0.0,0.0
1.7414631656720303e-05,-4.881016866420396e-05,0.0,0.0,0.0
1.7494325220468454e-05,-4.841313057113439e-05,0.0,0.0,0.0
1.719871761451941e-05,-4.857786188949831e-05,0.0,0.0,0.0
1.6917303582886234e-05,-4.8459543904755265e-05,0.0,0.0,0.0
1.7161914001917467e-05,-4.8339308705180883e-05,0.0,0.0,0.0
1.7700474927551113e-05,-4.81373026559595e-05,0.0,0.0,0.0
1.7758971807779744e-05,-4.801610702998005e-05,0.0,0.0,0.0
1.7478931113146245e-05,-4.815353895537555e-05,0.0,0.0,0.0
1.7249192751478404e-05,-4.853415521210991e-05,0.0,0.0,0.0
1.733272074488923e-05,-4.819184323423542e-05,0.0,0.0,0.0
1.710411197564099e-05,-4.7716883273096755e-05,0.0,0.0,0.0
1.713121855573263e-05,-4.7619625547667965e-05,0.0,0.0,0.0
1.711525874270592e-05,-4.760224328492768e-05,0.0,0.0,0.0
1.712141602183692e-05,-4.740254007629119e-05,0.0,0.0,0.0
1.712376979412511e-05,-4.759536750498228e-05,0.0,0.0,0.0
1.711413642624393e-05,-4.73290856461972e-05,0.0,0.0,0.0
1.7278771338169463e-05,-4.734080357593484e-05,0.0,0.0,0.0
1.7729880710248835e-05,-4.732433444587514e-05,0.0,0.0,0.0
1.784834239515476e-05,-4.744991019833833e-05,0.0,0.0,0.0
1.7656198906479403e-05,-4.793073458131403e-05,0.0,0.0,0.0
1.7236579878954217e-05,-4.813270061276853e-05,0.0,0.0,0.0
1.7020491213770583e-05,-4.85448217659723e-05,0.0,0.0,0.0
1.720617729006335e-05,-4.878667459706776e-05,0.0,0.0,0.0
1.704844180494547e-05,-4.858533065998927e-05,0.0,0.0,0.0
1.7733606000547297e-05,-4.8749403504189104e-05,0.0,0.0,0.0
1.7286918591707945e-05,-4.861938577960245e-05,0.0,0.0,0.0
1.7538053725729696e-05,-4.871852434007451e-05,0.0,0.0,0.0
1.7688978914520703e-05,-4.8647154471836984e-05,0.0,0.0,0.0
1.754372351570055e-05,-4.892774813924916e-05,0.0,0.0,0.0
1.8161201296607032e-05,-4.925247412757017e-05,0.0,0.0,0.0
1.781706123438198e-05,-4.934700336889364e-05,0.0,0.0,0.0
1.8053948224405758e-05,-4.9355727242073044e-05,0.0,0.0,0.0
1.8097205611411482e-05,-4.914202509098686e-05,0.0,0.0,0.0
1.832861926231999e-05,-4.920082938042469e-05,0.0,0.0,0.0
1.82899457286112e-05,-4.93414954689797e-05,0.0,0.0,0.0
1.796090327843558e-05,-4.9200651119463146e-05,0.0,0.0,0.0
1.7802041838876903e-05,-4.8993177188094705e-05,0.0,0.0,0.0
1.7640226360526867e-05,-4.9172507715411484e-05,0.0,0.0,0.0
1.773315125319641e-05,-4.918989725410938e-05,0.0,0.0,0.0
1.7970432963920757e-05,-4.8934860387817025e-05,0.0,0.0,0.0
1.7630005459068343e-05,-4.8649355449015275e-05,0.0,0.0,0.0
1.710435753921047e-05,-4.870341217610985e-05,0.0,0.0,0.0
1.730757867335342e-05,-4.8649555537849665e-05,0.0,0.0,0.0
1.765673550835345e-05,-4.8553181841271e-05,0.0,0.0,0.0
1.7599408238311298e-05,-4.7967299906304106e-05,0.0,0.0,0.0
1.7694519556243904e-05,-4.773059845319949e-05,0.0,0.0,0.0
1.7832877347245812e-05,-4.7921606892487034e-05,0.0,0.0,0.0
1.738936043693684e-05,-4.7708526835776865e-05,0.0,0.0,0.0
1.7187603589263745e-05,-4.73109248559922e-05,0.0,0.0,0.0
1.70656949194381e-05,-4.735245602205396e-05,0.0,0.0,0.0
1.716456790745724e-05,-4.731803710456006e-05,0.0,0.0,0.0
1.708661875454709e-05,-4.734553658636287e-05,0.0,0.0,0.0
1.714569953037426e-05,-4.75905580969993e-05,0.0,0.0,0.0
1.710349715722259e-05,-4.745412661577575e-05,0.0,0.0,0.0
1.7375341485603712e-05,-4.7515364713035524e-05,0.0,0.0,0.0
1.7246151401195675e-05,-4.774673652718775e-05,0.0,0.0,0.0
1.707175215415191e-05,-4.760798401548527e-05,0.0,0.0,0.0
1.7165606550406665e-05,-4.81411479995586e-05,0.0,0.0,0.0
1.707943192741368e-05,-4.834269202547148e-05,0.0,0.0,0.0
1.7158123228000477e-05,-4.852462370763533e-05,0.0,0.0,0.0
1.726749906083569e-05,-4.86992830701638e-05,0.0,0.0,0.0
1.732449345581699e-05,-4.865168739343062e-05,0.0,0.0,0.0
1.740162042551674e-05,-4.886144961346872e-05,0.0,0.0,0.0
1.797591903596185e-05,-4.9135906010633335e-05,0.0,0.0,0.0
1.795837488316465e-05,-4.923285450786352e-05,0.0,0.0,0.0
1.7950549590750597e-05,-4.899377381661907e-05,0.0,0.0,0.0
1.8210772395832464e-05,-4.903056469629519e-05,0.0,0.0,0.0
1.8478980564395897e-05,-4.909975177724846e-05,0.0,0.0,0.0
1.8260490833199583e-05,-4.935052857035771e-05,0.0,0.0,0.0
1.7837237464846112e-05,-4.934328535455279e-05,0.0,0.0,0.0
1.7755479348124936e-05,-4.942759915138595e-05,0.0,0.0,0.0
1.7820762877818197e-05,-4.958807403454557e-05,0.0,0.0,0.0
1.7770231352187693e-05,-4.9457550630904734e-05,0.0,0.0,0.0
1.7850190488388762e-05,-4.964494291925803e-05,0.0,0.0,0.0
1.801839971449226e-05,-5.002081525162794e-05,0.0,0.0,0.0
1.75476998265367e-05,-4.9672806198941544e-05,0.0,0.0,0.0
1.70705679920502e-05,-4.9379454139852896e-05,0.0,0.0,0.0
1.7445754565414973e-05,-4.932188312523067e-05,0.0,0.0,0.0
1.774650991137605e-05,-4.9091475375462323e-05,0.0,0.0,0.0
1.7813657905207947e-05,-4.869303302257322e-05,0.0,0.0,0.0
1.777844772732351e-05,-4.893939694738947e-05,0.0,0.0,0.0
1.7798698536353186e-05,-4.8794558097142726e-05,0.0,0.0,0.0
1.7557176761329174e-05,-4.8623034672345966e-05,0.0,0.0,0.0
1.7204583855345845e-05,-4.872317367698997e-05,0.0,0.0,0.0
1.7127618775703013e-05,-4.8635232815286145e-05,0.0,0.0,0.0
1.73127500602277e-05,-4.850989716942422e-05,0.0,0.0,0.0
1.7291567928623408e-05,-4.810386963072233e-05,0.0,0.0,0.0
1.7264521375182085e-05,-4.839351095142774e-05,0.0,0.0,0.0
1.732762211759109e-05,-4.8499197873752564e-05,0.0,0.0,0.0
1.6760417565819807e-05,-4.8182482714764774e-05,0.0,0.0,0.0
1.7077782104024664e-05,-4.800211172550917e-05,0.0,0.0,0.0
1.7616939658182673e-05,-4.786902354680933e-05,0.0,0.0,0.0
1.7621525330469012e-05,-4.754492692882195e-05,0.0,0.0,0.0
1.763379441399593e-05,-4.745610567624681e-05,0.0,0.0,0.0
1.729095311020501e-05,-4.7758749133208767e-05,0.0,0.0,0.0
1.6775564290583134e-05,-4.800382521352731e-05,0.0,0.0,0.0
1.687703115749173e-05,-4.800602255272679e-05,0.0,0.0,0.0
1.724268076941371e-05,-4.8003676056396216e-05,0.0,0.0,0.0
1.769910886650905e-05,-4.806996003026143e-05,0.0,0.0,0.0
1.7564507288625464e-05,-4.825745054404251e-05,0.0,0.0,0.0
1.7626774933887646e-05,-4.806253491551615e-05,0.0,0.0,0.0
1.732411874399986e-05,-4.801975956070237e-05,0.0,0.0,0.0
1.7595892131794244e-05,-4.864011498284526e-05,0.0,0.0,0.0
1.7957550880964845e-05,-4.8707785026635975e-05,0.0,0.0,0.0
1.7654147086432204e-05,-4.836192965740338e-05,0.0,0.0,0.0
1.7628502973821014e-05,-4.859927503275685e-05,0.0,0.0,0.0
1.7327829482383095e-05,-4.899455598206259e-05,0.0,0.0,0.0
1.7558773834025487e-05,-4.925832399749197e-05,0.0,0.0,0.0
1.7132369976025075e-05,-4.914066448691301e-05,0.0,0.0,0.0
1.761975363478996e-05,-4.895388337899931e-05,0.0,0.0,0.0
1.7822891095420346e-05,-4.950558650307357e-05,0.0,0.0,0.0
1.7758249668986537e-05,-4.926328256260604e-05,0.0,0.0,0.0
1.782772051228676e-05,-4.917149999528192e-05,0.0,0.0,0.0
1.7755246517481282e-05,-4.9016918637789786e-05,0.0,0.0,0.0
1.800989412004128e-05,-4.8608999350108206e-05,0.0,0.0,0.0
1.7928716260939837e-05,-4.890300988336094e-05,0.0,0.0,0.0
1.7816864783526398e-05,-4.912923395750113e-05,0.0,0.0,0.0
1.791517570381984e-05,-4.9234451580559835e-05,0.0,0.0,0.0
1.8013333829003386e-05,-4.884765439783223e-05,0.0,0.0,0.0
1.7773818399291486e-05,-4.857350722886622e-05,0.0,0.0,0.0
1.7810085410019383e-05,-4.8213940317509696e-05,0.0,0.0,0.0
1.777452780515887e-05,-4.8234720452455804e-05,0.0,0.0,0.0
1.7521431800560094e-05,-4.844259092351422e-05,0.0,0.0,0.0
1.691071520326659e-05,-4.807524965144694e-05,0.0,0.0,0.0
1.6990190488286316e-05,-4.802258627023548e-05,0.0,0.0,0.0
1.6920967027544975e-05,-4.82960713270586e-05,0.0,0.0,0.0
1.7137848772108555e-05,-4.802114926860668e-05,0.0,0.0,0.0
1.7717444279696792e-05,-4.794444248545915e-05,0.0,0.0,0.0
1.7152155123767443e-05,-4.7723486204631627e-05,0.0,0.0,0.0
1.678933040238917e-05,-4.764086042996496e-05,0.0,0.0,0.0
1.7093927453970537e-05,-4.800793976755813e-05,0.0,0.0,0.0
1.7142625438282266e-05,-4.799991802428849e-05,0.0,0.0,0.0
1.7102667698054574e-05,-4.7734785766806453e-05,0.0,0.0,0.0
1.660336783970706e-05,-4.788986552739516e-05,0.0,0.0,0.0
1.6879281247383915e-05,-4.7823687054915354e-05,0.0,0.0,0.0
1.724934918456711e-05,-4.781964889843948e-05,0.0,0.0,0.0
1.6780713849584572e-05,-4.811147664440796e-05,0.0,0.0,0.0
1.706939292489551e-05,-4.8140274884644896e-05,0.0,0.0,0.0
1.709453499643132e-05,-4.822011760552414e-05,0.0,0.0,0.0
1.7340229533147067e-05,-4.81156530440785e-05,0.0,0.0,0.0
1.7652018868830055e-05,-4.861795241595246e-05,0.0,0.0,0.0
1.7795353414840065e-05,-4.826017902814783e-05,0.0,0.0,0.0
1.7793527149478905e-05,-4.83680960314814e-05,0.0,0.0,0.0
1.7467536963522434e-05,-4.867336610914208e-05,0.0,0.0,0.0
1.7424461475457065e-05,-4.882072244072333e-05,0.0,0.0,0.0
1.764029002515599e-05,-4.9158723413711414e-05,0.0,0.0,0.0
1.7477508663432673e-05,-4.907347829430364e-05,0.0,0.0,0.0
1.743413849908393e-05,-4.8716090532252565e-05,0.0,0.0,0.0
1.758527105266694e-05,-4.884894224232994e-05,0.0,0.0,0.0
1.756271558406297e-05,-4.935658216709271e-05,0.0,0.0,0.0
1.7363307051709853e-05,-4.950550282956101e-05,0.0,0.0,0.0
1.7683820260572247e-05,-4.9915528506971896e-05,0.0,0.0,0.0
1.7885768102132715e-05,-4.979331060894765e-05,0.0,0.0,0.0
1.7764898075256497e-05,-4.979558434570208e-05,0.0,0.0,0.0
1.8121054381481372e-05,-4.920075662084855e-05,0.0,0.0,0.0
1.7798061890061945e-05,-4.919249113299884e-05,0.0,0.0,0.0
1.774268275767099e-05,-4.943160092807375e-05,0.0,0.0,0.0
1.721198350423947e-05,-4.865909431828186e-05,0.0,0.0,0.0
1.7328567992080934e-05,-4.868391988566145e-05,0.0,0.0,0.0
1.7842066881712526e-05,-4.8953050281852484e-05,0.0,0.0,0.0
1.7471424143877812e-05,-4.877718674833886e-05,0.0,0.0,0.0
1.7722984921419993e-05,-4.86220778839197e-05,0.0,0.0,0.0
1.7324704458587803e-05,-4.871526107308455e-05,0.0,0.0,0.0
1.681247158558108e-05,-4.8182369937421754e-05,0.0,0.0,0.0
1.6822232282720506e-05,-4.797092333319597e-05,0.0,0.0,0.0
1.6967404008028097e-05,-4.8039692046586424e-05,0.0,0.0,0.0
1.7162299627671018e-05,-4.797007204615511e-05,0.0,0.0,0.0
1.7087728338083252e-05,-4.842182534048334e-05,0.0,0.0,0.0
1.7145697711384855e-05,-4.8304344090865925e-05,0.0,0.0,0.0
1.710245487629436e-05,-4.7831530537223443e-05,0.0,0.0,0.0
1.7132748325821012e-05,-4.766342681250535e-05,0.0,0.0,0.0
1.726261507428717e-05,-4.752845416078344e-05,0.0,0.0,0.0
1.7318416212219745e-05,-4.76023051305674e-05,0.0,0.0,0.0
1.7129348634625785e-05,-4.7875171730993316e-05,0.0,0.0,0.0
1.7226482668775134e-05,-4.767832433572039e-05,0.0,0.0,0.0
1.7350888811051846e-05,-4.776865534950048e-05,0.0,0.0,0.0
1.703636735328473e-05,-4.799470480065793e-05,0.0,0.0,0.0
1.679672277532518e-05,-4.8014084313763306e-05,0.0,0.0,0.0
1.6846464859554544e-05,-4.799686939804815e-05,0.0,0.0,0.0
1.7236498024431057e-05,-4.8011570470407605e-05,0.0,0.0,0.0
1.7689242667984217e-05,-4.79996160720475e-05,0.0,0.0,0.0
1.749011062202044e-05,-4.8093766963575035e-05,0.0,0.0,0.0
1.7121366909123026e-05,-4.8603385948808864e-05,0.0,0.0,0.0
1.7423733879695646e-05,-4.8737016186350957e-05,0.0,0.0,0.0
1.7171694707940333e-05,-4.862664718530141e-05,0.0,0.0,0.0
1.736489502945915e-05,-4.900298154097982e-05,0.0,0.0,0.0
1.7809505152399652e-05,-4.9022561142919585e-05,0.0,0.0,0.0
1.7766287783160806e-05,-4.9265949201071635e-05,0.0,0.0,0.0
1.781227365427185e-05,-4.9139831389766186e-05,0.0,0.0,0.0
1.8021099094767123e-05,-4.918299964629114e-05,0.0,0.0,0.0
1.7933019989868626e-05,-4.943924432154745e-05,0.0,0.0,0.0
1.7736369045451283e-05,-4.949310823576525e-05,0.0,0.0,0.0
1.7836455299402587e-05,-4.998270014766604e-05,0.0,0.0,0.0
1.7757443856680766e-05,-4.956103293807246e-05,0.0,0.0,0.0
1.8009417544817552e-05,-4.9362231948180124e-05,0.0,0.0,0.0
1.8120390450349078e-05,-4.9337249947711825e-05,0.0,0.0,0.0
1.796053948055487e-05,-4.9354475777363405e-05,0.0,0.0,0.0
1.7788057448342443e-05,-4.9344042054144666e-05,0.0,0.0,0.0
1.7792126527638175e-05,-4.919969796901569e-05,0.0,0.0,0.0
1.7656779164099135e-05,-4.9015467084245756e-05,0.0,0.0,0.0
1.7328626199741848e-05,-4.900663043372333e-05,0.0,0.0,0.0
1.7365871826768853e-05,-4.8901849368121475e-05,0.0,0.0,0.0
1.76495286723366e-05,-4.8573936510365456e-05,0.0,0.0,0.0
1.7409143765689805e-05,-4.82587784063071e-05,0.0,0.0,0.0
1.7095988368964754e-05,-4.8179867008002475e-05,0.0,0.0,0.0
1.7142932847491466e-05,-4.8481058911420405e-05,0.0,0.0,0.0
1.7228299839189276e-05,-4.822087794309482e-05,0.0,0.0,0.0
1.7645959815126844e-05,-4.849264587392099e-05,0.0,0.0,0.0
1.7217982531292364e-05,-4.848077514907345e-05,0.0,0.0,0.0
1.7038466467056423e-05,-4.8161353333853185e-05,0.0,0.0,0.0
1.718914609227795e-05,-4.7860899940133095e-05,0.0,0.0,0.0
1.7064265193766914e-05,-4.7824021748965606e-05,0.0,0.0,0.0
1.745332519931253e-05,-4.815122520085424e-05,0.0,0.0,0.0
1.7184858734253794e-05,-4.761276431963779e-05,0.0,0.0,0.0
1.7076250514946878e-05,-4.798575537279248e-05,0.0,0.0,0.0
1.7159887647721916e-05,-4.775094930664636e-05,0.0,0.0,0.0
1.708622403384652e-05,-4.787202851730399e-05,0.0,0.0,0.0
1.7150412531918846e-05,-4.8310797865269706e-05,0.0,0.0,0.0
1.7095171642722562e-05,-4.851980702369474e-05,0.0,0.0,0.0
1.7142017895821482e-05,-4.874182923231274e-05,0.0,0.0,0.0
1.7102995116147213e-05,-4.861487104790285e-05,0.0,0.0,0.0
1.7517631931696087e-05,-4.873321086051874e-05,0.0,0.0,0.0
1.798423909349367e-05,-4.8624075134284794e-05,0.0,0.0,0.0
1.8125338101526722e-05,-4.889375122729689e-05,0.0,0.0,0.0
1.7971033230423927e-05,-4.881467975792475e-05,0.0,0.0,0.0
1.7936414224095643e-05,-4.9006561312125996e-05,0.0,0.0,0.0
1.7991793356486596e-05,-4.903815715806559e-05,0.0,0.0,0.0
1.7795086023397744e-05,-4.8716214223532006e-05,0.0,0.0,0.0
1.7672586182015948e-05,-4.875845115748234e-05,0.0,0.0,0.0
1.736389094730839e-05,-4.9242458771914244e-05,0.0,0.0,0.0
1.712425182631705e-05,-4.9733735068002716e-05,0.0,0.0,0.0
1.7287355149164796e-05,-4.9868118367157876e-05,0.0,0.0,0.0
1.7751246559782885e-05,-4.945115142618306e-05,0.0,0.0,0.0
1.7890293747768737e-05,-4.9567755922907963e-05,0.0,0.0,0.0
1.8123502741218545e-05,-4.9368922191206366e-05,0.0,0.0,0.0
1.8436847312841564e-05,-4.9021797167370096e-05,0.0,0.0,0.0
1.81188115675468e-05,-4.9373051297152415e-05,0.0,0.0,0.0
1.776719363988377e-05,-4.958568388246931e-05,0.0,0.0,0.0
1.7190608559758402e-05,-4.8831712774699554e-05,0.0,0.0,0.0
1.7060077880159952e-05,-4.854390135733411e-05,0.0,0.0,0.0
1.7725504221743904e-05,-4.87877732666675e-05,0.0,0.0,0.0
1.7291868061874993e-05,-4.884949521510862e-05,0.0,0.0,0.0
1.7535887309350073e-05,-4.8866924771573395e-05,0.0,0.0,0.0
1.7933314666152e-05,-4.806659126188606e-05,0.0,0.0,0.0
1.7207683413289487e-05,-4.827999146073125e-05,0.0,0.0,0.0
1.716575752652716e-05,-4.833569619222544e-05,0.0,0.0,0.0
1.7512475096737035e-05,-4.855207953369245e-05,0.0,0.0,0.0
1.7851121810963377e-05,-4.849831748288125e-05,0.0,0.0,0.0
1.7747828678693622e-05,-4.810950122191571e-05,0.0,0.0,0.0
1.7642401871853508e-05,-4.803127740160562e-05,0.0,0.0,0.0
1.7258356820093468e-05,-4.797874498763122e-05,0.0,0.0,0.0
1.7292282791459e-05,-4.787086436408572e-05,0.0,0.0,0.0
1.7602777006686665e-05,-4.779228402185254e-05,0.0,0.0,0.0
1.7509273675386794e-05,-4.802692637895234e-05,0.0,0.0,0.0
1.7270534954150207e-05,-4.785696364706382e-05,0.0,0.0,0.0
1.7305437722825445e-05,-4.781333700520918e-05,0.0,0.0,0.0
1.7061014659702778e-05,-4.8075089580379426e-05,0.0,0.0,0.0
1.685086499492172e-05,-4.845240619033575e-05,0.0,0.0,0.0
1.7131804270320572e-05,-4.8643738409737125e-05,0.0,0.0,0.0
1.7107235180446878e-05,-4.870389966527e-05,0.0,0.0,0.0
1.7326885426882654e-05,-4.8653259000275284e-05,0.0,0.0,0.0
1.7973006833926775e-05,-4.869503391091712e-05,0.0,0.0,0.0
1.7912801922648214e-05,-4.866145900450647e-05,0.0,0.0,0.0
1.7688078514765948e-05,-4.8751317081041634e-05,0.0,0.0,0.0
1.7880294763017446e-05,-4.924124004901387e-05,0.0,0.0,0.0
1.771823372109793e-05,-4.912435178994201e-05,0.0,0.0,0.0
1.7852478777058423e-05,-4.920645005768165e-05,0.0,0.0,0.0
1.7743737771525048e-05,-4.9463676987215877e-05,0.0,0.0,0.0
1.7829250282375142e-05,-4.8988462367560714e-05,0.0,0.0,0.0
1.8019974959315732e-05,-4.930589784635231e-05,0.0,0.0,0.0
1.817723568819929e-05,-4.935230754199438e-05,0.0,0.0,0.0
1.8325210476177745e-05,-4.933765376335941e-05,0.0,0.0,0.0
1.8066166376229376e-05,-4.9585429223952815e-05,0.0,0.0,0.0
1.7927228327607736e-05,-4.9686626880429685e-05,0.0,0.0,0.0
1.820334728108719e-05,-4.98884437547531e-05,0.0,0.0,0.0
1.807247826945968e-05,-4.983402322977781e-05,0.0,0.0,0.0
1.8165128494729288e-05,-4.949166759615764e-05,0.0,0.0,0.0
1.8105729395756498e-05,-4.934321259497665e-05,0.0,0.0,0.0
1.7817477782955393e-05,-4.9356840463588014e-05,0.0,0.0,0.0
1.7902795661939308e-05,-4.9185953685082495e-05,0.0,0.0,0.0
1.8170805560657755e-05,-4.902964428765699e-05,0.0,0.0,0.0
1.7826840121415444e-05,-4.886485476163216e-05,0.0,0.0,0.0
1.76352677954128e-05,-4.8588623030809686e-05,0.0,0.0,0.0
1.751158015395049e-05,-4.8430323658976704e-05,0.0,0.0,0.0
1.7400616343365982e-05,-4.848662138101645e-05,0.0,0.0,0.0
1.7511432815808803e-05,-4.812335464521311e-05,0.0,0.0,0.0
1.7328256944892928e-05,-4.829219324165024e-05,0.0,0.0,0.0
1.7324924556305632e-05,-4.831594924326055e-05,0.0,0.0,0.0
1.7664731785771437e-05,-4.805549542652443e-05,0.0,0.0,0.0
1.7818772903410718e-05,-4.826610893360339e-05,0.0,0.0,0.0
1.709407843009103e-05,-4.8037265514722094e-05,0.0,0.0,0.0
1.714394056762103e-05,-4.763061588164419e-05,0.0,0.0,0.0
1.710071046545636e-05,-4.7390662075486034e-05,0.0,0.0,0.0
1.7137037502834573e-05,-4.75719862151891e-05,0.0,0.0,0.0
1.7107726307585835e-05,-4.747444108943455e-05,0.0,0.0,0.0
1.7130047126556747e-05,-4.749399158754386e-05,0.0,0.0,0.0
1.711456752673257e-05,-4.8045083531178534e-05,0.0,0.0,0.0
1.7123460565926507e-05,-4.793837797478773e-05,0.0,0.0,0.0
1.712081029836554e-05,-4.852381243836135e-05,0.0,0.0,0.0
1.6894306099857204e-05,-4.868804171564989e-05,0.0,0.0,0.0
1.698199048405513e-05,-4.8660625907359645e-05,0.0,0.0,0.0
1.7148211554740556e-05,-4.8695099394535646e-05,0.0,0.0,0.0
1.7101354387705214e-05,-4.8654972488293424e-05,0.0,0.0,0.0
1.7313312127953395e-05,-4.888023977400735e-05,0.0,0.0,0.0
1.7628923160373233e-05,-4.9165577365783975e-05,0.0,0.0,0.0
1.747100213833619e-05,-4.9371035856893286e-05,0.0,0.0,0.0
1.7124501027865335e-05,-4.9323691200697795e-05,0.0,0.0,0.0
1.7250469682039693e-05,-4.9371814384358004e-05,0.0,0.0,0.0
1.7590664356248453e-05,-4.9196187319466844e-05,0.0,0.0,0.0
1.7889986338559538e-05,-4.916091347695328e-05,0.0,0.0,0.0
1.7923686755239032e-05,-4.95184758619871e-05,0.0,0.0,0.0
1.737988532113377e-05,-5.002631951356307e-05,0.0,0.0,0.0
1.7381751604261808e-05,-4.98411973239854e-05,0.0,0.0,0.0
1.7978618416236714e-05,-4.939952486893162e-05,0.0,0.0,0.0
1.7884325643535703e-05,-4.9302489060210064e-05,0.0,0.0,0.0
1.7710883184918202e-05,-4.938655547448434e-05,0.0,0.0,0.0
1.790517671906855e-05,-4.9272202886641026e-05,0.0,0.0,0.0
1.7967877283808775e-05,-4.910652933176607e-05,0.0,0.0,0.0
1.763624641171191e-05,-4.923569940729067e-05,0.0,0.0,0.0
1.7616646800888702e-05,-4.9129062972497195e-05,0.0,0.0,0.0
1.7937994925887324e-05,-4.891542994300835e-05,0.0,0.0,0.0
1.7672697140369564e-05,-4.881345375906676e-05,0.0,0.0,0.0
1.7355572708765976e-05,-4.857722160522826e-05,0.0,0.0,0.0
1.748843897075858e-05,-4.875420927419327e-05,0.0,0.0,0.0
1.7721738913678564e-05,-4.8617155698593706e-05,0.0,0.0,0.0
1.7291771655436605e-05,-4.8484835133422166e-05,0.0,0.0,0.0
1.7359536286676303e-05,-4.806476863450371e-05,0.0,0.0,0.0
1.743185566738248e-05,-4.7806799557292834e-05,0.0,0.0,0.0
1.7908898371388204e-05,-4.7647594328736886e-05,0.0,0.0,0.0
1.770997914718464e-05,-4.786999124917202e-05,0.0,0.0,0.0
1.7843847672338597e-05,-4.801701652468182e-05,0.0,0.0,0.0
1.7595933968550526e-05,-4.764591722050682e-05,0.0,0.0,0.0
1.729626274027396e-05,-4.7667173930676654e-05,0.0,0.0,0.0
1.7434937035432085e-05,-4.7986952267820016e-05,0.0,0.0,0.0
1.748040631355252e-05,-4.775160050485283e-05,0.0,0.0,0.0
1.7432963431929238e-05,-4.744474063045345e-05,0.0,0.0,0.0
1.759328915795777e-05,-4.7797777369851246e-05,0.0,0.0,0.0
1.7446283891331404e-05,-4.797728979610838e-05,0.0,0.0,0.0
1.7040754755726084e-05,-4.822506525670178e-05,0.0,0.0,0.0
1.7200063666678034e-05,-4.852476922678761e-05,0.0,0.0,0.0
1.719199826766271e-05,-4.849760080105625e-05,0.0,0.0,0.0
1.7879508959595114e-05,-4.845000148634426e-05,0.0,0.0,0.0
1.8072079910780303e-05,-4.825441283173859e-05,0.0,0.0,0.0
1.8095754057867453e-05,-4.8532434448134154e-05,0.0,0.0,0.0
1.7477197616244666e-05,-4.916609759675339e-05,0.0,0.0,0.0
1.744201836118009e-05,-4.920801075058989e-05,0.0,0.0,0.0
1.7465592463850044e-05,-4.946212357026525e-05,0.0,0.0,0.0
1.7737889720592648e-05,-4.925611938233487e-05,0.0,0.0,0.0
1.7836109691415913e-05,-4.914208693662658e-05,0.0,0.0,0.0
1.7756305169314146e-05,-4.89217673020903e-05,0.0,0.0,0.0
1.7820819266489707e-05,-4.933479067403823e-05,0.0,0.0,0.0
1.776885437720921e-05,-4.982045720680617e-05,0.0,0.0,0.0
1.7810662029660307e-05,-4.9844755267258734e-05,0.0,0.0,0.0
1.7776941604097374e-05,-4.9619127821642905e-05,0.0,0.0,0.0
1.78043483174406e-05,-4.972623355570249e-05,0.0,0.0,0.0
1.778175101208035e-05,-4.9456961278337985e-05,0.0,0.0,0.0
1.780079946911428e-05,-4.9150265112984926e-05,0.0,0.0,0.0
1.814584175008349e-05,-4.8836725909495726e-05,0.0,0.0,0.0
1.8486303815734573e-05,-4.882228677161038e-05,0.0,0.0,0.0
1.8284346879227087e-05,-4.888830517302267e-05,0.0,0.0,0.0
1.799433994165156e-05,-4.878365507465787e-05,0.0,0.0,0.0
1.778047408151906e-05,-4.863916547037661e-05,0.0,0.0,0.0
1.780209640855901e-05,-4.797778092324734e-05,0.0,0.0,0.0
1.7783124349080026e-05,-4.791710671270266e-05,0.0,0.0,0.0
1.7799964552978054e-05,-4.775733395945281e-05,0.0,0.0,0.0
1.7689124433672987e-05,-4.800950409844518e-05,0.0,0.0,0.0
1.7566640963195823e-05,-4.791214450960979e-05,0.0,0.0,0.0
1.7748010577633977e-05,-4.77753346785903e-05,0.0,0.0,0.0
1.7893682525027543e-05,-4.7886118409223855e-05,0.0,0.0,0.0
1.8013615772360936e-05,-4.769332372234203e-05,0.0,0.0,0.0
1.783303559932392e-05,-4.7298708523157984e-05,0.0,0.0,0.0
1.742130916682072e-05,-4.739491851069033e-05,0.0,0.0,0.0
1.746345151332207e-05,-4.7627483581891283e-05,0.0,0.0,0.0
1.7140033378382213e-05,-4.8015048378147185e-05,0.0,0.0,0.0
1.738954961183481e-05,-4.799842645297758e-05,0.0,0.0,0.0
1.7514392311568372e-05,-4.8007819714257494e-05,0.0,0.0,0.0
1.71403862623265e-05,-4.800524402526207e-05,0.0,0.0,0.0
1.7128906620200723e-05,-4.749101208290085e-05,0.0,0.0,0.0
1.7602515072212555e-05,-4.752200038637966e-05,0.0,0.0,0.0
1.7620048311073333e-05,-4.774023545905948e-05,0.0,0.0,0.0
1.7603362721274607e-05,-4.7837631427682936e-05,0.0,0.0,0.0
1.7876132915262133e-05,-4.8491918278159574e-05,0.0,0.0,0.0
1.7723497876431793e-05,-4.826253280043602e-05,0.0,0.0,0.0
1.7846594346337952e-05,-4.797725341632031e-05,0.0,0.0,0.0
1.7749835024005733e-05,-4.839597022510134e-05,0.0,0.0,0.0
1.7823280359152704e-05,-4.883145811618306e-05,0.0,0.0,0.0
1.777030229277443e-05,-4.887564500677399e-05,0.0,0.0,0.0
1.7954365830519237e-05,-4.879890911979601e-05,0.0,0.0,0.0
1.798098674044013e-05,-4.917512706015259e-05,0.0,0.0,0.0
1.7799859051592648e-05,-4.906189496978186e-05,0.0,0.0,0.0
1.7906799257616512e-05,-4.884041118202731e-05,0.0,0.0,0.0
1.8219565390609205e-05,-4.906263711745851e-05,0.0,0.0,0.0
1.8560380340204574e-05,-4.9382710130885243e-05,0.0,0.0,0.0
1.8690465367399156e-05,-4.9315684009343386e-05,0.0,0.0,0.0
1.850912485679146e-05,-4.9153204599861056e-05,0.0,0.0,0.0
1.8485094187781215e-05,-4.845467265113257e-05,0.0,0.0,0.0
1.8755763449007645e-05,-4.8605510528432205e-05,0.0,0.0,0.0
1.848496322054416e-05,-4.8735593736637384e-05,0.0,0.0,0.0
1.8446897229296155e-05,-4.856329542235471e-05,0.0,0.0,0.0
1.8454427845426835e-05,-4.8143603635253385e-05,0.0,0.0,0.0
1.8160884792450815e-05,-4.820080357603729e-05,0.0,0.0,0.0
1.8385218936600722e-05,-4.8169335059355944e-05,0.0,0.0,0.0
1.8530643501435407e-05,-4.7869216359686106e-05,0.0,0.0,0.0
1.8140519387088716e-05,-4.784900738741271e-05,0.0,0.0,0.0
1.8396105588180944e-05,-4.729227293864824e-05,0.0,0.0,0.0
1.823973434511572e-05,-4.739828364108689e-05,0.0,0.0,0.0
1.7847462004283443e-05,-4.728615749627352e-05,0.0,0.0,0.0
1.7807040421757847e-05,-4.736572009278461e-05,0.0,0.0,0.0
1.7778911569621414e-05,-4.710146822617389e-05,0.0,0.0,0.0
1.8207603716291487e-05,-4.719043135992251e-05,0.0,0.0,0.0
1.809956484066788e-05,-4.698054908658378e-05,0.0,0.0,0.0
1.7573709556018002e-05,-4.660770719056018e-05,0.0,0.0,0.0
1.7478367226431146e-05,-4.671351416618563e-05,0.0,0.0,0.0
1.7439599105273373e-05,-4.6614026359748095e-05,0.0,0.0,0.0
1.7617183402762748e-05,-4.685534804593772e-05,0.0,0.0,0.0
1.7782158465706743e-05,-4.695525785791688e-05,0.0,0.0,0.0
1.7798132830648683e-05,-4.69085352960974e-05,0.0,0.0,0.0
1.7672175090410747e-05,-4.675367381423712e-05,0.0,0.0,0.0
1.7574784578755498e-05,-4.711436486104503e-05,0.0,0.0,0.0
1.7577132894075476e-05,-4.740512667922303e-05,0.0,0.0,0.0
1.7345939340884797e-05,-4.7585650463588536e-05,0.0,0.0,0.0
1.7703259800327942e-05,-4.742939563584514e-05,0.0,0.0,0.0
1.7928839952219278e-05,-4.7560744860675186e-05,0.0,0.0,0.0
1.804014027584344e-05,-4.740116492030211e-05,0.0,0.0,0.0
1.8241033103549853e-05,-4.736016126116738e-05,0.0,0.0,0.0
1.8308475773665123e-05,-4.801632894668728e-05,0.0,0.0,0.0
1.7920552636496723e-05,-4.831913975067437e-05,0.0,0.0,0.0
1.7376598407281563e-05,-4.835925210500136e-05,0.0,0.0,0.0
1.7804550225264393e-05,-4.861148045165464e-05,0.0,0.0,0.0
1.7788326658774167e-05,-4.845497096539475e-05,0.0,0.0,0.0
1.778833393473178e-05,-4.852213533013128e-05,0.0,0.0,0.0
1.7801741705625318e-05,-4.878104664385319e-05,0.0,0.0,0.0
1.826668631110806e-05,-4.858977990807034e-05,0.0,0.0,0.0
1.8303297110833228e-05,-4.89804006065242e-05,0.0,0.0,0.0
1.758934376994148e-05,-4.898084807791747e-05,0.0,0.0,0.0
1.770769085851498e-05,-4.903438821202144e-05,0.0,0.0,0.0
1.7774176740203984e-05,-4.89971243951004e-05,0.0,0.0,0.0
1.7809767086873762e-05,-4.8828922444954515e-05,0.0,0.0,0.0
1.759400765877217e-05,-4.8481408157385886e-05,0.0,0.0,0.0
1.7805083189159632e-05,-4.851032281294465e-05,0.0,0.0,0.0
1.780903221515473e-05,-4.868533505941741e-05,0.0,0.0,0.0
1.7604234017198905e-05,-4.86649114463944e-05,0.0,0.0,0.0
1.7788701370591298e-05,-4.841285408474505e-05,0.0,0.0,0.0
1.75416462298017e-05,-4.787381112691946e-05,0.0,0.0,0.0
1.7249143638764508e-05,-4.7683282900834456e-05,0.0,0.0,0.0
1.7329277397948317e-05,-4.754845940624364e-05,0.0,0.0,0.0
1.7248397853109054e-05,-4.74588705401402e-05,0.0,0.0,0.0
1.74111410160549e-05,-4.762339449371211e-05,0.0,0.0,0.0
1.741952473821584e-05,-4.763519609696232e-05,0.0,0.0,0.0
1.717871055006981e-05,-4.725964754470624e-05,0.0,0.0,0.0
1.737824459269177e-05,-4.7088557039387524e-05,0.0,0.0,0.0
1.7174737877212465e-05,-4.731193257612176e-05,0.0,0.0,0.0
1.7042151739588007e-05,-4.768805592902936e-05,0.0,0.0,0.0
1.6863050404936075e-05,-4.763282049680129e-05,0.0,0.0,0.0
1.671921563684009e-05,-4.7387020458700135e-05,0.0,0.0,0.0
1.6839283489389345e-05,-4.728955536847934e-05,0.0,0.0,0.0
1.674087980063632e-05,-4.7645218728575855e-05,0.0,0.0,0.0
1.7085532817873172e-05,-4.7679557610535994e-05,0.0,0.0,0.0
1.712866833258886e-05,-4.791329774889164e-05,0.0,0.0,0.0
1.7110887711169198e-05,-4.829229510505684e-05,0.0,0.0,0.0
1.7131727872765623e-05,-4.833037746720947e-05,0.0,0.0,0.0
1.7555119484313764e-05,-4.857432213611901e-05,0.0,0.0,0.0
1.742188396747224e-05,-4.889966294285841e-05,0.0,0.0,0.0
1.7036400095093995e-05,-4.882062057731673e-05,0.0,0.0,0.0
1.719243846309837e-05,-4.8651068937033415e-05,0.0,0.0,0.0
1.706013426883146e-05,-4.869878466706723e-05,0.0,0.0,0.0
1.717081613605842e-05,-4.8656347644282505e-05,0.0,0.0,0.0
1.7079741155612282e-05,-4.8853300540940836e-05,0.0,0.0,0.0
1.730201802274678e-05,-4.914690725854598e-05,0.0,0.0,0.0
1.7429221770726144e-05,-4.935783726978116e-05,0.0,0.0,0.0
1.7604310414753854e-05,-4.9211448640562594e-05,0.0,0.0,0.0
1.7534906874061562e-05,-4.902784712612629e-05,0.0,0.0,0.0
1.716150109132286e-05,-4.8998619604390115e-05,0.0,0.0,0.0
1.7184353055199608e-05,-4.921444633509964e-05,0.0,0.0,0.0
1.7631913578952663e-05,-4.97221844852902e-05,0.0,0.0,0.0
1.8082468159263954e-05,-4.9887057684827596e-05,0.0,0.0,0.0
1.8162936612498015e-05,-4.9384911108063534e-05,0.0,0.0,0.0
1.8048156562144868e-05,-4.926170367980376e-05,0.0,0.0,0.0
1.780011189111974e-05,-4.907265611109324e-05,0.0,0.0,0.0
1.7484377167420462e-05,-4.8959878768073395e-05,0.0,0.0,0.0
1.7752545318217017e-05,-4.903499939246103e-05,0.0,0.0,0.0
1.7829499483923428e-05,-4.868098767474294e-05,0.0,0.0,0.0
1.7182454030262306e-05,-4.8671608965378255e-05,0.0,0.0,0.0
1.70713883562712e-05,-4.8680863983463496e-05,0.0,0.0,0.0
1.7158785340143368e-05,-4.8671834520064294e-05,0.0,0.0,0.0
1.7347354514640756e-05,-4.817007720703259e-05,0.0,0.0,0.0
1.7752199710230343e-05,-4.769398219650611e-05,0.0,0.0,0.0
1.731293923512567e-05,-4.7931025619618595e-05,0.0,0.0,0.0
1.7300097169936635e-05,-4.8006440920289606e-05,0.0,0.0,0.0
1.730536860122811e-05,-4.800300666829571e-05,0.0,0.0,0.0
1.725009860820137e-05,-4.7804958740016446e-05,0.0,0.0,0.0
1.7342210412607528e-05,-4.7652323701186106e-05,0.0,0.0,0.0
1.7043817933881655e-05,-4.7864439693512395e-05,0.0,0.0,0.0
1.718458406685386e-05,-4.800049646291882e-05,0.0,0.0,0.0
1.7068408851628192e-05,-4.8008780140662566e-05,0.0,0.0,0.0
1.7459933587815613e-05,-4.800144597538747e-05,0.0,0.0,0.0
1.7479464077041484e-05,-4.800788883585483e-05,0.0,0.0,0.0
1.715865801088512e-05,-4.825751602766104e-05,0.0,0.0,0.0
1.7208662029588595e-05,-4.8544090532232076e-05,0.0,0.0,0.0
1.7465130440541543e-05,-4.8365887778345495e-05,0.0,0.0,0.0
1.7452985048294067e-05,-4.841444024350494e-05,0.0,0.0,0.0
1.7540023691253737e-05,-4.8846461140783504e-05,0.0,0.0,0.0
1.777539000613615e-05,-4.915491444990039e-05,0.0,0.0,0.0
1.7865884728962556e-05,-4.8827972932485864e-05,0.0,0.0,0.0
1.8041495422949083e-05,-4.890903437626548e-05,0.0,0.0,0.0
1.789047018974088e-05,-4.914085002383217e-05,0.0,0.0,0.0
1.7985450540436432e-05,-4.924107270198874e-05,0.0,0.0,0.0
1.7595442841411568e-05,-4.941416409565136e-05,0.0,0.0,0.0
1.734356010274496e-05,-4.898303814115934e-05,0.0,0.0,0.0
1.7545651644468307e-05,-4.903227090835571e-05,0.0,0.0,0.0
1.7664175175013952e-05,-4.9275706260232255e-05,0.0,0.0,0.0
1.7880325685837306e-05,-4.965762491337955e-05,0.0,0.0,0.0
1.7725669749779627e-05,-4.968546636519022e-05,0.0,0.0,0.0
1.783925290510524e-05,-4.9921396566787735e-05,0.0,0.0,0.0
1.7995229427469894e-05,-5.005708590033464e-05,0.0,0.0,0.0
1.794558556866832e-05,-4.975953561370261e-05,0.0,0.0,0.0
1.7745587683748454e-05,-4.948367495671846e-05,0.0,0.0,0.0
1.7821381334215403e-05,-4.951753362547606e-05,0.0,0.0,0.0
1.7777101675164886e-05,-4.9536443839315325e-05,0.0,0.0,0.0
1.7614103853702545e-05,-4.929690112476237e-05,0.0,0.0,0.0
1.72852542164037e-05,-4.905135210719891e-05,0.0,0.0,0.0
1.710760989226401e-05,-4.862955029238947e-05,0.0,0.0,0.0
1.728896859276574e-05,-4.8566205805400386e-05,0.0,0.0,0.0
1.7291720723733306e-05,-4.8311125283362344e-05,0.0,0.0,0.0
1.7155640307464637e-05,-4.8363472160417587e-05,0.0,0.0,0.0
1.720121144899167e-05,-4.832362901652232e-05,0.0,0.0,0.0
1.7587330148671754e-05,-4.8352205340052024e-05,0.0,0.0,0.0
1.7750939150573686e-05,-4.8237983719445765e-05,0.0,0.0,0.0
1.7660893718129955e-05,-4.802627881872468e-05,0.0,0.0,0.0
1.7202648450620472e-05,-4.798983354703523e-05,0.0,0.0,0.0
1.736305421218276e-05,-4.795054701389745e-05,0.0,0.0,0.0
1.717241684673354e-05,-4.769320003106259e-05,0.0,0.0,0.0
1.707830415398348e-05,-4.768785947817378e-05,0.0,0.0,0.0
1.712295488687232e-05,-4.805688877240755e-05,0.0,0.0,0.0
1.6817390132928267e-05,-4.8563604650553316e-05,0.0,0.0,0.0
1.7067675798898563e-05,-4.815111606149003e-05,0.0,0.0,0.0
1.7166550605907105e-05,-4.845306830247864e-05,0.0,0.0,0.0
1.680495188338682e-05,-4.831303522223607e-05,0.0,0.0,0.0
1.7045747881638817e-05,-4.830180841963738e-05,0.0,0.0,0.0
1.7415193724446e-05,-4.842938142246567e-05,0.0,0.0,0.0
1.720915679470636e-05,-4.8215893912129104e-05,0.0,0.0,0.0
1.7329624824924394e-05,-4.8722969950176775e-05,0.0,0.0,0.0
1.7724027202348225e-05,-4.831559999729507e-05,0.0,0.0,0.0
1.7777636458049528e-05,-4.889105184702203e-05,0.0,0.0,0.0
1.8206110325991176e-05,-4.851349876844324e-05,0.0,0.0,0.0
1.8103623006027192e-05,-4.8793364840094e-05,0.0,0.0,0.0
1.7928905435837805e-05,-4.877977698924951e-05,0.0,0.0,0.0
1.800382960936986e-05,-4.906286994810216e-05,0.0,0.0,0.0
1.7747710444382392e-05,-4.915127283311449e-05,0.0,0.0,0.0
1.7978336472879164e-05,-4.934337266604416e-05,0.0,0.0,0.0
1.7956155716092326e-05,-4.937369521940127e-05,0.0,0.0,0.0
1.7952692360267974e-05,-4.930411887471564e-05,0.0,0.0,0.0
1.8091630408889614e-05,-4.9404974561184645e-05,0.0,0.0,0.0
1.805121428333223e-05,-4.928006819682196e-05,0.0,0.0,0.0
1.7783135263016447e-05,-4.942252053297125e-05,0.0,0.0,0.0
1.779809463187121e-05,-4.9268324801232666e-05,0.0,0.0,0.0
1.78628288267646e-05,-4.935469405609183e-05,0.0,0.0,0.0
1.7976311937673017e-05,-4.901961801806465e-05,0.0,0.0,0.0
1.7588567061466165e-05,-4.927088593831286e-05,0.0,0.0,0.0
1.7691538232611492e-05,-4.870614793617278e-05,0.0,0.0,0.0
1.787797373253852e-05,-4.865862138103694e-05,0.0,0.0,0.0
1.7719317838782445e-05,-4.86843018734362e-05,0.0,0.0,0.0
1.7852689779829234e-05,-4.86756325699389e-05,0.0,0.0,0.0
1.745507506711874e-05,-4.809724123333581e-05,0.0,0.0,0.0
1.7178781490656547e-05,-4.793117841472849e-05,0.0,0.0,0.0
1.708582385617774e-05,-4.832865670323372e-05,0.0,0.0,0.0
1.7147576727438718e-05,-4.833036655327305e-05,0.0,0.0,0.0
1.7589798517292365e-05,-4.810093741980381e-05,0.0,0.0,0.0
1.7393655070918612e-05,-4.797593646799214e-05,0.0,0.0,0.0
1.701667315501254e-05,-4.802658804692328e-05,0.0,0.0,0.0
1.7416094124200754e-05,-4.7988927690312266e-05,0.0,0.0,0.0
1.7208098142873496e-05,-4.761226227856241e-05,0.0,0.0,0.0
1.7138829207397066e-05,-4.729628926725127e-05,0.0,0.0,0.0
1.7111497072619386e-05,-4.736317350761965e-05,0.0,0.0,0.0
1.712208177195862e-05,-4.748016726807691e-05,0.0,0.0,0.0
1.7125530575867742e-05,-4.785167766385712e-05,0.0,0.0,0.0
1.7259428204852156e-05,-4.798820737050846e-05,0.0,0.0,0.0
1.7468415535404347e-05,-4.8017911467468366e-05,0.0,0.0,0.0
1.7441030649933964e-05,-4.799473754246719e-05,0.0,0.0,0.0
1.747393616824411e-05,-4.80128001072444e-05,0.0,0.0,0.0
1.7437154383515008e-05,-4.799865200766362e-05,0.0,0.0,0.0
1.7380642020725645e-05,-4.810560494661331e-05,0.0,0.0,0.0
1.720407271932345e-05,-4.831775004277006e-05,0.0,0.0,0.0
1.7438442228012718e-05,-4.8434580094181e-05,0.0,0.0,0.0
1.7532942365505733e-05,-4.8634206905262545e-05,0.0,0.0,0.0
1.780792445060797e-05,-4.8765363317215815e-05,0.0,0.0,0.0
1.808279012038838e-05,-4.8907040763879195e-05,0.0,0.0,0.0
1.779954254743643e-05,-4.88280929857865e-05,0.0,0.0,0.0
1.7480910173617303e-05,-4.9196500185644254e-05,0.0,0.0,0.0
1.774855081748683e-05,-4.947447814629413e-05,0.0,0.0,0.0
1.7827775081968866e-05,-4.9242818931816146e-05,0.0,0.0,0.0
1.776297176547814e-05,-4.915637327940203e-05,0.0,0.0,0.0
1.78152749867877e-05,-4.943826570524834e-05,0.0,0.0,0.0
1.7773729268810712e-05,-4.9580725317355245e-05,0.0,0.0,0.0
1.7806090909289196e-05,-4.8950070777209476e-05,0.0,0.0,0.0
1.801546386559494e-05,-4.933870877721347e-05,0.0,0.0,0.0
1.7936436051968485e-05,-4.930340946884826e-05,0.0,0.0,0.0
1.7745367586030625e-05,-4.937511766911484e-05,0.0,0.0,0.0
1.8233507944387384e-05,-4.933463060297072e-05,0.0,0.0,0.0
1.8080365407513455e-05,-4.915714089293033e-05,0.0,0.0,0.0
1.7767866665963084e-05,-4.882918074144982e-05,0.0,0.0,0.0
1.7813606973504648e-05,-4.8660174797987565e-05,0.0,0.0,0.0
1.7453929103794508e-05,-4.885871385340579e-05,0.0,0.0,0.0
1.743246684782207e-05,-4.898508996120654e-05,0.0,0.0,0.0
1.749882176227402e-05,-4.890484706265852e-05,0.0,0.0,0.0
1.740162588248495e-05,-4.864764923695475e-05,0.0,0.0,0.0
1.7634791220189072e-05,-4.835631261812523e-05,0.0,0.0,0.0
1.760981285769958e-05,-4.7673038352513686e-05,0.0,0.0,0.0
1.77360179804964e-05,-4.7766407078597695e-05,0.0,0.0,0.0
1.766962668625638e-05,-4.789548256667331e-05,0.0,0.0,0.0
1.712443736323621e-05,-4.771583553520031e-05,0.0,0.0,0.0
1.7116375602199696e-05,-4.76261593576055e-05,0.0,0.0,0.0
1.7178441339638084e-05,-4.776147397933528e-05,0.0,0.0,0.0
1.7419368305127136e-05,-4.789538070326671e-05,0.0,0.0,0.0
1.7424923498765565e-05,-4.7794277634238824e-05,0.0,0.0,0.0
1.6876401787158102e-05,-4.7887107939459383e-05,0.0,0.0,0.0
1.7331543858745135e-05,-4.810372047359124e-05,0.0,0.0,0.0
1.727387643768452e-05,-4.821061156690121e-05,0.0,0.0,0.0
1.6716499885660596e-05,-4.81706447317265e-05,0.0,0.0,0.0
1.7117545212386176e-05,-4.788178557646461e-05,0.0,0.0,0.0
1.7358004697598517e-05,-4.810260361409746e-05,0.0,0.0,0.0
1.7498223314760253e-05,-4.817450462724082e-05,0.0,0.0,0.0
1.7425687474315055e-05,-4.8891077312873676e-05,0.0,0.0,0.0
1.703046655165963e-05,-4.877752508036792e-05,0.0,0.0,0.0
1.6942967704380862e-05,-4.886747046839446e-05,0.0,0.0,0.0
1.7380738427164033e-05,-4.9259480874752626e-05,0.0,0.0,0.0
1.761985731718596e-05,-4.8932171921478584e-05,0.0,0.0,0.0
1.8000882846536115e-05,-4.868993710260838e-05,0.0,0.0,0.0
1.7948757886188105e-05,-4.882637222181074e-05,0.0,0.0,0.0
1.7947628293768503e-05,-4.920115679851733e-05,0.0,0.0,0.0
1.828750282584224e-05,-4.9465343181509525e-05,0.0,0.0,0.0
1.8169837858295068e-05,-4.943823296343908e-05,0.0,0.0,0.0
1.7950493202079087e-05,-4.899007763015106e-05,0.0,0.0,0.0
1.8087312128045596e-05,-4.9152567953569815e-05,0.0,0.0,0.0
1.8167076632380486e-05,-4.9311154725728557e-05,0.0,0.0,0.0
1.8089944205712527e-05,-4.938268102705479e-05,0.0,0.0,0.0
1.8163453205488622e-05,-4.931466901325621e-05,0.0,0.0,0.0
1.809438253985718e-05,-4.922941297991201e-05,0.0,0.0,0.0
1.809455716283992e-05,-4.876278399024159e-05,0.0,0.0,0.0
1.779290323611349e-05,-4.896529935649596e-05,0.0,0.0,0.0
1.7792408470995724e-05,-4.90079983137548e-05,0.0,0.0,0.0
1.775892815203406e-05,-4.867998359259218e-05,0.0,0.0,0.0
1.74965025507845e-05,-4.8671983677195385e-05,0.0,0.0,0.0
1.7421964003005996e-05,-4.868074756814167e-05,0.0,0.0,0.0
1.777227589627728e-05,-4.867198731517419e-05,0.0,0.0,0.0
1.780951424734667e-05,-4.8127105401363224e-05,0.0,0.0,0.0
1.7510537873022258e-05,-4.792619438376278e-05,0.0,0.0,0.0
1.743591383274179e-05,-4.807024743058719e-05,0.0,0.0,0.0
1.7716924048727378e-05,-4.770712257595733e-05,0.0,0.0,0.0
1.780787351890467e-05,-4.744947364088148e-05,0.0,0.0,0.0
1.7553797079017386e-05,-4.730011642095633e-05,0.0,0.0,0.0
1.723648892948404e-05,-4.757063652505167e-05,0.0,0.0,0.0
1.71070932992734e-05,-4.746844570036046e-05,0.0,0.0,0.0
1.7516445950604975e-05,-4.731374065158889e-05,0.0,0.0,0.0
1.7982798453886062e-05,-4.735399124911055e-05,0.0,0.0,0.0
1.7958951502805576e-05,-4.765284393215552e-05,0.0,0.0,0.0
1.7624974134378135e-05,-4.8035126383183524e-05,0.0,0.0,0.0
1.7611835573916323e-05,-4.79766858916264e-05,0.0,0.0,0.0
1.750615228957031e-05,-4.8031008191173896e-05,0.0,0.0,0.0
1.7268783267354593e-05,-4.823608469450846e-05,0.0,0.0,0.0
1.754506774886977e-05,-4.868078394792974e-05,0.0,0.0,0.0
1.780596903699916e-05,-4.86715798615478e-05,0.0,0.0,0.0
1.7778624169295654e-05,-4.868101314059459e-05,0.0,0.0,0.0
1.780474849510938e-05,-4.8671659897081554e-05,0.0,0.0,0.0
1.778004843799863e-05,-4.882955181528814e-05,0.0,0.0,0.0
1.7803151422413066e-05,-4.922918742522597e-05,0.0,0.0,0.0
1.7834960090112872e-05,-4.9034133553504944e-05,0.0,0.0,0.0
1.8062508388538845e-05,-4.872965655522421e-05,0.0,0.0,0.0
1.7846105038188398e-05,-4.933490345138125e-05,0.0,0.0,0.0
1.774669908627402e-05,-4.9684025725582615e-05,0.0,0.0,0.0
1.782950130291283e-05,-4.968177017872222e-05,0.0,0.0,0.0
1.776150929799769e-05,-4.9398695409763604e-05,0.0,0.0,0.0
1.7816366380429827e-05,-4.957987766829319e-05,0.0,0.0,0.0
1.777308170858305e-05,-4.949345748173073e-05,0.0,0.0,0.0
1.8316721252631396e-05,-4.8993839300237596e-05,0.0,0.0,0.0
1.8515494957682677e-05,-4.906308822683059e-05,0.0,0.0,0.0
1.8418257241137326e-05,-4.920436185784638e-05,0.0,0.0,0.0
1.805547799449414e-05,-4.918192280456424e-05,0.0,0.0,0.0
1.771692950569559e-05,-4.8732188588473946e-05,0.0,0.0,0.0
1.805646752472967e-05,-4.8711601266404614e-05,0.0,0.0,0.0
1.7899943486554548e-05,-4.865020309807733e-05,0.0,0.0,0.0
1.7809337805374525e-05,-4.86943063151557e-05,0.0,0.0,0.0
1.77796737261815e-05,-4.8324884119210765e-05,0.0,0.0,0.0
1.7640446458244696e-05,-4.816044747713022e-05,0.0,0.0,0.0
1.730208532535471e-05,-4.834881110582501e-05,0.0,0.0,0.0
1.7262540495721623e-05,-4.819215610041283e-05,0.0,0.0,0.0
1.7578175175003707e-05,-4.8021865950431675e-05,0.0,0.0,0.0
1.7668677173787728e-05,-4.787058423971757e-05,0.0,0.0,0.0
1.7370115529047325e-05,-4.7804845962673426e-05,0.0,0.0,0.0
1.7116150047513656e-05,-4.7866527893347666e-05,0.0,0.0,0.0
1.721185071801301e-05,-4.764107143273577e-05,0.0,0.0,0.0
1.7426878912374377e-05,-4.7379940951941535e-05,0.0,0.0,0.0
1.7547270545037463e-05,-4.760470983455889e-05,0.0,0.0,0.0
1.773855728970375e-05,-4.736225673696026e-05,0.0,0.0,0.0
1.7796317479223944e-05,-4.7309338697232306e-05,0.0,0.0,0.0
1.7419060895917937e-05,-4.741740849567577e-05,0.0,0.0,0.0
1.7206695702043362e-05,-4.78685469715856e-05,0.0,0.0,0.0
1.7671049135969952e-05,-4.749630534206517e-05,0.0,0.0,0.0
1.760709346854128e-05,-4.777108188136481e-05,0.0,0.0,0.0
1.7330106857116334e-05,-4.847673335461877e-05,0.0,0.0,0.0
1.7826154362410307e-05,-4.7951714805094525e-05,0.0,0.0,0.0
1.799778692657128e-05,-4.832399281440303e-05,0.0,0.0,0.0
1.8440674466546625e-05,-4.832396734855138e-05,0.0,0.0,0.0
1.8438868210068904e-05,-4.8582292947685346e-05,0.0,0.0,0.0
1.8255152099300176e-05,-4.870046905125491e-05,0.0,0.0,0.0
1.8099681255989708e-05,-4.865007213084027e-05,0.0,0.0,0.0
1.8145157810067758e-05,-4.870373959420249e-05,0.0,0.0,0.0
1.8310816813027486e-05,-4.883967631030828e-05,0.0,0.0,0.0
1.829442408052273e-05,-4.923198503092863e-05,0.0,0.0,0.0
1.8116512364940718e-05,-4.914874443784356e-05,0.0,0.0,0.0
1.8130334865418263e-05,-4.9034908442990854e-05,0.0,0.0,0.0
1.8132248442270793e-05,-4.913857264909893e-05,0.0,0.0,0.0
1.8255608665640466e-05,-4.936689219903201e-05,0.0,0.0,0.0
1.847301064117346e-05,-4.920205901726149e-05,0.0,0.0,0.0
1.8566650396678597e-05,-4.903725493932143e-05,0.0,0.0,0.0
1.8697612176765688e-05,-4.909580457024276e-05,0.0,0.0,0.0
1.8278609786648303e-05,-4.9256341299042106e-05,0.0,0.0,0.0
1.78278951352695e-05,-4.894176890957169e-05,0.0,0.0,0.0
1.7831938748713583e-05,-4.875986269325949e-05,0.0,0.0,0.0
1.8135131540475413e-05,-4.8915295337792486e-05,0.0,0.0,0.0
1.8171846022596583e-05,-4.87324214191176e-05,0.0,0.0,0.0
1.8441511201672256e-05,-4.862943751504645e-05,0.0,0.0,0.0
1.8416210878058337e-05,-4.865078881266527e-05,0.0,0.0,0.0
1.781447463145014e-05,-4.803024421562441e-05,0.0,0.0,0.0
1.7147653124993667e-05,-4.76692512165755e-05,0.0,0.0,0.0
1.738576975185424e-05,-4.7958270442904904e-05,0.0,0.0,0.0
1.7791644495446235e-05,-4.8042267735581845e-05,0.0,0.0,0.0
1.7781301721697673e-05,-4.744403122458607e-05,0.0,0.0,0.0
1.8055161490337923e-05,-4.72863539471291e-05,0.0,0.0,0.0
1.790858368622139e-05,-4.762026946991682e-05,0.0,0.0,0.0
1.7508207747596316e-05,-4.789341619471088e-05,0.0,0.0,0.0
1.7250356904696673e-05,-4.759274816024117e-05,0.0,0.0,0.0
1.729805808281526e-05,-4.7260644350899383e-05,0.0,0.0,0.0
1.7502728951512836e-05,-4.759741204907186e-05,0.0,0.0,0.0
1.741912456054706e-05,-4.7823283239267766e-05,0.0,0.0,0.0
1.7846765331341885e-05,-4.768529470311478e-05,0.0,0.0,0.0
1.7951950212591328e-05,-4.7453831939492375e-05,0.0,0.0,0.0
1.747035639709793e-05,-4.771342355525121e-05,0.0,0.0,0.0
1.742075983202085e-05,-4.7634974180255085e-05,0.0,0.0,0.0
1.7644482795731165e-05,-4.797100700670853e-05,0.0,0.0,0.0
1.760076338541694e-05,-4.818467641598545e-05,0.0,0.0,0.0
1.7765389202395454e-05,-4.8150821385206655e-05,0.0,0.0,0.0
1.7818223568610847e-05,-4.841410191147588e-05,0.0,0.0,0.0
1.7766491509974003e-05,-4.868496398557909e-05,0.0,0.0,0.0
1.7816648323787376e-05,-4.875813829130493e-05,0.0,0.0,0.0
1.776848512236029e-05,-4.898859697277658e-05,0.0,0.0,0.0
1.781429091352038e-05,-4.9099729949375615e-05,0.0,0.0,0.0
1.777115357981529e-05,-4.924178938381374e-05,0.0,0.0,0.0
1.7811367797548883e-05,-4.9049554945668206e-05,0.0,0.0,0.0
1.7806181858759373e-05,-4.867267853114754e-05,0.0,0.0,0.0
1.8083925169776194e-05,-4.902673390461132e-05,0.0,0.0,0.0
1.7852269593277015e-05,-4.930976137984544e-05,0.0,0.0,0.0
1.7454676708439365e-05,-4.9381207645637915e-05,0.0,0.0,0.0
1.7733011191012338e-05,-4.93183579237666e-05,0.0,0.0,0.0
1.7830720025813207e-05,-4.963884930475615e-05,0.0,0.0,0.0
1.7758740796125494e-05,-4.9441088776802644e-05,0.0,0.0,0.0
1.8064831238007173e-05,-4.93057377752848e-05,0.0,0.0,0.0
1.7898049918585457e-05,-4.8914684157352895e-05,0.0,0.0,0.0
1.776355566107668e-05,-4.8598569264868274e-05,0.0,0.0,0.0
1.781613173079677e-05,-4.8740272177383304e-05,0.0,0.0,0.0
1.777176294126548e-05,-4.902862565359101e-05,0.0,0.0,0.0
1.8191731214756146e-05,-4.903484295937233e-05,0.0,0.0,0.0
1.8110360542777926e-05,-4.859845284954645e-05,0.0,0.0,0.0
1.7599020793568343e-05,-4.873719808529131e-05,0.0,0.0,0.0
1.7470230886829086e-05,-4.8630230594426394e-05,0.0,0.0,0.0
1.7594296878087334e-05,-4.856047598877922e-05,0.0,0.0,0.0
1.7521633708383888e-05,-4.832077684113756e-05,0.0,0.0,0.0
1.738288665364962e-05,-4.809566598851234e-05,0.0,0.0,0.0
1.776670978870243e-05,-4.780125891556963e-05,0.0,0.0,0.0
1.760300983733032e-05,-4.7973444452509284e-05,0.0,0.0,0.0
1.712926314212382e-05,-4.8037891247076914e-05,0.0,0.0,0.0
1.711478216748219e-05,-4.797112342203036e-05,0.0,0.0,0.0
1.7124035366578028e-05,-4.7964236728148535e-05,0.0,0.0,0.0
1.718310159048997e-05,-4.766128768096678e-05,0.0,0.0,0.0
1.742725908115972e-05,-4.773293039761484e-05,0.0,0.0,0.0
1.7439988369005732e-05,-4.796046778210439e-05,0.0,0.0,0.0
1.71005267475266e-05,-4.804566196980886e-05,0.0,0.0,0.0
1.683573100308422e-05,-4.79466216347646e-05,0.0,0.0,0.0
1.7052683688234538e-05,-4.774422268383205e-05,0.0,0.0,0.0
1.717882878438104e-05,-4.846588853979483e-05,0.0,0.0,0.0
1.7071344700525515e-05,-4.8854552005650476e-05,0.0,0.0,0.0
1.716174665489234e-05,-4.852738493354991e-05,0.0,0.0,0.0
1.7342143109999597e-05,-4.8798450734466314e-05,0.0,0.0,0.0
1.775906639522873e-05,-4.857827661908232e-05,0.0,0.0,0.0
1.7772877981769852e-05,-4.898653787677176e-05,0.0,0.0,0.0
1.7805788957048208e-05,-4.920285937259905e-05,0.0,0.0,0.0
1.735758087306749e-05,-4.9175607273355126e-05,0.0,0.0,0.0
1.74939905264182e-05,-4.8968395276460797e-05,0.0,0.0,0.0
1.784919913916383e-05,-4.903956869384274e-05,0.0,0.0,0.0
1.774247721186839e-05,-4.917900150758214e-05,0.0,0.0,0.0
1.7834536265581846e-05,-4.9697846407070756e-05,0.0,0.0,0.0
1.775593773345463e-05,-4.955117037752643e-05,0.0,0.0,0.0
1.7971118722925894e-05,-4.8990037612384185e-05,0.0,0.0,0.0
1.79625039891107e-05,-4.9038597353501245e-05,0.0,0.0,0.0
1.7819480490288697e-05,-4.910953066428192e-05,0.0,0.0,0.0
1.776958379196003e-05,-4.937135963700712e-05,0.0,0.0,0.0
1.7703583580441773e-05,-4.942785744788125e-05,0.0,0.0,0.0
1.745780900819227e-05,-4.9599988415138796e-05,0.0,0.0,0.0
1.7538521206006408e-05,-4.935116521664895e-05,0.0,0.0,0.0
1.7774054867913947e-05,-4.934884054819122e-05,0.0,0.0,0.0
1.7805794414016418e-05,-4.927911140839569e-05,0.0,0.0,0.0
1.7781934730010107e-05,-4.899484338238835e-05,0.0,0.0,0.0
1.7756339730112813e-05,-4.8674686695449054e-05,0.0,0.0,0.0
1.751942909322679e-05,-4.867989991907962e-05,0.0,0.0,0.0
1.7703934645396657e-05,-4.867131792707369e-05,0.0,0.0,0.0
1.7556294551468454e-05,-4.86819953948725e-05,0.0,0.0,0.0
1.7083712009480223e-05,-4.86702992930077e-05,0.0,0.0,0.0
1.7151754946098663e-05,-4.840560723096132e-05,0.0,0.0,0.0
1.736064223223366e-05,-4.803159390576184e-05,0.0,0.0,0.0
1.7767051758710295e-05,-4.800657188752666e-05,0.0,0.0,0.0
1.7777701941668056e-05,-4.7759440349182114e-05,0.0,0.0,0.0
1.7334548829239793e-05,-4.83431649627164e-05,0.0,0.0,0.0
1.706460716377478e-05,-4.8327347030863166e-05,0.0,0.0,0.0
1.6952679288806394e-05,-4.788038495462388e-05,0.0,0.0,0.0
1.6934431187110022e-05,-4.790621460415423e-05,0.0,0.0,0.0
1.717573650239501e-05,-4.757010538014583e-05,0.0,0.0,0.0
1.725941910990514e-05,-4.811058170162141e-05,0.0,0.0,0.0
1.7494659914518707e-05,-4.812340921489522e-05,0.0,0.0,0.0
1.7270016542170197e-05,-4.819489913643338e-05,0.0,0.0,0.0
1.7433922039344907e-05,-4.846960291615687e-05,0.0,0.0,0.0
1.7780477719497867e-05,-4.8686495574656874e-05,0.0,0.0,0.0
1.7796523025026545e-05,-4.8672358389012516e-05,0.0,0.0,0.0
1.7676415154710412e-05,-4.867500683758408e-05,0.0,0.0,0.0
1.7568505427334458e-05,-4.878811159869656e-05,0.0,0.0,0.0
1.7776352251530625e-05,-4.908353366772644e-05,0.0,0.0,0.0
1.7886059140437283e-05,-4.9183327064383775e-05,0.0,0.0,0.0
1.8027902115136385e-05,-4.878637264482677e-05,0.0,0.0,0.0
1.7834883692557923e-05,-4.895938036497682e-05,0.0,0.0,0.0
1.7759546608431265e-05,-4.910678762826137e-05,0.0,0.0,0.0
1.7815551473177038e-05,-4.928361886413768e-05,0.0,0.0,0.0
1.7776095774024725e-05,-4.9398669943911955e-05,0.0,0.0,0.0
1.7801548892748542e-05,-4.932937372359447e-05,0.0,0.0,0.0
1.77877791429637e-05,-4.967112545273267e-05,0.0,0.0,0.0
1.779196463758126e-05,-4.96977154398337e-05,0.0,0.0,0.0
1.7795477106119506e-05,-4.9667614803183824e-05,0.0,0.0,0.0
1.805182546377182e-05,-4.94340893055778e-05,0.0,0.0,0.0
1.8170127077610232e-05,-4.929632996208966e-05,0.0,0.0,0.0
1.8089738659909926e-05,-4.939318387187086e-05,0.0,0.0,0.0
1.8161295884056017e-05,-4.930781142320484e-05,0.0,0.0,0.0
1.787512519513257e-05,-4.938213533023372e-05,0.0,0.0,0.0
1.8221315258415416e-05,-4.8892969061853364e-05,0.0,0.0,0.0
1.8091501260641962e-05,-4.866505696554668e-05,0.0,0.0,0.0
1.7544905858812854e-05,-4.868588803219609e-05,0.0,0.0,0.0
1.7671673049335368e-05,-4.86679891764652e-05,0.0,0.0,0.0
1.7772043065633625e-05,-4.834319042856805e-05,0.0,0.0,0.0
1.7648157154326327e-05,-4.8148907808354124e-05,0.0,0.0,0.0
1.7740863768267445e-05,-4.835471190745011e-05,0.0,0.0,0.0
1.799501114874147e-05,-4.8329136916436255e-05,0.0,0.0,0.0
1.7794651284930296e-05,-4.822210394195281e-05,0.0,0.0,0.0
1.7787751858122647e-05,-4.7889443521853536e-05,0.0,0.0,0.0
1.779749436536804e-05,-4.778551374329254e-05,0.0,0.0,0.0
1.7785709133022465e-05,-4.7885841922834516e-05,0.0,0.0,0.0
1.7628683053771965e-05,-4.779235314344987e-05,0.0,0.0,0.0
1.72320051206043e-05,-4.795098720933311e-05,0.0,0.0,0.0
