1.815991163311992e-05,-4.863915091846138e-05,0.0,0.0,0.0
1.8103064576280303e-05,-4.898507904727012e-05,0.0,0.0,0.0
1.814588176785037e-05,-4.902201908407733e-05,0.0,0.0,0.0
1.7859842046163976e-05,-4.925912435282953e-05,0.0,0.0,0.0
1.7768892575986683e-05,-4.938527490594424e-05,0.0,0.0,0.0
1.7579835912329145e-05,-4.9550555559108034e-05,0.0,0.0,0.0
1.718827297736425e-05,-4.973320756107569e-05,0.0,0.0,0.0
1.7138339899247512e-05,-4.964269828633405e-05,0.0,0.0,0.0
1.7508957171230577e-05,-4.971596717950888e-05,0.0,0.0,0.0
1.8026310499408282e-05,-4.946644548908807e-05,0.0,0.0,0.0
1.8103137335856445e-05,-4.953660027240403e-05,0.0,0.0,0.0
1.8147786249755882e-05,-4.985657869838178e-05,0.0,0.0,0.0
1.8271348380949348e-05,-4.985983468941413e-05,0.0,0.0,0.0
1.8327828001929447e-05,-4.968369466951117e-05,0.0,0.0,0.0
1.812043228710536e-05,-4.9404672608943656e-05,0.0,0.0,0.0
1.825917570386082e-05,-4.915403405902907e-05,0.0,0.0,0.0
1.845390215748921e-05,-4.9324680730933324e-05,0.0,0.0,0.0
1.8256443581776693e-05,-4.9262773245573044e-05,0.0,0.0,0.0
1.782033359631896e-05,-4.9103269702754915e-05,0.0,0.0,0.0
1.7765229131327942e-05,-4.916371835861355e-05,0.0,0.0,0.0
1.7891688912641257e-05,-4.880558481090702e-05,0.0,0.0,0.0
1.8014963643508963e-05,-4.887698742095381e-05,0.0,0.0,0.0
1.7917367586051114e-05,-4.8764311941340566e-05,0.0,0.0,0.0
1.799043639039155e-05,-4.8603073082631454e-05,0.0,0.0,0.0
1.7908529116539285e-05,-4.873623765888624e-05,0.0,0.0,0.0
1.7714517525746487e-05,-4.862809510086663e-05,0.0,0.0,0.0
1.8168420865549706e-05,-4.871407145401463e-05,0.0,0.0,0.0
1.7808084521675482e-05,-4.864759830525145e-05,0.0,0.0,0.0
1.7776068489183672e-05,-4.842053022002801e-05,0.0,0.0,0.0
1.780774982762523e-05,-4.8023015551734716e-05,0.0,0.0,0.0
1.803184386517387e-05,-4.8520549171371385e-05,0.0,0.0,0.0
1.7929238310898654e-05,-4.873812940786593e-05,0.0,0.0,0.0
1.7255848433705978e-05,-4.862088098889217e-05,0.0,0.0,0.0
1.7129988918895833e-05,-4.894880476058461e-05,0.0,0.0,0.0
1.7537400708533823e-05,-4.877718674833886e-05,0.0,0.0,0.0
1.7835587641457096e-05,-4.8678499297238886e-05,0.0,0.0,0.0
1.7755324734025635e-05,-4.86730677948799e-05,0.0,0.0,0.0
1.782248364179395e-05,-4.886094757239334e-05,0.0,0.0,0.0
1.7597012629266828e-05,-4.901560896541923e-05,0.0,0.0,0.0
1.731205338728614e-05,-4.900998465018347e-05,0.0,0.0,0.0
1.755430275807157e-05,-4.901269494439475e-05,0.0,0.0,0.0
1.7992668290389702e-05,-4.915047611575574e-05,0.0,0.0,0.0
1.805229294404853e-05,-4.921372601529583e-05,0.0,0.0,0.0
1.820518809836358e-05,-4.902687214780599e-05,0.0,0.0,0.0
1.7839496649685316e-05,-4.921123036183417e-05,0.0,0.0,0.0
1.7748890968505293e-05,-4.976033596904017e-05,0.0,0.0,0.0
1.7660800949670374e-05,-4.993115726392716e-05,0.0,0.0,0.0
1.712969969958067e-05,-4.9633577873464674e-05,0.0,0.0,0.0
1.7178021153085865e-05,-4.9479491281090304e-05,0.0,0.0,0.0
1.7538181054987945e-05,-4.9904909246833995e-05,0.0,0.0,0.0
1.808587330742739e-05,-4.9724792916094884e-05,0.0,0.0,0.0
1.8130340322386473e-05,-4.934384924126789e-05,0.0,0.0,0.0
1.7802585716708563e-05,-4.96529319207184e-05,0.0,0.0,0.0
1.778161276888568e-05,-4.9398480769013986e-05,0.0,0.0,0.0
1.780210186552722e-05,-4.930368231725879e-05,0.0,0.0,0.0
1.8335409549763426e-05,-4.966188134858385e-05,0.0,0.0,0.0
1.801624421204906e-05,-4.942335363011807e-05,0.0,0.0,0.0
1.8162203559768386e-05,-4.9563575885258615e-05,0.0,0.0,0.0
1.839789911173284e-05,-4.9747293815016747e-05,0.0,0.0,0.0
1.7718451999826357e-05,-4.9396538088331e-05,0.0,0.0,0.0
1.790975329640787e-05,-4.9142836360260844e-05,0.0,0.0,0.0
1.769976006471552e-05,-4.897699909633957e-05,0.0,0.0,0.0
1.7861679225461558e-05,-4.8837217036634684e-05,0.0,0.0,0.0
1.7742248019203544e-05,-4.864121729042381e-05,0.0,0.0,0.0
1.7824449969339184e-05,-4.8522098950343207e-05,0.0,0.0,0.0
1.7774545995052904e-05,-4.848364551435225e-05,0.0,0.0,0.0
1.7796754036680795e-05,-4.8700028855819255e-05,0.0,0.0,0.0
1.779796730261296e-05,-4.8362562665715814e-05,0.0,0.0,0.0
1.7915535863721743e-05,-4.815653301193379e-05,0.0,0.0,0.0
1.8271724911755882e-05,-4.845525836572051e-05,0.0,0.0,0.0
1.8198255929746665e-05,-4.867495226790197e-05,0.0,0.0,0.0
1.7744418073561974e-05,-4.85747805214487e-05,0.0,0.0,0.0
1.7509735698695295e-05,-4.844399882131256e-05,0.0,0.0,0.0
1.7645790649112314e-05,-4.8739333578851074e-05,0.0,0.0,0.0
1.713852361717727e-05,-4.900569547316991e-05,0.0,0.0,0.0
1.7110407497966662e-05,-4.902037471765652e-05,0.0,0.0,0.0
1.7230950106750242e-05,-4.905521200271323e-05,0.0,0.0,0.0
1.7729065802996047e-05,-4.928416456095874e-05,0.0,0.0,0.0
1.777769830368925e-05,-4.9094687710748985e-05,0.0,0.0,0.0
1.7202428352902643e-05,-4.926825567963533e-05,0.0,0.0,0.0
1.7670879969955422e-05,-4.941247243550606e-05,0.0,0.0,0.0
1.7897878933581524e-05,-4.900867133983411e-05,0.0,0.0,0.0
1.770061135175638e-05,-4.928791895508766e-05,0.0,0.0,0.0
1.8135708160116337e-05,-4.938911661156453e-05,0.0,0.0,0.0
1.784180130925961e-05,-4.956529301125556e-05,0.0,0.0,0.0
1.7785512682166882e-05,-4.974830517312512e-05,0.0,0.0,0.0
1.7799040506361052e-05,-4.939343489240855e-05,0.0,0.0,0.0
1.778436308086384e-05,-4.937080666422844e-05,0.0,0.0,0.0
1.7800379282562062e-05,-4.954086762154475e-05,0.0,0.0,0.0
1.7782929717213847e-05,-4.991934838471934e-05,0.0,0.0,0.0
1.81846789928386e-05,-4.9814567319117486e-05,0.0,0.0,0.0
1.8475346223567612e-05,-4.968203211319633e-05,0.0,0.0,0.0
1.8456135876476765e-05,-4.951548908138648e-05,0.0,0.0,0.0
1.8466560504748486e-05,-4.949950016452931e-05,0.0,0.0,0.0
1.8463906599208713e-05,-4.9543246859684587e-05,0.0,0.0,0.0
1.832153429859318e-05,-4.9203339585801587e-05,0.0,0.0,0.0
1.826703010010533e-05,-4.902301589027047e-05,0.0,0.0,0.0
1.844140570028685e-05,-4.900194107904099e-05,0.0,0.0,0.0
1.84854961844394e-05,-4.902110595139675e-05,0.0,0.0,0.0
1.825011167966295e-05,-4.8907968448475e-05,0.0,0.0,0.0
1.8020960851572454e-05,-4.870248812949285e-05,0.0,0.0,0.0
1.829231587180402e-05,-4.865351002081297e-05,0.0,0.0,0.0
1.823735328798648e-05,-4.869590702583082e-05,0.0,0.0,0.0
1.8033315427601337e-05,-4.8659523599781096e-05,0.0,0.0,0.0
1.8165554138249718e-05,-4.864788934355602e-05,0.0,0.0,0.0
1.7823589587351307e-05,-4.833217099076137e-05,0.0,0.0,0.0
1.8390823242953047e-05,-4.800194801646285e-05,0.0,0.0,0.0
1.821495607146062e-05,-4.769571023643948e-05,0.0,0.0,0.0
1.833951500884723e-05,-4.850783807341941e-05,0.0,0.0,0.0
1.8016025933320634e-05,-4.881887070951052e-05,0.0,0.0,0.0
1.7893293261295184e-05,-4.802538387593813e-05,0.0,0.0,0.0
1.8044111129711382e-05,-4.879973494098522e-05,0.0,0.0,0.0
1.7375023162458092e-05,-4.883910150965676e-05,0.0,0.0,0.0
1.756854726409074e-05,-4.88197329104878e-05,0.0,0.0,0.0
1.7144950106739998e-05,-4.911396172246896e-05,0.0,0.0,0.0
1.7166155885206535e-05,-4.892603828920983e-05,0.0,0.0,0.0
1.7292228221776895e-05,-4.888128751190379e-05,0.0,0.0,0.0
1.7488340745330788e-05,-4.89864032715559e-05,0.0,0.0,0.0
1.7618644051253796e-05,-4.9247646529693156e-05,0.0,0.0,0.0
1.746657108014915e-05,-4.9110385589301586e-05,0.0,0.0,0.0
1.726723712636158e-05,-4.940747021464631e-05,0.0,0.0,0.0
1.7757125533535145e-05,-4.930344584863633e-05,0.0,0.0,0.0
1.8130142052541487e-05,-4.937826452078298e-05,0.0,0.0,0.0
1.8117345462087542e-05,-4.9201313231606036e-05,0.0,0.0,0.0
1.8144388377550058e-05,-4.9263246182817966e-05,0.0,0.0,0.0
1.799988058337476e-05,-4.954539326718077e-05,0.0,0.0,0.0
1.7832357116276398e-05,-4.9574548029340804e-05,0.0,0.0,0.0
1.7836639017332345e-05,-4.995831841370091e-05,0.0,0.0,0.0
1.8145465219276957e-05,-4.998964868718758e-05,0.0,0.0,0.0
1.8044325770461e-05,-4.9741101975087076e-05,0.0,0.0,0.0
1.7894366465043277e-05,-4.998863732907921e-05,0.0,0.0,0.0
1.805069769034162e-05,-5.0009082769975066e-05,0.0,0.0,0.0
1.819554927351419e-05,-4.965301195625216e-05,0.0,0.0,0.0
1.80475053639384e-05,-4.936920231557451e-05,0.0,0.0,0.0
1.7884347471408546e-05,-4.90124621137511e-05,0.0,0.0,0.0
1.8001373973675072e-05,-4.901602369500324e-05,0.0,0.0,0.0
1.8509605069993995e-05,-4.928094494971447e-05,0.0,0.0,0.0
1.841500125010498e-05,-4.939554855809547e-05,0.0,0.0,0.0
1.850060471042525e-05,-4.904905290459283e-05,0.0,0.0,0.0
1.8436390746501274e-05,-4.901966894976795e-05,0.0,0.0,0.0
1.848133069870528e-05,-4.8769717977847904e-05,0.0,0.0,0.0
1.823025922931265e-05,-4.8883550334721804e-05,0.0,0.0,0.0
1.8109283701051027e-05,-4.883263318333775e-05,0.0,0.0,0.0
1.8350747268414125e-05,-4.863183858105913e-05,0.0,0.0,0.0
1.8454988094163127e-05,-4.8329035053029656e-05,0.0,0.0,0.0
1.8475860997568816e-05,-4.8316076572518796e-05,0.0,0.0,0.0
1.8617867681314237e-05,-4.8731864808360115e-05,0.0,0.0,0.0
1.850289845606312e-05,-4.86328499391675e-05,0.0,0.0,0.0
1.8250355424243025e-05,-4.8560279537923634e-05,0.0,0.0,0.0
1.8348900994169526e-05,-4.8180590965785086e-05,0.0,0.0,0.0
1.8110051314579323e-05,-4.815200372831896e-05,0.0,0.0,0.0
1.8145048670703545e-05,-4.8319379857275635e-05,0.0,0.0,0.0
1.8004651792580262e-05,-4.8461133701493964e-05,0.0,0.0,0.0
1.7727530575939454e-05,-4.8652582336217165e-05,0.0,0.0,0.0
1.7447022401029244e-05,-4.877801984548569e-05,0.0,0.0,0.0
1.753957440087106e-05,-4.890479249297641e-05,0.0,0.0,0.0
1.7758566173142754e-05,-4.8726171371527016e-05,0.0,0.0,0.0
1.7820870198193006e-05,-4.869031181442551e-05,0.0,0.0,0.0
1.7767539247870445e-05,-4.90098464069888e-05,0.0,0.0,0.0
1.7844282410806045e-05,-4.8985370085574687e-05,0.0,0.0,0.0
1.8072620150633156e-05,-4.870716657023877e-05,0.0,0.0,0.0
1.817333213693928e-05,-4.8653044359525666e-05,0.0,0.0,0.0
1.8377901142230257e-05,-4.8980131396092474e-05,0.0,0.0,0.0
1.8257096598972566e-05,-4.9041849706554785e-05,0.0,0.0,0.0
1.803361919883173e-05,-4.925017128698528e-05,0.0,0.0,0.0
1.794789932318963e-05,-4.9407437472837046e-05,0.0,0.0,0.0
1.7702193872537464e-05,-4.9540707550477237e-05,0.0,0.0,0.0
1.786180837370921e-05,-4.9755064537748694e-05,0.0,0.0,0.0
1.796331343939528e-05,-4.962351158610545e-05,0.0,0.0,0.0
1.8185319277108647e-05,-4.973239992978051e-05,0.0,0.0,0.0
1.7885235138237476e-05,-4.9442151066614315e-05,0.0,0.0,0.0
1.7802996808313765e-05,-4.936340337735601e-05,0.0,0.0,0.0
1.8152888515032828e-05,-4.93373918288853e-05,0.0,0.0,0.0
1.8641490896698087e-05,-4.935315155307762e-05,0.0,0.0,0.0
1.8646231183083728e-05,-4.9346406740369275e-05,0.0,0.0,0.0
1.8299377188668586e-05,-4.9345318984705955e-05,0.0,0.0,0.0
1.815028372220695e-05,-4.935310425935313e-05,0.0,0.0,0.0
1.822881677071564e-05,-4.921208164887503e-05,0.0,0.0,0.0
1.8367014490650035e-05,-4.903073204332031e-05,0.0,0.0,0.0
1.81162977241911e-05,-4.9099115130957216e-05,0.0,0.0,0.0
1.814267125155311e-05,-4.9351659981766716e-05,0.0,0.0,0.0
1.8110264136339538e-05,-4.917149999528192e-05,0.0,0.0,0.0
1.8146760339732282e-05,-4.872787030762993e-05,0.0,0.0,0.0
1.8171687770518474e-05,-4.850242112297565e-05,0.0,0.0,0.0
1.8454735254636034e-05,-4.810326936421916e-05,0.0,0.0,0.0
1.8425711459713057e-05,-4.800509850610979e-05,0.0,0.0,0.0
1.8129232557839714e-05,-4.8678099119570106e-05,0.0,0.0,0.0
1.7800350178731605e-05,-4.867521420237608e-05,0.0,0.0,0.0
1.7786262105801143e-05,-4.867657116847113e-05,0.0,0.0,0.0
1.7795840904000215e-05,-4.838962195208296e-05,0.0,0.0,0.0
1.7789583580452017e-05,-4.857476596953347e-05,0.0,0.0,0.0
1.7527663658256643e-05,-4.8750316636869684e-05,0.0,0.0,0.0
1.742089807521552e-05,-4.8613917897455394e-05,0.0,0.0,0.0
1.7241207387996837e-05,-4.87281649839133e-05,0.0,0.0,0.0
1.730241820041556e-05,-4.886771785095334e-05,0.0,0.0,0.0
1.7300590116064996e-05,-4.929400893161073e-05,0.0,0.0,0.0
1.6831236280268058e-05,-4.932160663884133e-05,0.0,0.0,0.0
1.6829520973260514e-05,-4.8963080189423636e-05,0.0,0.0,0.0
1.7132673747255467e-05,-4.882480425294489e-05,0.0,0.0,0.0
1.768637048371602e-05,-4.905610694549978e-05,0.0,0.0,0.0
1.7761809431249276e-05,-4.8808433348312974e-05,0.0,0.0,0.0
1.7814016246120445e-05,-4.9014794058166444e-05,0.0,0.0,0.0
1.792594230209943e-05,-4.93378029204905e-05,0.0,0.0,0.0
1.7996393580688164e-05,-4.935239485348575e-05,0.0,0.0,0.0
1.7923000996233895e-05,-4.909200652036816e-05,0.0,0.0,0.0
1.81122450158e-05,-4.8807632992975414e-05,0.0,0.0,0.0
1.803832856239751e-05,-4.909698691335507e-05,0.0,0.0,0.0
1.778951263986528e-05,-4.944345710100606e-05,0.0,0.0,0.0
1.7882202882901765e-05,-4.958237332175486e-05,0.0,0.0,0.0
1.809864625101909e-05,-4.9380669224774465e-05,0.0,0.0,0.0
1.8091137462761253e-05,-4.932207230012864e-05,0.0,0.0,0.0
1.790180613170378e-05,-4.936690675094724e-05,0.0,0.0,0.0
1.8398208339931443e-05,-4.937643461744301e-05,0.0,0.0,0.0
1.8485390683053993e-05,-4.965727566741407e-05,0.0,0.0,0.0
1.8122451365343295e-05,-4.968667417415418e-05,0.0,0.0,0.0
1.8130078387912363e-05,-4.9366746679879725e-05,0.0,0.0,0.0
1.8127688235836104e-05,-4.904601883026771e-05,0.0,0.0,0.0
1.7849417417892255e-05,-4.898156112176366e-05,0.0,0.0,0.0
1.8023301890934817e-05,-4.93047118652612e-05,0.0,0.0,0.0
1.844474536483176e-05,-4.8848236474441364e-05,0.0,0.0,0.0
1.8444758097757585e-05,-4.860540138906799e-05,0.0,0.0,0.0
1.8242728401673958e-05,-4.8734789743321016e-05,0.0,0.0,0.0
1.7871192540042102e-05,-4.840541441808455e-05,0.0,0.0,0.0
1.7583390217623673e-05,-4.8357269406551495e-05,0.0,0.0,0.0
1.7639749785303138e-05,-4.832876948057674e-05,0.0,0.0,0.0
1.781944592949003e-05,-4.815683496417478e-05,0.0,0.0,0.0
1.8133587218471803e-05,-4.780866947839968e-05,0.0,0.0,0.0
1.849284308264032e-05,-4.7842011554166675e-05,0.0,0.0,0.0
1.7963808204513043e-05,-4.800939859705977e-05,0.0,0.0,0.0
1.7615338947507553e-05,-4.814813655684702e-05,0.0,0.0,0.0
1.778457226464525e-05,-4.8206649807980284e-05,0.0,0.0,0.0
1.7795444364310242e-05,-4.800542592420243e-05,0.0,0.0,0.0
1.779187732608989e-05,-4.812221595784649e-05,0.0,0.0,0.0
1.7683189071249217e-05,-4.8433914344059303e-05,0.0,0.0,0.0
1.738048013066873e-05,-4.867267853114754e-05,0.0,0.0,0.0
1.7290272808168083e-05,-4.876406819676049e-05,0.0,0.0,0.0
1.782475010259077e-05,-4.89135054522194e-05,0.0,0.0,0.0
1.8072476450470276e-05,-4.8721871280577034e-05,0.0,0.0,0.0
1.78683185367845e-05,-4.86377757624723e-05,0.0,0.0,0.0
1.8074450053973123e-05,-4.879352491116151e-05,0.0,0.0,0.0
1.8142325643566437e-05,-4.9218688218388706e-05,0.0,0.0,0.0
1.779047306627035e-05,-4.91319369757548e-05,0.0,0.0,0.0
1.7793485312722623e-05,-4.891204662271775e-05,0.0,0.0,0.0
1.7503631170256995e-05,-4.909393101115711e-05,0.0,0.0,0.0
1.7139655028586276e-05,-4.8946079914458096e-05,0.0,0.0,0.0
1.7382519217790104e-05,-4.932950105285272e-05,0.0,0.0,0.0
1.7749378457665443e-05,-4.959825309924781e-05,0.0,0.0,0.0
1.8036278561339714e-05,-4.995850395062007e-05,0.0,0.0,0.0
1.8389202523394488e-05,-5.002588659408502e-05,0.0,0.0,0.0
1.8242320948047563e-05,-4.978539436706342e-05,0.0,0.0,0.0
1.8103679394698702e-05,-4.946262561134063e-05,0.0,0.0,0.0
1.774459087755531e-05,-4.95342756039463e-05,0.0,0.0,0.0
1.7600459614186548e-05,-4.9523536290507764e-05,0.0,0.0,0.0
1.820449688239023e-05,-4.930641807732172e-05,0.0,0.0,0.0
1.843714744609315e-05,-4.9214962928090245e-05,0.0,0.0,0.0
1.8006181562668644e-05,-4.913330121780746e-05,0.0,0.0,0.0
1.7882313841255382e-05,-4.9233502068091184e-05,0.0,0.0,0.0
1.8334398191655055e-05,-4.884606823907234e-05,0.0,0.0,0.0
1.825579056458082e-05,-4.870471457252279e-05,0.0,0.0,0.0
1.845119913923554e-05,-4.865277878707275e-05,0.0,0.0,0.0
1.8264303434989415e-05,-4.869519761996344e-05,0.0,0.0,0.0
1.77124729816569e-05,-4.866158633376472e-05,0.0,0.0,0.0
1.754891127347946e-05,-4.868711403105408e-05,0.0,0.0,0.0
1.7760941773303784e-05,-4.8668942326912656e-05,0.0,0.0,0.0
1.782100116543006e-05,-4.868048199568875e-05,0.0,0.0,0.0
1.7818376363720745e-05,-4.8568508645985276e-05,0.0,0.0,0.0
1.8120368622476235e-05,-4.8067788156913593e-05,0.0,0.0,0.0
1.81005489139352e-05,-4.798565714736469e-05,0.0,0.0,0.0
1.7828049749368802e-05,-4.832128979614936e-05,0.0,0.0,0.0
1.7760110495146364e-05,-4.804832860827446e-05,0.0,0.0,0.0
1.7532856873003766e-05,-4.8539186536800116e-05,0.0,0.0,0.0
1.7114485672209412e-05,-4.8795034672366455e-05,0.0,0.0,0.0
1.7403772289981134e-05,-4.910611460218206e-05,0.0,0.0,0.0
1.722140223137103e-05,-4.9247810238739476e-05,0.0,0.0,0.0
1.7316595403826796e-05,-4.909558265353553e-05,0.0,0.0,0.0
1.7291098629357293e-05,-4.950822039972991e-05,0.0,0.0,0.0
1.703894668025896e-05,-4.8993890231940895e-05,0.0,0.0,0.0
1.718782732496038e-05,-4.909432755084708e-05,0.0,0.0,0.0
1.7470467355451547e-05,-4.91520477226004e-05,0.0,0.0,0.0
1.767244430084247e-05,-4.921485378872603e-05,0.0,0.0,0.0
1.7388485503033735e-05,-4.8960340791381896e-05,0.0,0.0,0.0
1.7678859876468778e-05,-4.921598520013504e-05,0.0,0.0,0.0
1.7598247723071836e-05,-4.949324284098111e-05,0.0,0.0,0.0
1.777625766408164e-05,-4.953760071657598e-05,0.0,0.0,0.0
1.7972026398638263e-05,-4.9357164243701845e-05,0.0,0.0,0.0
1.780714956112206e-05,-4.932965020998381e-05,0.0,0.0,0.0
1.7900969396578148e-05,-4.937249832437374e-05,0.0,0.0,0.0
1.8011425709119067e-05,-4.9423986638430506e-05,0.0,0.0,0.0
1.7916243450599723e-05,-4.9797556130215526e-05,0.0,0.0,0.0
1.8165414076065645e-05,-4.9892136303242296e-05,0.0,0.0,0.0
1.841129233071115e-05,-4.96734501211904e-05,0.0,0.0,0.0
1.8194550648331642e-05,-4.9375801609130576e-05,0.0,0.0,0.0
1.8381892004981637e-05,-4.963700848747976e-05,0.0,0.0,0.0
1.8181131963501684e-05,-4.936948971590027e-05,0.0,0.0,0.0
1.808500019251369e-05,-4.933302625431679e-05,0.0,0.0,0.0
1.8161124899052083e-05,-4.931395233143121e-05,0.0,0.0,0.0
1.8102346075465903e-05,-4.875595186604187e-05,0.0,0.0,0.0
1.843335667217616e-05,-4.860584522248246e-05,0.0,0.0,0.0
1.8215308955404907e-05,-4.901427018921822e-05,0.0,0.0,0.0
1.8063477909890935e-05,-4.926273686578497e-05,0.0,0.0,0.0
1.8438826373312622e-05,-4.888479452347383e-05,0.0,0.0,0.0
1.8446562535245903e-05,-4.8818903451319784e-05,0.0,0.0,0.0
1.8478061974747106e-05,-4.88900113850832e-05,0.0,0.0,0.0
1.800432801246643e-05,-4.8560727009316906e-05,0.0,0.0,0.0
1.797263030312024e-05,-4.8768728447612375e-05,0.0,0.0,0.0
1.7768430552678183e-05,-4.8200505261775106e-05,0.0,0.0,0.0
1.777283068804536e-05,-4.822034316021018e-05,0.0,0.0,0.0
1.8204707885161042e-05,-4.815830470761284e-05,0.0,0.0,0.0
1.7895041310111992e-05,-4.833098137169145e-05,0.0,0.0,0.0
1.7837162886280566e-05,-4.838568202103488e-05,0.0,0.0,0.0
1.7906062566908076e-05,-4.812065890291706e-05,0.0,0.0,0.0
1.8013251974480227e-05,-4.8372217861469835e-05,0.0,0.0,0.0
1.7781303540687077e-05,-4.843640635954216e-05,0.0,0.0,0.0
1.7796804968384095e-05,-4.869904660154134e-05,0.0,0.0,0.0
1.768582296790555e-05,-4.8759447963675484e-05,0.0,0.0,0.0
1.7371776266372763e-05,-4.901975262328051e-05,0.0,0.0,0.0
1.7133554138126783e-05,-4.8917383537627757e-05,0.0,0.0,0.0
1.7180365830427036e-05,-4.870898919762112e-05,0.0,0.0,0.0
1.7574500816408545e-05,-4.864611764787696e-05,0.0,0.0,0.0
1.8075439584208652e-05,-4.8703768698032945e-05,0.0,0.0,0.0
1.8132481272914447e-05,-4.873663419857621e-05,0.0,0.0,0.0
1.7784892406780273e-05,-4.9299036618322134e-05,0.0,0.0,0.0
1.7799728084355593e-05,-4.936713230563328e-05,0.0,0.0,0.0
1.778407568053808e-05,-4.902011642116122e-05,0.0,0.0,0.0
1.779990634531714e-05,-4.9291342293145135e-05,0.0,0.0,0.0
1.7784432202461176e-05,-4.9672467866912484e-05,0.0,0.0,0.0
1.753323886077851e-05,-4.968036591890268e-05,0.0,0.0,0.0
1.7415437469026074e-05,-4.9430418584961444e-05,0.0,0.0,0.0
1.773532130755484e-05,-4.980427911505103e-05,0.0,0.0,0.0
1.7791422578739002e-05,-5.01012327731587e-05,0.0,0.0,0.0
1.779176454874687e-05,-4.9951780965784565e-05,0.0,0.0,0.0
1.7793105143937282e-05,-5.007291110814549e-05,0.0,0.0,0.0
1.7992202629102394e-05,-4.957319106324576e-05,0.0,0.0,0.0
1.814485585782677e-05,-4.915818863082677e-05,0.0,0.0,0.0
1.7931666661752388e-05,-4.882246503257193e-05,0.0,0.0,0.0
1.7967860912904143e-05,-4.867133611696772e-05,0.0,0.0,0.0
1.8286149497726e-05,-4.868467294727452e-05,0.0,0.0,0.0
1.8317787180421874e-05,-4.881395216216333e-05,0.0,0.0,0.0
1.8126182112609968e-05,-4.888510375167243e-05,0.0,0.0,0.0
1.8002005162998103e-05,-4.866850940743461e-05,0.0,0.0,0.0
1.7798522094381042e-05,-4.8685968067729846e-05,0.0,0.0,0.0
1.7680556993582286e-05,-4.8665155190974474e-05,0.0,0.0,0.0
1.7475560525781475e-05,-4.86884055135306e-05,0.0,0.0,0.0
1.7440363080822863e-05,-4.866354720434174e-05,0.0,0.0,0.0
1.7543776266393252e-05,-4.854038343182765e-05,0.0,0.0,0.0
1.7756314264261164e-05,-4.804257696378045e-05,0.0,0.0,0.0
1.7874795958050527e-05,-4.8027621232904494e-05,0.0,0.0,0.0
1.8071628801408224e-05,-4.8290185077348724e-05,0.0,0.0,0.0
1.814218921936117e-05,-4.8048674216261134e-05,0.0,0.0,0.0
1.775040254869964e-05,-4.794486449100077e-05,0.0,0.0,0.0
1.7201678929268382e-05,-4.7745030315127224e-05,0.0,0.0,0.0
1.7053918782039545e-05,-4.846577940043062e-05,0.0,0.0,0.0
1.7727505110087804e-05,-4.885418093181215e-05,0.0,0.0,0.0
1.78250738827046e-05,-4.852805068367161e-05,0.0,0.0,0.0
1.7506165022496134e-05,-4.9308117013424635e-05,0.0,0.0,0.0
1.7697955627227202e-05,-4.931273724650964e-05,0.0,0.0,0.0
1.7586093235877343e-05,-4.937137782690115e-05,0.0,0.0,0.0
1.763402542565018e-05,-4.9110487452708185e-05,0.0,0.0,0.0
1.784869164112024e-05,-4.878345862380229e-05,0.0,0.0,0.0
1.7949876564671285e-05,-4.867793177254498e-05,0.0,0.0,0.0
1.7984080841415562e-05,-4.88601035613101e-05,0.0,0.0,0.0
1.8106677089235745e-05,-4.885489761363715e-05,0.0,0.0,0.0
1.8173283024225384e-05,-4.8642774345353246e-05,0.0,0.0,0.0
1.8065587937599048e-05,-4.8709523980505764e-05,0.0,0.0,0.0
1.8348593584960327e-05,-4.894152516499162e-05,0.0,0.0,0.0
1.7970307453651913e-05,-4.951319715473801e-05,0.0,0.0,0.0
1.7805750758270733e-05,-4.977959179086611e-05,0.0,0.0,0.0
1.790493661246728e-05,-5.003960905014537e-05,0.0,0.0,0.0
1.811174297472462e-05,-4.9999711336568e-05,0.0,0.0,0.0
1.8052791347145103e-05,-5.0037040637107566e-05,0.0,0.0,0.0
1.7871403542812914e-05,-4.983250983059406e-05,0.0,0.0,0.0
1.7967739040614106e-05,-4.9480830057291314e-05,0.0,0.0,0.0
1.7702224795357324e-05,-4.960762817063369e-05,0.0,0.0,0.0
1.833646274462808e-05,-4.969442306901328e-05,0.0,0.0,0.0
1.852339664765168e-05,-4.932603769702837e-05,0.0,0.0,0.0
1.8113863916369155e-05,-4.9332498747389764e-05,0.0,0.0,0.0
1.843592144723516e-05,-4.903834269498475e-05,0.0,0.0,0.0
1.8181328414357267e-05,-4.89874291815795e-05,0.0,0.0,0.0
1.77892161445925e-05,-4.903484295937233e-05,0.0,0.0,0.0
1.7799497072701342e-05,-4.899068517261185e-05,0.0,0.0,0.0
1.7781008864403702e-05,-4.903179797111079e-05,0.0,0.0,0.0
1.8060791262541898e-05,-4.899355553789064e-05,0.0,0.0,0.0
1.789905218174681e-05,-4.878447361988947e-05,0.0,0.0,0.0
1.7754364307620563e-05,-4.863264985033311e-05,0.0,0.0,0.0
1.7596754332771525e-05,-4.8714027798268944e-05,0.0,0.0,0.0
1.7840582586359233e-05,-4.864390939474106e-05,0.0,0.0,0.0
1.8396232917439193e-05,-4.870375414611772e-05,0.0,0.0,0.0
1.823501406761352e-05,-4.8461821279488504e-05,0.0,0.0,0.0
1.8323922631680034e-05,-4.8348396376241e-05,0.0,0.0,0.0
1.81223003892228e-05,-4.816419823328033e-05,0.0,0.0,0.0
1.7620182916289195e-05,-4.8164656618610024e-05,0.0,0.0,0.0
1.7617385310586542e-05,-4.863963840762153e-05,0.0,0.0,0.0
1.763857653713785e-05,-4.8730224079918116e-05,0.0,0.0,0.0
1.760480154189281e-05,-4.848390744882636e-05,0.0,0.0,0.0
1.7646283595240675e-05,-4.865341543336399e-05,0.0,0.0,0.0
1.738843093335163e-05,-4.8802889068610966e-05,0.0,0.0,0.0
1.7197427951032296e-05,-4.8978781705955043e-05,0.0,0.0,0.0
1.753965625539422e-05,-4.9125810619443655e-05,0.0,0.0,0.0
1.777113175194245e-05,-4.922655352856964e-05,0.0,0.0,0.0
1.7873784599942155e-05,-4.9013193347491324e-05,0.0,0.0,0.0
1.80308343260549e-05,-4.870318662142381e-05,0.0,0.0,0.0
1.7903115804074332e-05,-4.900142448605038e-05,0.0,0.0,0.0
1.8035314496955834e-05,-4.9022048187907785e-05,0.0,0.0,0.0
1.8204294974566437e-05,-4.898115366813727e-05,0.0,0.0,0.0
1.8065513359033503e-05,-4.872720455750823e-05,0.0,0.0,0.0
1.7889809896587394e-05,-4.891948265139945e-05,0.0,0.0,0.0
1.7713326087687165e-05,-4.9367095925845206e-05,0.0,0.0,0.0
1.7853610188467428e-05,-4.931945295538753e-05,0.0,0.0,0.0
1.7745629520504735e-05,-4.9625959945842624e-05,0.0,0.0,0.0
1.782501203706488e-05,-4.969610017724335e-05,0.0,0.0,0.0
1.8238657503388822e-05,-4.9671689339447767e-05,0.0,0.0,0.0
1.8300244846614078e-05,-4.947072739014402e-05,0.0,0.0,0.0
1.785057429515291e-05,-4.931678995490074e-05,0.0,0.0,0.0
1.8224480299977586e-05,-4.937403355143033e-05,0.0,0.0,0.0
1.847688326961361e-05,-4.894258745480329e-05,0.0,0.0,0.0
1.84442524187034e-05,-4.8672372940927744e-05,0.0,0.0,0.0
1.8316843124921434e-05,-4.867950701736845e-05,0.0,0.0,0.0
1.8096310668624938e-05,-4.867365714744665e-05,0.0,0.0,0.0
1.8160371837439016e-05,-4.8976140533341095e-05,0.0,0.0,0.0
1.8094633560394868e-05,-4.934191019856371e-05,0.0,0.0,0.0
1.8160515537601896e-05,-4.90976199216675e-05,0.0,0.0,0.0
1.809581954148598e-05,-4.8689082177588716e-05,0.0,0.0,0.0
1.8051849110634066e-05,-4.8665253416402265e-05,0.0,0.0,0.0
1.7778744222596288e-05,-4.868568430538289e-05,0.0,0.0,0.0
1.7805301467888057e-05,-4.866836025030352e-05,0.0,0.0,0.0
1.777918623702135e-05,-4.845952571486123e-05,0.0,0.0,0.0
1.786783650459256e-05,-4.780358722200617e-05,0.0,0.0,0.0
1.8035021639661863e-05,-4.791590981767513e-05,0.0,0.0,0.0
1.785783388186246e-05,-4.8080208216561005e-05,0.0,0.0,0.0
1.7736476365826093e-05,-4.797383735422045e-05,0.0,0.0,0.0
1.7838005078374408e-05,-4.8332502046832815e-05,0.0,0.0,0.0
1.7754862710717134e-05,-4.8037738451967016e-05,0.0,0.0,0.0
1.7246791685465723e-05,-4.8549147322773933e-05,0.0,0.0,0.0
1.701678047538735e-05,-4.850921322940849e-05,0.0,0.0,0.0
1.720425825624261e-05,-4.847544551012106e-05,0.0,0.0,0.0
1.7055155694833957e-05,-4.882072244072333e-05,0.0,0.0,0.0
1.7659078366705216e-05,-4.8801175580592826e-05,0.0,0.0,0.0
1.7578753613634035e-05,-4.890323543804698e-05,0.0,0.0,0.0
1.740788866300136e-05,-4.855119186686352e-05,0.0,0.0,0.0
1.7715819922159426e-05,-4.898798215435818e-05,0.0,0.0,0.0
1.7967031453736126e-05,-4.895396705251187e-05,0.0,0.0,0.0
1.7978782125283033e-05,-4.886124952463433e-05,0.0,0.0,0.0
1.7740483599482104e-05,-4.900099884252995e-05,0.0,0.0,0.0
1.783916013664566e-05,-4.921520667267032e-05,0.0,0.0,0.0
1.790876194718294e-05,-4.89854792249389e-05,0.0,0.0,0.0
1.8018554328591563e-05,-4.9172980652656406e-05,0.0,0.0,0.0
1.775902637746185e-05,-4.9345595471095294e-05,0.0,0.0,0.0
1.7820617358665913e-05,-4.9467267672298476e-05,0.0,0.0,0.0
1.788460031093564e-05,-4.9690890591591597e-05,0.0,0.0,0.0
1.81360992428381e-05,-4.977459320798516e-05,0.0,0.0,0.0
1.792998955352232e-05,-5.002480247640051e-05,0.0,0.0,0.0
1.7583073713467456e-05,-4.983651888323948e-05,0.0,0.0,0.0
1.7735666915541515e-05,-4.9409212806494907e-05,0.0,0.0,0.0
1.796603282855358e-05,-4.9288864829577506e-05,0.0,0.0,0.0
1.8262455341755413e-05,-4.9403148295823485e-05,0.0,0.0,0.0
1.7976284652831964e-05,-4.925350003759377e-05,0.0,0.0,0.0
1.7943653801921755e-05,-4.9094676796812564e-05,0.0,0.0,0.0
1.7955020666704513e-05,-4.89178673888091e-05,0.0,0.0,0.0
1.7659827790339477e-05,-4.8781501391204074e-05,0.0,0.0,0.0
1.789664020179771e-05,-4.887377508566715e-05,0.0,0.0,0.0
1.771189818100538e-05,-4.9128160753753036e-05,0.0,0.0,0.0
1.8116408682544716e-05,-4.8916059313341975e-05,0.0,0.0,0.0
1.8122518667951226e-05,-4.8834124754648656e-05,0.0,0.0,0.0
1.8122307665180415e-05,-4.8584621254121885e-05,0.0,0.0,0.0
1.814192182791885e-05,-4.874755904893391e-05,0.0,0.0,0.0
1.7883054169942625e-05,-4.862326386501081e-05,0.0,0.0,0.0
1.8010485291597433e-05,-4.828767487197183e-05,0.0,0.0,0.0
1.8131966498913243e-05,-4.794669075636193e-05,0.0,0.0,0.0
1.8324188204132952e-05,-4.804448690265417e-05,0.0,0.0,0.0
1.8462054867995903e-05,-4.816228829440661e-05,0.0,0.0,0.0
1.7962245692615397e-05,-4.852803249377757e-05,0.0,0.0,0.0
1.7108008250943385e-05,-4.883644942310639e-05,0.0,0.0,0.0
1.711136610538233e-05,-4.885339512838982e-05,0.0,0.0,0.0
1.7421736629330553e-05,-4.869693657383323e-05,0.0,0.0,0.0
1.761912790243514e-05,-4.877621177001856e-05,0.0,0.0,0.0
1.774837619450409e-05,-4.903635272057727e-05,0.0,0.0,0.0
1.762082138156984e-05,-4.887617615167983e-05,0.0,0.0,0.0
1.7303933418588713e-05,-4.8916183004621416e-05,0.0,0.0,0.0
1.767901994753629e-05,-4.909148992737755e-05,0.0,0.0,0.0
1.7425723854103126e-05,-4.8949004849419e-05,0.0,0.0,0.0
1.7174153981613927e-05,-4.9186204705620185e-05,0.0,0.0,0.0
1.7541084162076004e-05,-4.948896821588278e-05,0.0,0.0,0.0
1.8083535906043835e-05,-4.922542575513944e-05,0.0,0.0,0.0
1.8164337234338745e-05,-4.948395871906541e-05,0.0,0.0,0.0
1.807631088013295e-05,-4.9557082093087956e-05,0.0,0.0,0.0
1.7858552382676862e-05,-4.978829747415148e-05,0.0,0.0,0.0
1.7736569134285673e-05,-4.988520959159359e-05,0.0,0.0,0.0
1.7837741324910894e-05,-5.012757173972204e-05,0.0,0.0,0.0
1.8020658899331465e-05,-4.966768028680235e-05,0.0,0.0,0.0
1.8192022253060713e-05,-4.996902498533018e-05,0.0,0.0,0.0
1.7830881915870123e-05,-5.003249680157751e-05,0.0,0.0,0.0
1.803983104764484e-05,-4.999969314667396e-05,0.0,0.0,0.0
1.8142913177143782e-05,-4.982008977094665e-05,0.0,0.0,0.0
1.7900183593155816e-05,-4.963383253198117e-05,0.0,0.0,0.0
1.7788370314519852e-05,-4.973245449946262e-05,0.0,0.0,0.0
1.798488483473193e-05,-4.944379179505631e-05,0.0,0.0,0.0
1.8319997252547182e-05,-4.938327765557915e-05,0.0,0.0,0.0
1.8460536011843942e-05,-4.931177682010457e-05,0.0,0.0,0.0
1.8307393474970013e-05,-4.922380321659148e-05,0.0,0.0,0.0
1.8271517546963878e-05,-4.897582402918488e-05,0.0,0.0,0.0
1.8327851648791693e-05,-4.918478225590661e-05,0.0,0.0,0.0
1.8003171135205775e-05,-4.9309641326544806e-05,0.0,0.0,0.0
1.7914817362907343e-05,-4.938292477163486e-05,0.0,0.0,0.0
1.8004586308961734e-05,-4.931537841912359e-05,0.0,0.0,0.0
1.7821439541876316e-05,-4.928119960823096e-05,0.0,0.0,0.0
1.7767335521057248e-05,-4.891947173746303e-05,0.0,0.0,0.0
1.788679583114572e-05,-4.870527845923789e-05,0.0,0.0,0.0
1.8149843526771292e-05,-4.8523575969738886e-05,0.0,0.0,0.0
1.841591438278556e-05,-4.8189798690145835e-05,0.0,0.0,0.0
1.8071275917463936e-05,-4.854606595472433e-05,0.0,0.0,0.0
1.7501015463494696e-05,-4.8785514081828296e-05,0.0,0.0,0.0
1.7419748473912477e-05,-4.858618194703013e-05,0.0,0.0,0.0
1.7485608623246662e-05,-4.8749025154393166e-05,0.0,0.0,0.0
1.7433521861676127e-05,-4.861917477683164e-05,0.0,0.0,0.0
1.719688043522183e-05,-4.871938654105179e-05,0.0,0.0,0.0
1.707081901258789e-05,-4.864559741690755e-05,0.0,0.0,0.0
1.7159823983092792e-05,-4.8951271310215816e-05,0.0,0.0,0.0
1.7335387383354828e-05,-4.878825711784884e-05,0.0,0.0,0.0
1.7739723261911422e-05,-4.8624613555148244e-05,0.0,0.0,0.0
1.777884244802408e-05,-4.872552744927816e-05,0.0,0.0,0.0
1.7586331523489207e-05,-4.884236113866791e-05,0.0,0.0,0.0
1.7840800865087658e-05,-4.927568443235941e-05,0.0,0.0,0.0
1.816900294215884e-05,-4.930659633828327e-05,0.0,0.0,0.0
1.8097816791851074e-05,-4.9385471356799826e-05,0.0,0.0,0.0
1.8147786249755882e-05,-4.965352491126396e-05,0.0,0.0,0.0
1.7956519513973035e-05,-4.989980152458884e-05,0.0,0.0,0.0
1.7795384337659925e-05,-4.964714025845751e-05,0.0,0.0,0.0
1.7655815099715255e-05,-4.971417729393579e-05,0.0,0.0,0.0
1.758292091835756e-05,-4.965766129316762e-05,0.0,0.0,0.0
1.790534042811487e-05,-4.9587357352720574e-05,0.0,0.0,0.0
1.811505171644967e-05,-4.944948886986822e-05,0.0,0.0,0.0
1.7950686014955863e-05,-4.967018685420044e-05,0.0,0.0,0.0
1.747819987940602e-05,-4.969651854480617e-05,0.0,0.0,0.0
1.758929829520639e-05,-4.9521408072905615e-05,0.0,0.0,0.0
1.815181167330593e-05,-4.913939847028814e-05,0.0,0.0,0.0
1.8471044313628227e-05,-4.9263133405474946e-05,0.0,0.0,0.0
1.8412485587759875e-05,-4.9420847062719986e-05,0.0,0.0,0.0
1.8139811800210737e-05,-4.928488124278374e-05,0.0,0.0,0.0
1.7770751583157107e-05,-4.935850665788166e-05,0.0,0.0,0.0
1.7498918168712407e-05,-4.8715275624999776e-05,0.0,0.0,0.0
1.7706923244986683e-05,-4.86424432892818e-05,0.0,0.0,0.0
1.7863912944449112e-05,-4.870536577072926e-05,0.0,0.0,0.0
1.746640191413462e-05,-4.8651556426193565e-05,0.0,0.0,0.0
1.772575342329219e-05,-4.86970238853246e-05,0.0,0.0,0.0
1.781331593520008e-05,-4.8414549382869154e-05,0.0,0.0,0.0
1.8239901692140847e-05,-4.8560617869952694e-05,0.0,0.0,0.0
1.808461092878133e-05,-4.871294731856324e-05,0.0,0.0,0.0
1.7691199900582433e-05,-4.821996117243543e-05,0.0,0.0,0.0
1.7877135178423487e-05,-4.839905523112975e-05,0.0,0.0,0.0
1.7721062249620445e-05,-4.8330937715945765e-05,0.0,0.0,0.0
1.7850268704933114e-05,-4.831300975638442e-05,0.0,0.0,0.0
1.7404798200004734e-05,-4.873564466834068e-05,0.0,0.0,0.0
1.71483370650094e-05,-4.8628728109179065e-05,0.0,0.0,0.0
1.7248732547159307e-05,-4.871331839240156e-05,0.0,0.0,0.0
1.7330721675534733e-05,-4.8786780098453164e-05,0.0,0.0,0.0
1.7118500181823038e-05,-4.915381578030065e-05,0.0,0.0,0.0
1.7118994946940802e-05,-4.909721246804111e-05,0.0,0.0,0.0
1.712533958198037e-05,-4.8922927817329764e-05,0.0,0.0,0.0
1.711342338239774e-05,-4.910056304652244e-05,0.0,0.0,0.0
1.712976154522039e-05,-4.884222289547324e-05,0.0,0.0,0.0
1.718448220344726e-05,-4.8999696446117014e-05,0.0,0.0,0.0
1.7506406948086806e-05,-4.9263959226664156e-05,0.0,0.0,0.0
1.7825876057031564e-05,-4.875450031249784e-05,0.0,0.0,0.0
1.8114486010745168e-05,-4.899603300145827e-05,0.0,0.0,0.0
1.8105023627867922e-05,-4.936686309520155e-05,0.0,0.0,0.0
1.780352249625139e-05,-4.9327281885780394e-05,0.0,0.0,0.0
1.7468546502641402e-05,-4.936869299854152e-05,0.0,0.0,0.0
1.744746623444371e-05,-4.96136890433263e-05,0.0,0.0,0.0
1.7185839169542305e-05,-5.0021757488138974e-05,0.0,0.0,0.0
1.7610924260225147e-05,-5.000243618269451e-05,0.0,0.0,0.0
1.814942152122967e-05,-5.0034828745992854e-05,0.0,0.0,0.0
1.7830667275120504e-05,-5.00044334330596e-05,0.0,0.0,0.0
1.780531783879269e-05,-4.9798443797044456e-05,0.0,0.0,0.0
1.778399382601492e-05,-4.964699473930523e-05,0.0,0.0,0.0
1.779561171133537e-05,-4.9714082706486806e-05,0.0,0.0,0.0
1.79941544047324e-05,-4.945591717842035e-05,0.0,0.0,0.0
1.8330621969653293e-05,-4.89707563247066e-05,0.0,0.0,0.0
1.8287248167325743e-05,-4.883074143435806e-05,0.0,0.0,0.0
1.794299896573648e-05,-4.921041545458138e-05,0.0,0.0,0.0
1.7961569028557278e-05,-4.917129990644753e-05,0.0,0.0,0.0
1.796935794118326e-05,-4.902240470983088e-05,0.0,0.0,0.0
1.808083470677957e-05,-4.886745955445804e-05,0.0,0.0,0.0
1.8184775399276987e-05,-4.881190034211613e-05,0.0,0.0,0.0
1.7831602235673927e-05,-4.899905252386816e-05,0.0,0.0,0.0
1.78625214175554e-05,-4.89141239086166e-05,0.0,0.0,0.0
1.8048791389446706e-05,-4.8591289669275284e-05,0.0,0.0,0.0
1.7880418454296887e-05,-4.8262339987559244e-05,0.0,0.0,0.0
1.8029155398835428e-05,-4.809802339877933e-05,0.0,0.0,0.0
1.7964923245017417e-05,-4.8233017878374085e-05,0.0,0.0,0.0
1.8368235032539815e-05,-4.801985778613016e-05,0.0,0.0,0.0
1.8500908481655642e-05,-4.772645843331702e-05,0.0,0.0,0.0
1.8064638425130397e-05,-4.832675404031761e-05,0.0,0.0,0.0
1.785504719009623e-05,-4.867555253440514e-05,0.0,0.0,0.0
1.774075280991383e-05,-4.8678099119570106e-05,0.0,0.0,0.0
1.725859328871593e-05,-4.867364259553142e-05,0.0,0.0,0.0
1.6730256902519614e-05,-4.867949610343203e-05,0.0,0.0,0.0
1.71053488884354e-05,-4.893856748822145e-05,0.0,0.0,0.0
1.7113399735535495e-05,-4.8794947360875085e-05,0.0,0.0,0.0
1.7611519069760107e-05,-4.8857255023904145e-05,0.0,0.0,0.0
1.7850503354566172e-05,-4.909294148092158e-05,0.0,0.0,0.0
1.7739155737217516e-05,-4.8945206799544394e-05,0.0,0.0,0.0
1.7414007743354887e-05,-4.906592221232131e-05,0.0,0.0,0.0
1.744698965921998e-05,-4.896955215372145e-05,0.0,0.0,0.0
1.8078975699609146e-05,-4.9235553888138384e-05,0.0,0.0,0.0
1.7878124708659016e-05,-4.933582022204064e-05,0.0,0.0,0.0
1.784079722710885e-05,-4.952374001732096e-05,0.0,0.0,0.0
1.759325823513791e-05,-4.984666156815365e-05,0.0,0.0,0.0
1.7634578398428857e-05,-5.0013200961984694e-05,0.0,0.0,0.0
1.7767873941920698e-05,-4.9889862566487864e-05,0.0,0.0,0.0
1.7809563360060565e-05,-4.954958058078773e-05,0.0,0.0,0.0
1.7780323105398566e-05,-4.936513869324699e-05,0.0,0.0,0.0
1.790493115549907e-05,-4.9329359171679243e-05,0.0,0.0,0.0
1.801453072403092e-05,-4.946213448420167e-05,0.0,0.0,0.0
1.7822168956627138e-05,-4.973098111804575e-05,0.0,0.0,0.0
1.784423875506036e-05,-4.98826484545134e-05,0.0,0.0,0.0
1.8053886378766038e-05,-4.925802204525098e-05,0.0,0.0,0.0
1.7886066416394897e-05,-4.880940105067566e-05,0.0,0.0,0.0
1.8014970919466577e-05,-4.9259095248999074e-05,0.0,0.0,0.0
1.7889955415739678e-05,-4.9392489017918706e-05,0.0,0.0,0.0
1.7685337297734804e-05,-4.896361497230828e-05,0.0,0.0,0.0
1.75720160768833e-05,-4.874099249718711e-05,0.0,0.0,0.0
1.764495209499728e-05,-4.862201603827998e-05,0.0,0.0,0.0
1.7915868738782592e-05,-4.872097269981168e-05,0.0,0.0,0.0
1.7423421013518237e-05,-4.810856262338348e-05,0.0,0.0,0.0
1.7760727132554166e-05,-4.8474565119249746e-05,0.0,0.0,0.0
1.778544537955895e-05,-4.87749493913725e-05,0.0,0.0,0.0
1.7793572624213994e-05,-4.859200635110028e-05,0.0,0.0,0.0
1.7794800442061387e-05,-4.830085163121112e-05,0.0,0.0,0.0
1.7998247130890377e-05,-4.8115784011315554e-05,0.0,0.0,0.0
1.7953041606233455e-05,-4.8442445404361933e-05,0.0,0.0,0.0
1.7559261323185638e-05,-4.8449150199303403e-05,0.0,0.0,0.0
1.7302312699030153e-05,-4.8572597734164447e-05,0.0,0.0,0.0
1.7087211745092645e-05,-4.84427873743698e-05,0.0,0.0,0.0
1.715115286060609e-05,-4.873227226198651e-05,0.0,0.0,0.0
1.7390701032127254e-05,-4.863572758040391e-05,0.0,0.0,0.0
1.753628566802945e-05,-4.897992039332166e-05,0.0,0.0,0.0
1.711316690489184e-05,-4.919366983813234e-05,0.0,0.0,0.0
1.7243877664441243e-05,-4.891906792181544e-05,0.0,0.0,0.0
1.733281897031702e-05,-4.878108302364126e-05,0.0,0.0,0.0
1.7150348867289722e-05,-4.889527554041706e-05,0.0,0.0,0.0
1.7265843780478463e-05,-4.871956116403453e-05,0.0,0.0,0.0
1.7843003661255352e-05,-4.863314825342968e-05,0.0,0.0,0.0
1.8187180103268474e-05,-4.8846195568330586e-05,0.0,0.0,0.0
1.83844385901466e-05,-4.919635102851316e-05,0.0,0.0,0.0
1.8182536223321222e-05,-4.908901610178873e-05,0.0,0.0,0.0
1.808042543416377e-05,-4.8670772230252624e-05,0.0,0.0,0.0
1.812562368286308e-05,-4.935232936986722e-05,0.0,0.0,0.0
1.750591218296904e-05,-4.9654627218842506e-05,0.0,0.0,0.0
1.7413976820535026e-05,-4.9995625886367634e-05,0.0,0.0,0.0
1.7768548786989413e-05,-4.9485646741231903e-05,0.0,0.0,0.0
1.7800077330321074e-05,-4.9255802878178656e-05,0.0,0.0,0.0
1.804000567062758e-05,-4.9424375902162865e-05,0.0,0.0,0.0
1.8409946278552525e-05,-4.9284437409369275e-05,0.0,0.0,0.0
1.8225504391011782e-05,-4.939903737977147e-05,0.0,0.0,0.0
1.788319968909491e-05,-4.930673094349913e-05,0.0,0.0,0.0
1.7788483091862872e-05,-4.937955236528069e-05,0.0,0.0,0.0
1.7997221220866777e-05,-4.93236439069733e-05,0.0,0.0,0.0
1.8139462554245256e-05,-4.936499317409471e-05,0.0,0.0,0.0
1.8118189473170787e-05,-4.93360566906631e-05,0.0,0.0,0.0
1.813526250771247e-05,-4.901421198155731e-05,0.0,0.0,0.0
1.8121932953363284e-05,-4.8664242058293894e-05,0.0,0.0,0.0
1.8280841686646454e-05,-4.8683192289900035e-05,0.0,0.0,0.0
1.8181948689743876e-05,-4.8673609853722155e-05,0.0,0.0,0.0
1.7806525647756644e-05,-4.867550524068065e-05,0.0,0.0,0.0
1.7896811186801642e-05,-4.86797871417366e-05,0.0,0.0,0.0
1.8019443814409897e-05,-4.8670670366846025e-05,0.0,0.0,0.0
1.7809485143516213e-05,-4.868343603448011e-05,0.0,0.0,0.0
1.786171196727082e-05,-4.8497910029254854e-05,0.0,0.0,0.0
1.804471503419336e-05,-4.81321731058415e-05,0.0,0.0,0.0
1.7824455426307395e-05,-4.826865188078955e-05,0.0,0.0,0.0
1.7711465261527337e-05,-4.834961146116257e-05,0.0,0.0,0.0
1.746856105455663e-05,-4.802624971489422e-05,0.0,0.0,0.0
1.711004733806476e-05,-4.8354806494899094e-05,0.0,0.0,0.0
1.7128528270404786e-05,-4.865336086368188e-05,0.0,0.0,0.0
1.7115045920945704e-05,-4.8695037548895925e-05,0.0,0.0,0.0
1.7124193618656136e-05,-4.894851372228004e-05,0.0,0.0,0.0
1.7118765754275955e-05,-4.8787929699756205e-05,0.0,0.0,0.0
1.7121039491030388e-05,-4.912778967991471e-05,0.0,0.0,0.0
1.7631869923206978e-05,-4.94815394631587e-05,0.0,0.0,0.0
1.7607921108719893e-05,-4.899433770333417e-05,0.0,0.0,0.0
1.7613130694371648e-05,-4.930437353323214e-05,0.0,0.0,0.0
1.765572596923448e-05,-4.932908632326871e-05,0.0,0.0,0.0
1.757795507728588e-05,-4.893153891316615e-05,0.0,0.0,0.0
1.8488281057216227e-05,-4.8841378884389997e-05,0.0,0.0,0.0
1.858092400652822e-05,-4.9050595407607034e-05,0.0,0.0,0.0
1.810764842957724e-05,-4.916777470498346e-05,0.0,0.0,0.0
1.7776756067178212e-05,-4.970917871105485e-05,0.0,0.0,0.0
1.7639538782532327e-05,-5.001839963370003e-05,0.0,0.0,0.0
1.7752718122210354e-05,-5.016100112698041e-05,0.0,0.0,0.0
1.8118798834620975e-05,-5.02275834151078e-05,0.0,0.0,0.0
1.8269063730258495e-05,-5.0008460675599054e-05,0.0,0.0,0.0
1.843723475758452e-05,-4.991707464796491e-05,0.0,0.0,0.0
1.8384882423561066e-05,-4.9783509894041345e-05,0.0,0.0,0.0
1.8114396880264394e-05,-4.982244718121365e-05,0.0,0.0,0.0
1.814342431316618e-05,-4.93851002829615e-05,0.0,0.0,0.0
1.8110400560544804e-05,-4.931974035571329e-05,0.0,0.0,0.0
1.8209768313681707e-05,-4.936759069096297e-05,0.0,0.0,0.0
1.8363029084866866e-05,-4.9281286919722334e-05,0.0,0.0,0.0
1.8159867977374233e-05,-4.909418566967361e-05,0.0,0.0,0.0
1.7825768736656755e-05,-4.9281999963568524e-05,0.0,0.0,0.0
1.8370226825936697e-05,-4.940011422149837e-05,0.0,0.0,0.0
1.7918231606017798e-05,-4.9306716391583905e-05,0.0,0.0,0.0
1.768587935657706e-05,-4.9091624532593414e-05,0.0,0.0,0.0
1.7603730157134123e-05,-4.867170355282724e-05,0.0,0.0,0.0
1.7612139345146716e-05,-4.8688434617361054e-05,0.0,0.0,0.0
1.7916194337885827e-05,-4.8159388825297356e-05,0.0,0.0,0.0
1.7936152289621532e-05,-4.843361602979712e-05,0.0,0.0,0.0
1.8235012248624116e-05,-4.8785641411086544e-05,0.0,0.0,0.0
1.8043516320176423e-05,-4.8359459469793364e-05,0.0,0.0,0.0
1.7978951291297562e-05,-4.818548768525943e-05,0.0,0.0,0.0
1.772789255483076e-05,-4.793941479874775e-05,0.0,0.0,0.0
1.802927363314666e-05,-4.844092109124176e-05,0.0,0.0,0.0
1.792805051081814e-05,-4.8656696890247986e-05,0.0,0.0,0.0
1.7791635400499217e-05,-4.868978066951968e-05,0.0,0.0,0.0
1.7800339264795184e-05,-4.882776556769386e-05,0.0,0.0,0.0
1.7777367247617804e-05,-4.9016405682777986e-05,0.0,0.0,0.0
1.7535050574224442e-05,-4.9150501581607386e-05,0.0,0.0,0.0
1.7363523511448875e-05,-4.921033178106882e-05,0.0,0.0,0.0
1.790758324204944e-05,-4.8916270316112787e-05,0.0,0.0,0.0
1.811221954994835e-05,-4.8665893700672314e-05,0.0,0.0,0.0
1.8145285139326006e-05,-4.878478284808807e-05,0.0,0.0,0.0
1.8023858501692303e-05,-4.889355841442011e-05,0.0,0.0,0.0
1.783327024895698e-05,-4.8804715333972126e-05,0.0,0.0,0.0
1.7817985280998982e-05,-4.893747245660052e-05,0.0,0.0,0.0
1.8186463421443477e-05,-4.9131187552120537e-05,0.0,0.0,0.0
1.834027534641791e-05,-4.92576727992855e-05,0.0,0.0,0.0
1.783206062100362e-05,-4.942532905261032e-05,0.0,0.0,0.0
1.7109399777837098e-05,-4.9281446990789846e-05,0.0,0.0,0.0
1.712931953079533e-05,-4.940338112646714e-05,0.0,0.0,0.0
1.7688711523078382e-05,-4.987590364180505e-05,0.0,0.0,0.0
1.8154447388951667e-05,-4.986198473488912e-05,0.0,0.0,0.0
1.836130650190171e-05,-4.98135996167548e-05,0.0,0.0,0.0
1.8266746337758377e-05,-4.990826710127294e-05,0.0,0.0,0.0
1.829569555411581e-05,-4.9291957111563534e-05,0.0,0.0,0.0
1.8550950699136592e-05,-4.9435831897426397e-05,0.0,0.0,0.0
1.839561628003139e-05,-4.928229100187309e-05,0.0,0.0,0.0
1.851369052019436e-05,-4.939306018059142e-05,0.0,0.0,0.0
1.802445149223786e-05,-4.8915571824181825e-05,0.0,0.0,0.0
1.7975793525693007e-05,-4.866024755756371e-05,0.0,0.0,0.0
1.833384703786578e-05,-4.869991244049743e-05,0.0,0.0,0.0
1.8272568922839127e-05,-4.8646626964909956e-05,0.0,0.0,0.0
1.7988140825764276e-05,-4.87105171487201e-05,0.0,0.0,0.0
1.7915926946443506e-05,-4.8638761654729024e-05,0.0,0.0,0.0
1.8014707166003063e-05,-4.871590863331221e-05,0.0,0.0,0.0
1.7898222722578794e-05,-4.8380348744103685e-05,0.0,0.0,0.0
1.825882645789534e-05,-4.806316792382859e-05,0.0,0.0,0.0
1.8435390302329324e-05,-4.794952837983146e-05,0.0,0.0,0.0
1.8395208826404996e-05,-4.8056816012831405e-05,0.0,0.0,0.0
1.811989386624191e-05,-4.804184936801903e-05,0.0,0.0,0.0
1.8062415620079264e-05,-4.828814053325914e-05,0.0,0.0,0.0
1.7871261661639437e-05,-4.8136884288396686e-05,0.0,0.0,0.0
1.8034503227681853e-05,-4.856373925576918e-05,0.0,0.0,0.0
1.7856438716989942e-05,-4.846421143156476e-05,0.0,0.0,0.0
1.7738944734446704e-05,-4.857361636823043e-05,0.0,0.0,0.0
1.781389619281981e-05,-4.876156526734121e-05,0.0,0.0,0.0
1.7463720723753795e-05,-4.860633271164261e-05,0.0,0.0,0.0
1.744789733493235e-05,-4.8732767027104273e-05,0.0,0.0,0.0
1.7741796909831464e-05,-4.8908030294114724e-05,0.0,0.0,0.0
1.7820670109358616e-05,-4.9084341299021617e-05,0.0,0.0,0.0
1.7514183127786964e-05,-4.8954574594972655e-05,0.0,0.0,0.0
1.7442640455556102e-05,-4.905634341412224e-05,0.0,0.0,0.0
1.770313065208029e-05,-4.9212849262403324e-05,0.0,0.0,0.0
1.7804699382395484e-05,-4.939559585181996e-05,0.0,0.0,0.0
1.7569582269061357e-05,-4.931207513436675e-05,0.0,0.0,0.0
1.744580004015006e-05,-4.937270568916574e-05,0.0,0.0,0.0
1.7657150237937458e-05,-4.9140195187646896e-05,0.0,0.0,0.0
1.7795025996747427e-05,-4.919010461890139e-05,0.0,0.0,0.0
1.76196208485635e-05,-4.9362406571162865e-05,0.0,0.0,0.0
1.74534634425072e-05,-4.9490761739434674e-05,0.0,0.0,0.0
1.7458554793847725e-05,-4.985095074516721e-05,0.0,0.0,0.0
1.7454754924983718e-05,-4.999834345653653e-05,0.0,0.0,0.0
1.7584818124305457e-05,-5.003922706237063e-05,0.0,0.0,0.0
1.778310615918599e-05,-4.999987504561432e-05,0.0,0.0,0.0
1.7799124179873616e-05,-4.993065886083059e-05,0.0,0.0,0.0
1.7882306565297768e-05,-4.958658610121347e-05,0.0,0.0,0.0
1.8027845726464875e-05,-4.928286944050342e-05,0.0,0.0,0.0
1.790192982298322e-05,-4.909066410618834e-05,0.0,0.0,0.0
1.8071414160658605e-05,-4.931884177494794e-05,0.0,0.0,0.0
1.8122967958333902e-05,-4.937226549373008e-05,0.0,0.0,0.0
1.7825266695581377e-05,-4.928423368255608e-05,0.0,0.0,0.0
1.813196467992384e-05,-4.906496906187385e-05,0.0,0.0,0.0
1.8406064555165358e-05,-4.8945832531899214e-05,0.0,0.0,0.0
1.7888316506287083e-05,-4.875584636465646e-05,0.0,0.0,0.0
1.7423548342776485e-05,-4.860954504692927e-05,0.0,0.0,0.0
1.7483014744357206e-05,-4.900803469354287e-05,0.0,0.0,0.0
1.7700938769849017e-05,-4.8738846089690924e-05,0.0,0.0,0.0
1.8098109649145044e-05,-4.8646288632880896e-05,0.0,0.0,0.0
1.7873378965305164e-05,-4.82136856589932e-05,0.0,0.0,0.0
1.777024590410292e-05,-4.8393845645477995e-05,0.0,0.0,0.0
1.7365659005008638e-05,-4.879180414718576e-05,0.0,0.0,0.0
1.727218295854982e-05,-4.8580342991044745e-05,0.0,0.0,0.0
1.732452801661566e-05,-4.875451486441307e-05,0.0,0.0,0.0
1.723832065181341e-05,-4.8613943363307044e-05,0.0,0.0,0.0
1.77094461832894e-05,-4.8724432417657226e-05,0.0,0.0,0.0
1.7570802810951136e-05,-4.881084169028327e-05,0.0,0.0,0.0
1.7492306142230518e-05,-4.904111847281456e-05,0.0,0.0,0.0
1.7279839084949344e-05,-4.914226883556694e-05,0.0,0.0,0.0
1.7142885553766973e-05,-4.9216861953027546e-05,0.0,0.0,0.0
1.7360172932967544e-05,-4.9272806791123e-05,0.0,0.0,0.0
1.7784550436772406e-05,-4.953761526849121e-05,0.0,0.0,0.0
1.769577465893235e-05,-4.939082282362506e-05,0.0,0.0,0.0
1.7555212252773345e-05,-4.9304715503240004e-05,0.0,0.0,0.0
1.7773927538655698e-05,-4.9389836931368336e-05,0.0,0.0,0.0
1.787872133718338e-05,-4.930684735882096e-05,0.0,0.0,0.0
1.8031318177236244e-05,-4.938671918353066e-05,0.0,0.0,0.0
1.7845261027105153e-05,-4.9310805479763076e-05,0.0,0.0,0.0
1.775001328496728e-05,-4.946714761899784e-05,0.0,0.0,0.0
1.776035969669465e-05,-4.991684545530006e-05,0.0,0.0,0.0
1.71742431120947e-05,-5.0086400733562186e-05,0.0,0.0,0.0
1.707139927020762e-05,-4.9649450375000015e-05,0.0,0.0,0.0
1.7452590327593498e-05,-4.94247033202555e-05,0.0,0.0,0.0
1.7733436834532768e-05,-4.9559799663256854e-05,0.0,0.0,0.0
1.7831664081313647e-05,-4.95080130349379e-05,0.0,0.0,0.0
1.7756690795067698e-05,-4.9239617510465905e-05,0.0,0.0,0.0
1.7823147572926246e-05,-4.9434718675911427e-05,0.0,0.0,0.0
1.7998912881012075e-05,-4.9279547965852544e-05,0.0,0.0,0.0
1.839871947595384e-05,-4.9398906412534416e-05,0.0,0.0,0.0
1.823204365791753e-05,-4.931142393616028e-05,0.0,0.0,0.0
1.7922888218890876e-05,-4.89666526846122e-05,0.0,0.0,0.0
1.7971959096030332e-05,-4.882699067820795e-05,0.0,0.0,0.0
1.7966744053410366e-05,-4.904898378299549e-05,0.0,0.0,0.0
1.759882434271276e-05,-4.881970744463615e-05,0.0,0.0,0.0
1.7469084923504852e-05,-4.8840582167031243e-05,0.0,0.0,0.0
1.7596585166756995e-05,-4.886938040726818e-05,0.0,0.0,0.0
1.7794893210520968e-05,-4.86643984913826e-05,0.0,0.0,0.0
1.8047512639896013e-05,-4.856678060605191e-05,0.0,0.0,0.0
1.8443035514792427e-05,-4.809235906577669e-05,0.0,0.0,0.0
1.8377433661953546e-05,-4.8031310143414885e-05,0.0,0.0,0.0
1.8027225451078266e-05,-4.8491216148249805e-05,0.0,0.0,0.0
1.7817252228269354e-05,-4.8526489990763366e-05,0.0,0.0,0.0
1.7768104953574948e-05,-4.8414596676593646e-05,0.0,0.0,0.0
1.787832661648281e-05,-4.8027632146840915e-05,0.0,0.0,0.0
1.802489896363113e-05,-4.736680057249032e-05,0.0,0.0,0.0
1.782521758286748e-05,-4.808895391761325e-05,0.0,0.0,0.0
1.7394304450135678e-05,-4.863856884185225e-05,0.0,0.0,0.0
1.7185147953568958e-05,-4.896818791166879e-05,0.0,0.0,0.0
1.70658986462513e-05,-4.8114994569914415e-05,0.0,0.0,0.0
1.7166370525956154e-05,-4.848414027947001e-05,0.0,0.0,0.0
1.7083057173294947e-05,-4.9116442824015394e-05,0.0,0.0,0.0
1.768251786415931e-05,-4.891172648058273e-05,0.0,0.0,0.0
1.7837423001765274e-05,-4.884025838691741e-05,0.0,0.0,0.0
1.7996688256971538e-05,-4.8576515837339684e-05,0.0,0.0,0.0
1.795646494429093e-05,-4.8991678340826184e-05,0.0,0.0,0.0
1.7714079149300233e-05,-4.8747915570857e-05,0.0,0.0,0.0
1.7857435523183085e-05,-4.868572796112858e-05,0.0,0.0,0.0
1.7939955796464346e-05,-4.907606853521429e-05,0.0,0.0,0.0
1.8377668311586604e-05,-4.9568290705792606e-05,0.0,0.0,0.0
1.8246882973471656e-05,-4.985465784557164e-05,0.0,0.0,0.0
1.7977157767745666e-05,-4.9861115257954225e-05,0.0,0.0,0.0
1.77736201294465e-05,-4.951284790877253e-05,0.0,0.0,0.0
1.795335265342146e-05,-4.950060247210786e-05,0.0,0.0,0.0
1.7841808585217223e-05,-4.954327960149385e-05,0.0,0.0,0.0
1.7727315935189836e-05,-4.922378502669744e-05,0.0,0.0,0.0
1.821647492761258e-05,-4.913732846034691e-05,0.0,0.0,0.0
1.847307794378139e-05,-4.9432092055212706e-05,0.0,0.0,0.0
1.8266333427163772e-05,-4.9593560106586665e-05,0.0,0.0,0.0
1.7916750948643312e-05,-4.9359252443537116e-05,0.0,0.0,0.0
1.8074288163916208e-05,-4.9265137931797653e-05,0.0,0.0,0.0
1.8234502931591123e-05,-4.8978730774251744e-05,0.0,0.0,0.0
1.8401015040581115e-05,-4.868043470196426e-05,0.0,0.0,0.0
1.847091334639117e-05,-4.867119787377305e-05,0.0,0.0,0.0
1.809195600799285e-05,-4.871383498539217e-05,0.0,0.0,0.0
1.783030165825039e-05,-4.894619996775873e-05,0.0,0.0,0.0
1.7763035430107266e-05,-4.875681770499796e-05,0.0,0.0,0.0
1.781294668035116e-05,-4.86077151435893e-05,0.0,0.0,0.0
1.8054510292131454e-05,-4.873382567893714e-05,0.0,0.0,0.0
1.8173632270190865e-05,-4.862882269662805e-05,0.0,0.0,0.0
1.809295099519659e-05,-4.8714562581153587e-05,0.0,0.0,0.0
1.81528230314143e-05,-4.8646288632880896e-05,0.0,0.0,0.0
1.7642965758568607e-05,-4.8698839236749336e-05,0.0,0.0,0.0
1.7640482838032767e-05,-4.866033123107627e-05,0.0,0.0,0.0
1.8062648450722918e-05,-4.86864046251867e-05,0.0,0.0,0.0
1.8093858670908958e-05,-4.867122697760351e-05,0.0,0.0,0.0
1.796719698177185e-05,-4.8676974984118715e-05,0.0,0.0,0.0
1.7391357687301934e-05,-4.8679277824703604e-05,0.0,0.0,0.0
1.6968688214547e-05,-4.867021561949514e-05,0.0,0.0,0.0
1.6923540897550993e-05,-4.868483301834203e-05,0.0,0.0,0.0
1.758651342242956e-05,-4.866577728535049e-05,0.0,0.0,0.0
1.7967287931242026e-05,-4.868824180448428e-05,0.0,0.0,0.0
1.7816211766330525e-05,-4.8790920118335634e-05,0.0,0.0,0.0
1.7771662896848284e-05,-4.901685315417126e-05,0.0,0.0,0.0
1.7596066754776984e-05,-4.9005699111148715e-05,0.0,0.0,0.0
1.7329395632259548e-05,-4.901925422018394e-05,0.0,0.0,0.0
1.7738591850502416e-05,-4.9004062020685524e-05,0.0,0.0,0.0
1.7838850908447057e-05,-4.909465860691853e-05,0.0,0.0,0.0
1.7751190171111375e-05,-4.9314072384731844e-05,0.0,0.0,0.0
1.7827400370151736e-05,-4.9377318646293133e-05,0.0,0.0,0.0
1.7804111848818138e-05,-4.9321850383421406e-05,0.0,0.0,0.0
1.811842776078265e-05,-4.940176222589798e-05,0.0,0.0,0.0
1.81569266715087e-05,-4.960478327120654e-05,0.0,0.0,0.0
1.841482298914343e-05,-4.943776730215177e-05,0.0,0.0,0.0
1.7930136891664006e-05,-4.927239933749661e-05,0.0,0.0,0.0
1.7675754861556925e-05,-4.996249117539264e-05,0.0,0.0,0.0
1.7888496586238034e-05,-4.977909702574834e-05,0.0,0.0,0.0
1.7968595784623176e-05,-4.9879829020937905e-05,0.0,0.0,0.0
1.8466153051122092e-05,-4.9857138947118074e-05,0.0,0.0,0.0
1.8182789062848315e-05,-4.958473073202185e-05,0.0,0.0,0.0
1.813737617339939e-05,-4.954327960149385e-05,0.0,0.0,0.0
1.8124850612366572e-05,-4.8831811000127345e-05,0.0,0.0,0.0
1.812487062125001e-05,-4.8714940930949524e-05,0.0,0.0,0.0
1.813528433558531e-05,-4.864589936914854e-05,0.0,0.0,0.0
1.8116346836904995e-05,-4.869934855378233e-05,0.0,0.0,0.0
1.8142058252124116e-05,-4.8659625463187695e-05,0.0,0.0,0.0
1.795163916540332e-05,-4.868736141361296e-05,0.0,0.0,0.0
1.7957756426767446e-05,-4.86699900648091e-05,0.0,0.0,0.0
1.810741741792299e-05,-4.8401991080027074e-05,0.0,0.0,0.0
1.8276328773936257e-05,-4.8144491302082315e-05,0.0,0.0,0.0
1.8433538571116515e-05,-4.820131653104909e-05,0.0,0.0,0.0
1.8279168216395192e-05,-4.8039164539659396e-05,0.0,0.0,0.0
1.7796013707993552e-05,-4.816405999008566e-05,0.0,0.0,0.0
1.7790458514355123e-05,-4.8498844989808276e-05,0.0,0.0,0.0
1.779171361704357e-05,-4.812742190551944e-05,0.0,0.0,0.0
1.7729886167217046e-05,-4.8340109060518444e-05,0.0,0.0,0.0
1.7535519873490557e-05,-4.8700105253374204e-05,0.0,0.0,0.0
1.769637492543552e-05,-4.86586031911429e-05,0.0,0.0,0.0
1.7503794879303314e-05,-4.868867472396232e-05,0.0,0.0,0.0
1.709312891762238e-05,-4.866837116423994e-05,0.0,0.0,0.0
1.7142214346677065e-05,-4.868043106398545e-05,0.0,0.0,0.0
1.73912376340013e-05,-4.867522875429131e-05,0.0,0.0,0.0
1.7509619283373468e-05,-4.922783773508854e-05,0.0,0.0,0.0
1.7147554899565876e-05,-4.942662417306565e-05,0.0,0.0,0.0
1.7630427464609966e-05,-4.902449290966615e-05,0.0,0.0,0.0
1.785714994184673e-05,-4.928321504849009e-05,0.0,0.0,0.0
1.7735574147081934e-05,-4.9820973799796775e-05,0.0,0.0,0.0
1.7840347936726175e-05,-4.961674130754545e-05,0.0,0.0,0.0
1.7538533938932233e-05,-4.9481441237730905e-05,0.0,0.0,0.0
1.7472302715759724e-05,-4.956381599185988e-05,0.0,0.0,0.0
1.744364999467507e-05,-4.926662222715095e-05,0.0,0.0,0.0
1.764672742865514e-05,-4.9592632421990857e-05,0.0,0.0,0.0
1.7793079678085633e-05,-4.9812319048214704e-05,0.0,0.0,0.0
1.7789927369449288e-05,-5.005300772609189e-05,0.0,0.0,0.0
1.7795036910683848e-05,-4.9996477173408493e-05,0.0,0.0,0.0
1.7649936125962995e-05,-5.0031827413477004e-05,0.0,0.0,0.0
1.7721482436172664e-05,-4.9759517423808575e-05,0.0,0.0,0.0
1.798340781533625e-05,-4.9245321861235425e-05,0.0,0.0,0.0
1.7935339201358147e-05,-4.933663149131462e-05,0.0,0.0,0.0
1.807933767850045e-05,-4.9770736950449646e-05,0.0,0.0,0.0
1.817019801819697e-05,-4.9439513531979173e-05,0.0,0.0,0.0
1.8090699086315e-05,-4.918965350952931e-05,0.0,0.0,0.0
1.815969153540209e-05,-4.911278665531427e-05,0.0,0.0,0.0
1.815356154111214e-05,-4.897599501418881e-05,0.0,0.0,0.0
1.841199082264211e-05,-4.935128163197078e-05,0.0,0.0,0.0
1.8139031453756616e-05,-4.89748090330977e-05,0.0,0.0,0.0
1.777234865585342e-05,-4.8720092308940366e-05,0.0,0.0,0.0
1.749689909047447e-05,-4.863869253313169e-05,0.0,0.0,0.0
1.7709042367641814e-05,-4.8707970563555136e-05,0.0,0.0,0.0
1.8138467567041516e-05,-4.8650144890416414e-05,0.0,0.0,0.0
1.784143205441069e-05,-4.843135320697911e-05,0.0,0.0,0.0
1.8028911654255353e-05,-4.8034773499239236e-05,0.0,0.0,0.0
1.817526026570704e-05,-4.801418981514871e-05,0.0,0.0,0.0
1.7619275240576826e-05,-4.7999576054280624e-05,0.0,0.0,0.0
1.7218102584592998e-05,-4.8006615543272346e-05,0.0,0.0,0.0
1.668653749220539e-05,-4.8431709728902206e-05,0.0,0.0,0.0
1.6824893464217894e-05,-4.8707770474720746e-05,0.0,0.0,0.0
1.717330997053068e-05,-4.86533172079362e-05,0.0,0.0,0.0
1.743892607919406e-05,-4.887250543106347e-05,0.0,0.0,0.0
1.7502343325759284e-05,-4.884084046352655e-05,0.0,0.0,0.0
1.723084096738603e-05,-4.866852395934984e-05,0.0,0.0,0.0
1.7495671272627078e-05,-4.898432962363586e-05,0.0,0.0,0.0
1.7289010429522023e-05,-4.9193007725989446e-05,0.0,0.0,0.0
1.727372182358522e-05,-4.890749914920889e-05,0.0,0.0,0.0
1.766445166140329e-05,-4.877859464613721e-05,0.0,0.0,0.0
1.790845453797374e-05,-4.9015619879355654e-05,0.0,0.0,0.0
1.7497402950539254e-05,-4.910179632133804e-05,0.0,0.0,0.0
1.7501717593404464e-05,-4.9166465032612905e-05,0.0,0.0,0.0
1.780796083039604e-05,-4.880179403699003e-05,0.0,0.0,0.0
1.7774853404262103e-05,-4.900922431261279e-05,0.0,0.0,0.0
1.7809881683206186e-05,-4.9426365876570344e-05,0.0,0.0,0.0
1.7731385014485568e-05,-4.963254832546227e-05,0.0,0.0,0.0
1.7541429770062678e-05,-4.972367605660111e-05,0.0,0.0,0.0
1.7706091966829263e-05,-4.963100946042687e-05,0.0,0.0,0.0
1.7866386770037934e-05,-4.941271254210733e-05,0.0,0.0,0.0
1.7728423699736595e-05,-4.9583053623791784e-05,0.0,0.0,0.0
1.812213122320827e-05,-5.004108606954105e-05,0.0,0.0,0.0
1.785521089914255e-05,-4.972665919922292e-05,0.0,0.0,0.0
1.8272496163262986e-05,-4.915641329716891e-05,0.0,0.0,0.0
1.830738256103359e-05,-4.872319186688401e-05,0.0,0.0,0.0
1.7791029677027836e-05,-4.891529897577129e-05,0.0,0.0,0.0
1.78533391590463e-05,-4.92598264827393e-05,0.0,0.0,0.0
1.795441312424373e-05,-4.934434764436446e-05,0.0,0.0,0.0
1.8186088709626347e-05,-4.915205136057921e-05,0.0,0.0,0.0
1.8272476154379547e-05,-4.898866973235272e-05,0.0,0.0,0.0
1.8510971131036058e-05,-4.903441003989428e-05,0.0,0.0,0.0
1.8426924725645222e-05,-4.8820591473486274e-05,0.0,0.0,0.0
1.83307274710387e-05,-4.869147960562259e-05,0.0,0.0,0.0
1.8256891053169966e-05,-4.866177914664149e-05,0.0,0.0,0.0
1.847344719863031e-05,-4.8689820687286556e-05,0.0,0.0,0.0
1.8459748389432207e-05,-4.853628342971206e-05,0.0,0.0,0.0
1.84617965715006e-05,-4.836036896449514e-05,0.0,0.0,0.0
1.825665640353691e-05,-4.84297052025795e-05,0.0,0.0,0.0
1.762194006005302e-05,-4.848419121117331e-05,0.0,0.0,0.0
1.714366408123169e-05,-4.812824772670865e-05,0.0,0.0,0.0
1.7171541912830435e-05,-4.8359823267674074e-05,0.0,0.0,0.0
1.758212056302e-05,-4.8634581617079675e-05,0.0,0.0,0.0
1.8015769455814734e-05,-4.840347537538037e-05,0.0,0.0,0.0
1.78767313627759e-05,-4.863611684413627e-05,0.0,0.0,0.0
1.7686101273284294e-05,-4.871013879892416e-05,0.0,0.0,0.0
1.755887205945328e-05,-4.866949166171253e-05,0.0,0.0,0.0
1.7369069610140286e-05,-4.899282430415042e-05,0.0,0.0,0.0
1.7242338799405843e-05,-4.931665171170607e-05,0.0,0.0,0.0
1.701929431874305e-05,-4.8819714720593765e-05,0.0,0.0,0.0
1.7469290469307452e-05,-4.8846959543880075e-05,0.0,0.0,0.0
1.793518094928004e-05,-4.9379545089323074e-05,0.0,0.0,0.0
1.8456868929206394e-05,-4.953231109539047e-05,0.0,0.0,0.0
1.8191316485172138e-05,-4.952337985741906e-05,0.0,0.0,0.0
1.7906148059410043e-05,-4.904273373540491e-05,0.0,0.0,0.0
1.7562664652359672e-05,-4.9266134737990797e-05,0.0,0.0,0.0
1.7648320863372646e-05,-4.974128387402743e-05,0.0,0.0,0.0
1.8012537111644633e-05,-5.005039201932959e-05,0.0,0.0,0.0
1.810876710806042e-05,-4.981896563549526e-05,0.0,0.0,0.0
1.8149186871596612e-05,-4.9684564146446064e-05,0.0,0.0,0.0
1.8104447008226998e-05,-4.9689304432831705e-05,0.0,0.0,0.0
1.815213545341976e-05,-4.982055543223396e-05,0.0,0.0,0.0
1.8240989447804168e-05,-4.989500666852109e-05,0.0,0.0,0.0
1.848304418672342e-05,-4.9671041779220104e-05,0.0,0.0,0.0
1.8443586668581702e-05,-4.969887959305197e-05,0.0,0.0,0.0
1.837666604842525e-05,-4.9559261242393404e-05,0.0,0.0,0.0
1.8028369595413096e-05,-4.928653288516216e-05,0.0,0.0,0.0
1.781560968083795e-05,-4.891246499028057e-05,0.0,0.0,0.0
1.7770329577615485e-05,-4.871355849900283e-05,0.0,0.0,0.0
1.7939279132406227e-05,-4.87696124764625e-05,0.0,0.0,0.0
1.8282298697158694e-05,-4.921515210298821e-05,0.0,0.0,0.0
1.791987961041741e-05,-4.8761074140202254e-05,0.0,0.0,0.0
1.7683885744190775e-05,-4.854178769164719e-05,0.0,0.0,0.0
1.790336136764381e-05,-4.818285015062429e-05,0.0,0.0,0.0
1.8012175132753327e-05,-4.8479731049155816e-05,0.0,0.0,0.0
1.8221950085717253e-05,-4.883977453573607e-05,0.0,0.0,0.0
1.805269312171731e-05,-4.7989306040108204e-05,0.0,0.0,0.0
1.818554119381588e-05,-4.8302954382961616e-05,0.0,0.0,0.0
1.8085176634485833e-05,-4.860872286371887e-05,0.0,0.0,0.0
1.815679388528224e-05,-4.8691184929339215e-05,0.0,0.0,0.0
1.7876420315587893e-05,-4.8902926209848374e-05,0.0,0.0,0.0
1.7774740626919083e-05,-4.881418863078579e-05,0.0,0.0,0.0
1.7813774320529774e-05,-4.863877620664425e-05,0.0,0.0,0.0
1.7766784367267974e-05,-4.890452328254469e-05,0.0,0.0,0.0
1.7819818822317757e-05,-4.900993008050136e-05,0.0,0.0,0.0
1.776248427631799e-05,-4.900852218270302e-05,0.0,0.0,0.0
1.782254003046546e-05,-4.901978900306858e-05,0.0,0.0,0.0
1.7601654690224677e-05,-4.900083877146244e-05,0.0,0.0,0.0
1.7634542018640786e-05,-4.9025537009583786e-05,0.0,0.0,0.0
1.7760941773303784e-05,-4.913504744763486e-05,0.0,0.0,0.0
1.794980198610574e-05,-4.9103156925411895e-05,0.0,0.0,0.0
1.7973192370845936e-05,-4.879902917309664e-05,0.0,0.0,0.0
1.7838763596955687e-05,-4.910321513307281e-05,0.0,0.0,0.0
1.7749973267200403e-05,-4.934371099807322e-05,0.0,0.0,0.0
1.7829379430622794e-05,-4.926738256472163e-05,0.0,0.0,0.0
1.775928285496775e-05,-4.917767728329636e-05,0.0,0.0,0.0
1.782024082785938e-05,-4.968303983332589e-05,0.0,0.0,0.0
1.7821341316448525e-05,-4.993794209440239e-05,0.0,0.0,0.0
1.8157967133447528e-05,-4.939115751767531e-05,0.0,0.0,0.0
1.8439564883010462e-05,-4.93097904836759e-05,0.0,0.0,0.0
1.8440023268340155e-05,-4.9401507567381486e-05,0.0,0.0,0.0
1.7861086234916e-05,-4.961392914992757e-05,0.0,0.0,0.0
1.8018905393546447e-05,-4.9741680413717404e-05,0.0,0.0,0.0
1.8221084246761166e-05,-4.9635276809567586e-05,0.0,0.0,0.0
1.8314191038371064e-05,-4.945630644215271e-05,0.0,0.0,0.0
1.8309439838049002e-05,-4.953807729179971e-05,0.0,0.0,0.0
1.8012342479778454e-05,-4.92768594995141e-05,0.0,0.0,0.0
1.8456634279573336e-05,-4.912471922580153e-05,0.0,0.0,0.0
1.841119592427276e-05,-4.902216824120842e-05,0.0,0.0,0.0
1.8503571482142434e-05,-4.8538811824982986e-05,0.0,0.0,0.0
1.8231770809506997e-05,-4.8985533794621006e-05,0.0,0.0,0.0
1.7942171325557865e-05,-4.875465310760774e-05,0.0,0.0,0.0
1.7599482816876844e-05,-4.87100551254116e-05,0.0,0.0,0.0
1.7453741747885942e-05,-4.865857044933364e-05,0.0,0.0,0.0
1.7622312952880748e-05,-4.852082929573953e-05,0.0,0.0,0.0
1.8081474991049618e-05,-4.8495545343030244e-05,0.0,0.0,0.0
1.8470393115421757e-05,-4.8381851229351014e-05,0.0,0.0,0.0
1.8326538338442333e-05,-4.804133641300723e-05,0.0,0.0,0.0
1.8030385035672225e-05,-4.7963709221221507e-05,0.0,0.0,0.0
1.789076122804545e-05,-4.8261961637763306e-05,0.0,0.0,0.0
1.8025535609922372e-05,-4.869504118687473e-05,0.0,0.0,0.0
1.772906762198545e-05,-4.898143743048422e-05,0.0,0.0,0.0
1.7535785445943475e-05,-4.864539732807316e-05,0.0,0.0,0.0
1.7760557966539636e-05,-4.883561632595956e-05,0.0,0.0,0.0
1.7820417269831523e-05,-4.920559513266198e-05,0.0,0.0,0.0
1.776668432285078e-05,-4.9165890231961384e-05,0.0,0.0,0.0
1.7814327293308452e-05,-4.9151403800351545e-05,0.0,0.0,0.0
1.777267243596725e-05,-4.886705573881045e-05,0.0,0.0,0.0
1.780849925125949e-05,-4.8514946684008464e-05,0.0,0.0,0.0
1.777828401827719e-05,-4.909764902549796e-05,0.0,0.0,0.0
1.780314778443426e-05,-4.8667130613466725e-05,0.0,0.0,0.0
1.778333717084024e-05,-4.8956950195133686e-05,0.0,0.0,0.0
1.8308897779206745e-05,-4.9039634177461267e-05,0.0,0.0,0.0
1.8521348465583287e-05,-4.898290353594348e-05,0.0,0.0,0.0
1.818000055209268e-05,-4.9042173486668617e-05,0.0,0.0,0.0
1.8145039575756527e-05,-4.9204303650185466e-05,0.0,0.0,0.0
1.8113125406671315e-05,-4.9613037845119834e-05,0.0,0.0,0.0
1.79378293978516e-05,-4.9854035751195624e-05,0.0,0.0,0.0
1.776745375536848e-05,-4.9681861128192395e-05,0.0,0.0,0.0
1.7992952052736655e-05,-4.928272755932994e-05,0.0,0.0,0.0
1.811938636819832e-05,-4.957565033691935e-05,0.0,0.0,0.0
1.7974556612898596e-05,-4.947728666593321e-05,0.0,0.0,0.0
1.79350081452867e-05,-4.938770507578738e-05,0.0,0.0,0.0
1.82678868441144e-05,-4.931219882564619e-05,0.0,0.0,0.0
1.84576419997029e-05,-4.93788393214345e-05,0.0,0.0,0.0
1.8467299014446326e-05,-4.908662594971247e-05,0.0,0.0,0.0
1.835479815781582e-05,-4.882995199295692e-05,0.0,0.0,0.0
1.8143986380891874e-05,-4.89562407892663e-05,0.0,0.0,0.0
1.8114771592081524e-05,-4.8974026867654175e-05,0.0,0.0,0.0
1.821218575059902e-05,-4.8807945859152824e-05,0.0,0.0,0.0
1.8430624550092034e-05,-4.92464896524325e-05,0.0,0.0,0.0
1.8490223737899214e-05,-4.907403126708232e-05,0.0,0.0,0.0
1.8399394321022555e-05,-4.895786696579307e-05,0.0,0.0,0.0
1.817977499740664e-05,-4.902694854536094e-05,0.0,0.0,0.0
1.8085152987623587e-05,-4.8674573918106034e-05,0.0,0.0,0.0
1.816182157199364e-05,-4.8677939048502594e-05,0.0,0.0,0.0
1.8388247553957626e-05,-4.83874864585232e-05,0.0,0.0,0.0
1.824801802285947e-05,-4.802467083209194e-05,0.0,0.0,0.0
1.830723886087071e-05,-4.799970702151768e-05,0.0,0.0,0.0
1.8311651729163714e-05,-4.85204545839224e-05,0.0,0.0,0.0
1.8258799173054285e-05,-4.848890966968611e-05,0.0,0.0,0.0
1.834691829571966e-05,-4.849980541621335e-05,0.0,0.0,0.0
1.778818477760069e-05,-4.876159437117167e-05,0.0,0.0,0.0
1.7860234947875142e-05,-4.8607562348479405e-05,0.0,0.0,0.0
1.754168260958977e-05,-4.873019133810885e-05,0.0,0.0,0.0
1.7664255210547708e-05,-4.8635483835823834e-05,0.0,0.0,0.0
1.779890590114519e-05,-4.870555494562723e-05,0.0,0.0,0.0
1.7606855180929415e-05,-4.882719804299995e-05,0.0,0.0,0.0
1.7632746676099487e-05,-4.918666309094988e-05,0.0,0.0,0.0
1.791932481864933e-05,-4.9342066631652415e-05,0.0,0.0,0.0
1.8013870430877432e-05,-4.920846549794078e-05,0.0,0.0,0.0
1.8024627934210002e-05,-4.915137469652109e-05,0.0,0.0,0.0
1.8471637304173782e-05,-4.932342199026607e-05,0.0,0.0,0.0
1.823829188651871e-05,-4.947998604620807e-05,0.0,0.0,0.0
1.7742506315698847e-05,-4.954536052537151e-05,0.0,0.0,0.0
1.7431151718483306e-05,-4.940679355058819e-05,0.0,0.0,0.0
1.7481372196925804e-05,-4.936795085086487e-05,0.0,0.0,0.0
1.7495829524705186e-05,-4.964341496815905e-05,0.0,0.0,0.0
1.783958578016609e-05,-4.946003173245117e-05,0.0,0.0,0.0
1.809874811442569e-05,-4.990940942661837e-05,0.0,0.0,0.0
1.81537470780313e-05,-4.980583253200166e-05,0.0,0.0,0.0
1.810479625419248e-05,-4.986314888810739e-05,0.0,0.0,0.0
1.814743154682219e-05,-4.9525060603627935e-05,0.0,0.0,0.0
1.8111237295670435e-05,-4.891358912573196e-05,0.0,0.0,0.0
1.8417502360534854e-05,-4.9643698730506e-05,0.0,0.0,0.0
1.7959278920898214e-05,-4.916575926472433e-05,0.0,0.0,0.0
1.7698786905384623e-05,-4.892635843134485e-05,0.0,0.0,0.0
1.8115608327207156e-05,-4.884336522081867e-05,0.0,0.0,0.0
1.8089256627717987e-05,-4.858169995713979e-05,0.0,0.0,0.0
1.815952236938756e-05,-4.9204103561351076e-05,0.0,0.0,0.0
1.788903864508029e-05,-4.9321311962557957e-05,0.0,0.0,0.0
1.7997157556237653e-05,-4.916767284157686e-05,0.0,0.0,0.0
1.8140461179427803e-05,-4.8788067942950875e-05,0.0,0.0,0.0
1.8297325368621387e-05,-4.869115582550876e-05,0.0,0.0,0.0
1.814060851756949e-05,-4.866526433033869e-05,0.0,0.0,0.0
1.7768417819752358e-05,-4.868374890065752e-05,0.0,0.0,0.0
1.810863977880217e-05,-4.8374258767580613e-05,0.0,0.0,0.0
1.8306480342289433e-05,-4.8010395403252915e-05,0.0,0.0,0.0
1.802012229745742e-05,-4.800210808753036e-05,0.0,0.0,0.0
1.801894359232392e-05,-4.800523311132565e-05,0.0,0.0,0.0
1.82310031959787e-05,-4.821935362997465e-05,0.0,0.0,0.0
1.784146297723055e-05,-4.8737681936472654e-05,0.0,0.0,0.0
1.7747994206729345e-05,-4.9024751206161454e-05,0.0,0.0,0.0
1.7682094039628282e-05,-4.892478682450019e-05,0.0,0.0,0.0
1.7264634152525105e-05,-4.871418423135765e-05,0.0,0.0,0.0
1.7615175238461234e-05,-4.864244692726061e-05,0.0,0.0,0.0
1.732869350234978e-05,-4.8706271627452224e-05,0.0,0.0,0.0
1.758651706040837e-05,-4.8649904783815145e-05,0.0,0.0,0.0
1.7661082893027924e-05,-4.8720532504376024e-05,0.0,0.0,0.0
1.7598340491531417e-05,-4.895025267614983e-05,0.0,0.0,0.0
1.7663667676970363e-05,-4.906432150164619e-05,0.0,0.0,0.0
1.7564167137607e-05,-4.9244710680795833e-05,0.0,0.0,0.0
1.822979720600415e-05,-4.915554745821282e-05,0.0,0.0,0.0
1.7771848433767445e-05,-4.917232945444994e-05,0.0,0.0,0.0
1.807932676456403e-05,-4.970059308107011e-05,0.0,0.0,0.0
1.7896987628773786e-05,-4.985788109479472e-05,0.0,0.0,0.0
1.7530210243421607e-05,-4.986553540220484e-05,0.0,0.0,0.0
1.7690908862277865e-05,-4.982174141332507e-05,0.0,0.0,0.0
1.757917198119685e-05,-5.0092981837224215e-05,0.0,0.0,0.0
1.7843596651800908e-05,-4.977286153007299e-05,0.0,0.0,0.0
1.8317581634619273e-05,-4.9710219172993675e-05,0.0,0.0,0.0
1.847330895543564e-05,-4.983916733181104e-05,0.0,0.0,0.0
1.8446055037202314e-05,-5.002739271731116e-05,0.0,0.0,0.0
1.8784276107908227e-05,-4.987171269021928e-05,0.0,0.0,0.0
1.8826905943569727e-05,-4.9814032536232844e-05,0.0,0.0,0.0
1.85082226380473e-05,-4.977270873496309e-05,0.0,0.0,0.0
1.841845914896112e-05,-4.935036486131139e-05,0.0,0.0,0.0
1.8507551430957392e-05,-4.9351834604749456e-05,0.0,0.0,0.0
1.8325215933145955e-05,-4.914661622024141e-05,0.0,0.0,0.0
1.818655800889246e-05,-4.8812584282131866e-05,0.0,0.0,0.0
1.8000031559495255e-05,-4.894107041764073e-05,0.0,0.0,0.0
1.7928614397533238e-05,-4.9076825234806165e-05,0.0,0.0,0.0
1.798275116016157e-05,-4.895329038845375e-05,0.0,0.0,0.0
1.7902188119478524e-05,-4.90644815727137e-05,0.0,0.0,0.0
1.7699445379548706e-05,-4.893369987257756e-05,0.0,0.0,0.0
1.7889573427964933e-05,-4.875522790825926e-05,0.0,0.0,0.0
1.8024496966972947e-05,-4.8609075747663155e-05,0.0,0.0,0.0
1.849798354669474e-05,-4.844536670134403e-05,0.0,0.0,0.0
1.8439581253915094e-05,-4.852997153648175e-05,0.0,0.0,0.0
1.821178557293024e-05,-4.851910853176378e-05,0.0,0.0,0.0
1.8087521311827004e-05,-4.8473641072632745e-05,0.0,0.0,0.0
1.7910182577907108e-05,-4.880493361270055e-05,0.0,0.0,0.0
1.7982647477765568e-05,-4.85749333165586e-05,0.0,0.0,0.0
1.7957536329049617e-05,-4.875325248576701e-05,0.0,0.0,0.0
1.7309213944827206e-05,-4.862089190282859e-05,0.0,0.0,0.0
1.7124055375461467e-05,-4.891479329671711e-05,0.0,0.0,0.0
1.712688390398398e-05,-4.8815061745699495e-05,0.0,0.0,0.0
1.7648704670136794e-05,-4.883981455350295e-05,0.0,0.0,0.0
1.8172153431805782e-05,-4.921486470266245e-05,0.0,0.0,0.0
1.8082688256981783e-05,-4.931498915539123e-05,0.0,0.0,0.0
1.8023643860942684e-05,-4.9086796934716403e-05,0.0,0.0,0.0
1.775020791683346e-05,-4.8778860218590125e-05,0.0,0.0,0.0
1.808761226129718e-05,-4.8916597734205425e-05,0.0,0.0,0.0
1.840759432525374e-05,-4.865118535235524e-05,0.0,0.0,0.0
1.8301863747183233e-05,-4.870316479355097e-05,0.0,0.0,0.0
1.7872143871500157e-05,-4.883993460680358e-05,0.0,0.0,0.0
1.8039019778370857e-05,-4.933819582220167e-05,0.0,0.0,0.0
1.7890291928779334e-05,-4.942671876051463e-05,0.0,0.0,0.0
1.8083039321936667e-05,-4.965727566741407e-05,0.0,0.0,0.0
1.8218102923128754e-05,-4.964963227394037e-05,0.0,0.0,0.0
1.8400676708552055e-05,-4.936570257996209e-05,0.0,0.0,0.0
1.851582419476472e-05,-4.933002492180094e-05,0.0,0.0,0.0
1.8398790416540578e-05,-4.934320895699784e-05,0.0,0.0,0.0
1.820511170080863e-05,-4.903832814306952e-05,0.0,0.0,0.0
1.835070361266844e-05,-4.927765985485166e-05,0.0,0.0,0.0
1.8556975192041136e-05,-4.912964504910633e-05,0.0,0.0,0.0
1.78551345015876e-05,-4.865999289904721e-05,0.0,0.0,0.0
1.8039880160358734e-05,-4.896811879007146e-05,0.0,0.0,0.0
1.841257108026184e-05,-4.8769452405394986e-05,0.0,0.0,0.0
1.8454975361237302e-05,-4.8879097448661923e-05,0.0,0.0,0.0
1.8472541341907345e-05,-4.9287078581983224e-05,0.0,0.0,0.0
1.8028611521003768e-05,-4.889960109721869e-05,0.0,0.0,0.0
1.7563639630679972e-05,-4.865949085797183e-05,0.0,0.0,0.0
1.7653701434028335e-05,-4.869051554123871e-05,0.0,0.0,0.0
1.7980506527237594e-05,-4.848339085583575e-05,0.0,0.0,0.0
1.795782554836478e-05,-4.851317862630822e-05,0.0,0.0,0.0
1.810742833185941e-05,-4.8678375605959445e-05,0.0,0.0,0.0
1.8467719200998545e-05,-4.867528332397342e-05,0.0,0.0,0.0
1.8461416402715258e-05,-4.8537960537942126e-05,0.0,0.0,0.0
1.8463581000105478e-05,-4.82194300275296e-05,0.0,0.0,0.0
1.8464681488694623e-05,-4.824078860110603e-05,0.0,0.0,0.0
1.8248385458718985e-05,-4.8758021875983104e-05,0.0,0.0,0.0
1.7634401956456713e-05,-4.9016631237464026e-05,0.0,0.0,0.0
1.712806806608569e-05,-4.90092825202737e-05,0.0,0.0,0.0
1.7189337086165324e-05,-4.901294960291125e-05,0.0,0.0,0.0
1.749913462845143e-05,-4.894868834526278e-05,0.0,0.0,0.0
1.7781734641175717e-05,-4.875630474998616e-05,0.0,0.0,0.0
1.7800522982724942e-05,-4.900107887806371e-05,0.0,0.0,0.0
1.778502883098554e-05,-4.935623292112723e-05,0.0,0.0,0.0
1.7797732652979903e-05,-4.9321075493935496e-05,0.0,0.0,0.0
1.7787375327316113e-05,-4.9056459829444066e-05,0.0,0.0,0.0
1.7795773601392284e-05,-4.926339170197025e-05,0.0,0.0,0.0
1.778899968485348e-05,-4.886371243628673e-05,0.0,0.0,0.0
1.806031104933936e-05,-4.881118002231233e-05,0.0,0.0,0.0
1.8160219042329118e-05,-4.940807048114948e-05,0.0,0.0,0.0
1.7855949408840388e-05,-4.926554174744524e-05,0.0,0.0,0.0
1.7786531316232868e-05,-4.987842112313956e-05,0.0,0.0,0.0
1.8020562492893077e-05,-5.002216494176537e-05,0.0,0.0,0.0
1.7718537492328323e-05,-5.000954115530476e-05,0.0,0.0,0.0
1.7609841961530037e-05,-4.983173857908696e-05,0.0,0.0,0.0
1.8228774933959357e-05,-4.9650061555439606e-05,0.0,0.0,0.0
1.844266807893291e-05,-4.9355588998878375e-05,0.0,0.0,0.0
1.8138329323846847e-05,-4.913274824502878e-05,0.0,0.0,0.0
1.7932023183675483e-05,-4.939788414048962e-05,0.0,0.0,0.0
1.7993465007748455e-05,-4.930234717903659e-05,0.0,0.0,0.0
1.778520345396828e-05,-4.938813071930781e-05,0.0,0.0,0.0
1.792162402125541e-05,-4.918442209600471e-05,0.0,0.0,0.0
1.8004082448896952e-05,-4.905161404167302e-05,0.0,0.0,0.0
1.7806229152483866e-05,-4.9084406782640144e-05,0.0,0.0,0.0
1.7783209841581993e-05,-4.926508336211555e-05,0.0,0.0,0.0
1.779625927156303e-05,-4.902047658106312e-05,0.0,0.0,0.0
1.786603024811484e-05,-4.9003396270563826e-05,0.0,0.0,0.0
1.80359129444696e-05,-4.9020734877558425e-05,0.0,0.0,0.0
1.7794174709706567e-05,-4.89498270326294e-05,0.0,0.0,0.0
1.7396247130818665e-05,-4.871746205026284e-05,0.0,0.0,0.0
1.7268364899791777e-05,-4.870349948760122e-05,0.0,0.0,0.0
1.792371585906949e-05,-4.926036490360275e-05,0.0,0.0,0.0
1.767790672602132e-05,-4.8796886403579265e-05,0.0,0.0,0.0
1.7556440070620738e-05,-4.8575777327641845e-05,0.0,0.0,0.0
1.798867197067011e-05,-4.875860031461343e-05,0.0,0.0,0.0
1.7364734958391637e-05,-4.8876179789658636e-05,0.0,0.0,0.0
1.7551570635987446e-05,-4.884255395154469e-05,0.0,0.0,0.0
1.7628324712859467e-05,-4.857800740865059e-05,0.0,0.0,0.0
1.7872378521133214e-05,-4.8986799811245874e-05,0.0,0.0,0.0
1.7733897038851865e-05,-4.8755769967101514e-05,0.0,0.0,0.0
1.761798921506852e-05,-4.910070856567472e-05,0.0,0.0,0.0
1.721459557302296e-05,-4.898745828540996e-05,0.0,0.0,0.0
1.751113450154662e-05,-4.879498737864196e-05,0.0,0.0,0.0
1.799991150619462e-05,-4.8909179895417765e-05,0.0,0.0,0.0
1.7932168702827767e-05,-4.8768513806862757e-05,0.0,0.0,0.0
1.7978507457883097e-05,-4.9244797992287204e-05,0.0,0.0,0.0
1.7947548258234747e-05,-4.913644079351798e-05,0.0,0.0,0.0
1.7829876014729962e-05,-4.9067719373852015e-05,0.0,0.0,0.0
1.8006398022407666e-05,-4.8964480811264366e-05,0.0,0.0,0.0
1.848857937147841e-05,-4.9051770474761724e-05,0.0,0.0,0.0
1.843534118961543e-05,-4.919205093756318e-05,0.0,0.0,0.0
1.839754440879915e-05,-4.9774378567235544e-05,0.0,0.0,0.0
1.7945640138350427e-05,-4.992169851902872e-05,0.0,0.0,0.0
1.773818803485483e-05,-4.978787183063105e-05,0.0,0.0,0.0
1.8333799744141288e-05,-4.984315819456242e-05,0.0,0.0,0.0
1.8576565707917325e-05,-4.944309694110416e-05,0.0,0.0,0.0
1.836585761338938e-05,-4.926999463350512e-05,0.0,0.0,0.0
1.8546310457168147e-05,-4.940940561937168e-05,0.0,0.0,0.0
1.8394239305052906e-05,-4.930019349558279e-05,0.0,0.0,0.0
1.851985689427238e-05,-4.9382531869923696e-05,0.0,0.0,0.0
1.8418724721414037e-05,-4.903677472611889e-05,0.0,0.0,0.0
1.8220849597128108e-05,-4.898501356365159e-05,0.0,0.0,0.0
1.7799902707338333e-05,-4.904045272269286e-05,0.0,0.0,0.0
1.7804501112550497e-05,-4.9237827624892816e-05,0.0,0.0,0.0
1.778725527401548e-05,-4.916394391329959e-05,0.0,0.0,0.0
1.8023993106908165e-05,-4.869465919909999e-05,0.0,0.0,0.0
1.8160017134505324e-05,-4.872525096288882e-05,0.0,0.0,0.0
1.788192275853362e-05,-4.863249705522321e-05,0.0,0.0,0.0
1.800970312615391e-05,-4.851297489949502e-05,0.0,0.0,0.0
1.7932152331923135e-05,-4.8483572754776105e-05,0.0,0.0,0.0
1.797064942365978e-05,-4.872873250860721e-05,0.0,0.0,0.0
1.830189285101369e-05,-4.863255162490532e-05,0.0,0.0,0.0
1.847044040914625e-05,-4.8711986892158166e-05,0.0,0.0,0.0
1.845201404648833e-05,-4.849901961279102e-05,0.0,0.0,0.0
1.82017629413167e-05,-4.850262848776765e-05,0.0,0.0,0.0
1.791298018360976e-05,-4.865317532676272e-05,0.0,0.0,0.0
1.8011733118328266e-05,-4.881029963144101e-05,0.0,0.0,0.0
1.77996298589278e-05,-4.898832048638724e-05,0.0,0.0,0.0
1.7788725017453544e-05,-4.89334634039551e-05,0.0,0.0,0.0
1.7706766811897978e-05,-4.876855018665083e-05,0.0,0.0,0.0
1.7481203030911274e-05,-4.8906065785558894e-05,0.0,0.0,0.0
1.7496469808975235e-05,-4.8795471229823306e-05,0.0,0.0,0.0
1.778551632014569e-05,-4.888007606496103e-05,0.0,0.0,0.0
1.771089773683343e-05,-4.877761966781691e-05,0.0,0.0,0.0
1.7189187929034233e-05,-4.8620382585795596e-05,0.0,0.0,0.0
1.712513949314598e-05,-4.904872548650019e-05,0.0,0.0,0.0
1.8052542145596817e-05,-4.898076440440491e-05,0.0,0.0,0.0
1.8478916899766773e-05,-4.9038109864341095e-05,0.0,0.0,0.0
1.8173837815993465e-05,-4.8990499635692686e-05,0.0,0.0,0.0
1.8101020032190718e-05,-4.9295093049295247e-05,0.0,0.0,0.0
1.7639333236729726e-05,-4.936870755045675e-05,0.0,0.0,0.0
1.786550274118781e-05,-4.981812526239082e-05,0.0,0.0,0.0
1.8014989109360613e-05,-4.9857375415740535e-05,0.0,0.0,0.0
1.76686626218725e-05,-4.9597863835515454e-05,0.0,0.0,0.0
1.8103799447999336e-05,-4.9754606152419e-05,0.0,0.0,0.0
1.7866141206468455e-05,-4.9624981329543516e-05,0.0,0.0,0.0
1.8012209693551995e-05,-4.9538870371179655e-05,0.0,0.0,0.0
1.8302644093637355e-05,-4.92997387482319e-05,0.0,0.0,0.0
1.829894245020114e-05,-4.955476470058784e-05,0.0,0.0,0.0
1.812574191717431e-05,-4.982019527233206e-05,0.0,0.0,0.0
1.8270706277689897e-05,-4.988667933503166e-05,0.0,0.0,0.0
1.8335489585297182e-05,-4.939929203828797e-05,0.0,0.0,0.0
1.811746187740937e-05,-4.889701449428685e-05,0.0,0.0,0.0
1.8259748685522936e-05,-4.879531843471341e-05,0.0,0.0,0.0
1.8219929188489914e-05,-4.8887650336837396e-05,0.0,0.0,0.0
1.7854577890830114e-05,-4.890247146249749e-05,0.0,0.0,0.0
1.7733544154907577e-05,-4.910673669655807e-05,0.0,0.0,0.0
1.7920599930221215e-05,-4.878396066487767e-05,0.0,0.0,0.0
1.8052787709166296e-05,-4.8581969167571515e-05,0.0,0.0,0.0
1.8194219592260197e-05,-4.86517274111975e-05,0.0,0.0,0.0
1.8026810721494257e-05,-4.804120180779137e-05,0.0,0.0,0.0
1.7941669284482487e-05,-4.831039041164331e-05,0.0,0.0,0.0
1.8291912056156434e-05,-4.8366600822191685e-05,0.0,0.0,0.0
1.8296181224286556e-05,-4.831821934203617e-05,0.0,0.0,0.0
1.7700225726002827e-05,-4.8359757784055546e-05,0.0,0.0,0.0
1.814222014218103e-05,-4.860067929257639e-05,0.0,0.0,0.0
1.7842259694589302e-05,-4.87280594825279e-05,0.0,0.0,0.0
1.7513517377665266e-05,-4.888804687652737e-05,0.0,0.0,0.0
1.7694752386887558e-05,-4.883456858806312e-05,0.0,0.0,0.0
1.7351581846014597e-05,-4.882700159214437e-05,0.0,0.0,0.0
1.7054404452210292e-05,-4.932791125611402e-05,0.0,0.0,0.0
1.6956952094915323e-05,-4.908113260171376e-05,0.0,0.0,0.0
1.733936369419098e-05,-4.923803498968482e-05,0.0,0.0,0.0
1.806251020752825e-05,-4.915422323392704e-05,0.0,0.0,0.0
1.808161505323369e-05,-4.881817949353717e-05,0.0,0.0,0.0
1.81568757398054e-05,-4.902280852547847e-05,0.0,0.0,0.0
1.8272625311510637e-05,-4.934843673254363e-05,0.0,0.0,0.0
1.8466964320396073e-05,-4.9350459448760375e-05,0.0,0.0,0.0
1.8332306353840977e-05,-4.9480302550364286e-05,0.0,0.0,0.0
1.811723632272333e-05,-4.968581924913451e-05,0.0,0.0,0.0
1.8145761714549735e-05,-4.956168049830012e-05,0.0,0.0,0.0
1.8103773982147686e-05,-4.9472499085823074e-05,0.0,0.0,0.0
1.825177423597779e-05,-4.984139377484098e-05,0.0,0.0,0.0
1.8243183149024844e-05,-5.0262842705706134e-05,0.0,0.0,0.0
1.7959675460588187e-05,-5.011984467273578e-05,0.0,0.0,0.0
1.8017353795585223e-05,-5.024459824198857e-05,0.0,0.0,0.0
1.822605190682225e-05,-5.008573498344049e-05,0.0,0.0,0.0
1.808359411370475e-05,-4.992151662008837e-05,0.0,0.0,0.0
1.8471655494067818e-05,-4.9795253289630637e-05,0.0,0.0,0.0
1.815282848838251e-05,-4.987241845810786e-05,0.0,0.0,0.0
1.8418209947412834e-05,-4.9516904255142435e-05,0.0,0.0,0.0
1.7927801309269853e-05,-4.94950836582575e-05,0.0,0.0,0.0
1.8229800843982957e-05,-4.956131670041941e-05,0.0,0.0,0.0
1.86358538485365e-05,-4.8919799155555665e-05,0.0,0.0,0.0
1.8064494724967517e-05,-4.9361744459019974e-05,0.0,0.0,0.0
1.8459266357240267e-05,-4.906316826236434e-05,0.0,0.0,0.0
1.842177880462259e-05,-4.9008776841219515e-05,0.0,0.0,0.0
1.8271075532538816e-05,-4.902353975921869e-05,0.0,0.0,0.0
1.78719601535704e-05,-4.89936865051277e-05,0.0,0.0,0.0
1.7805950847105123e-05,-4.9035519623430446e-05,0.0,0.0,0.0
1.797608274500817e-05,-4.879309199168347e-05,0.0,0.0,0.0
1.8321690731681883e-05,-4.833368075196631e-05,0.0,0.0,0.0
1.8464472304913215e-05,-4.830675607081503e-05,0.0,0.0,0.0
1.845865699579008e-05,-4.8563892050879076e-05,0.0,0.0,0.0
1.8173235730500892e-05,-4.844414797844365e-05,0.0,0.0,0.0
1.7786513126338832e-05,-4.857742533204146e-05,0.0,0.0,0.0
1.767147841746919e-05,-4.8438163503305987e-05,0.0,0.0,0.0
1.769091613823548e-05,-4.8694138968130574e-05,0.0,0.0,0.0
1.7998339899349958e-05,-4.8660825996194035e-05,0.0,0.0,0.0
1.763445652613882e-05,-4.878493564319797e-05,0.0,0.0,0.0
1.71301253431011e-05,-4.898292536381632e-05,0.0,0.0,0.0
1.7185828255605884e-05,-4.8961304855765775e-05,0.0,0.0,0.0
1.7503538401797414e-05,-4.86828139401041e-05,0.0,0.0,0.0
1.7830074284574948e-05,-4.872204226558097e-05,0.0,0.0,0.0
1.8024069504463114e-05,-4.9073383706854656e-05,0.0,0.0,0.0
1.7510470570414327e-05,-4.959891884936951e-05,0.0,0.0,0.0
1.712905941531062e-05,-4.939071004628204e-05,0.0,0.0,0.0
1.773621806933079e-05,-4.868552787229419e-05,0.0,0.0,0.0
1.8127442672266625e-05,-4.8957015678752214e-05,0.0,0.0,0.0
1.8127515431842767e-05,-4.933340460411273e-05,0.0,0.0,0.0
1.7862343156593852e-05,-4.988132059224881e-05,0.0,0.0,0.0
1.7756934539647773e-05,-4.982894824934192e-05,0.0,0.0,0.0
1.7821412257035263e-05,-4.9600166676100343e-05,0.0,0.0,0.0
1.7767846657079645e-05,-5.0217709940625355e-05,0.0,0.0,0.0
1.8034770619124174e-05,-5.035228605265729e-05,0.0,0.0,0.0
1.8133756384486333e-05,-4.992693357053213e-05,0.0,0.0,0.0
1.8121436369256116e-05,-4.965423795511015e-05,0.0,0.0,0.0
1.8134172933059745e-05,-4.9320151447318494e-05,0.0,0.0,0.0
1.812115624488797e-05,-4.915891258860938e-05,0.0,0.0,0.0
1.8304470358998515e-05,-4.9718735681381077e-05,0.0,0.0,0.0
1.846142185968347e-05,-4.968933717464097e-05,0.0,0.0,0.0
1.846628038038034e-05,-4.934849857818335e-05,0.0,0.0,0.0
1.8183352949563414e-05,-4.9213835154660046e-05,0.0,0.0,0.0
1.7806907635531388e-05,-4.90087695652619e-05,0.0,0.0,0.0
1.8011942302109674e-05,-4.8902074922807515e-05,0.0,0.0,0.0
1.8452488802722655e-05,-4.878460458712652e-05,0.0,0.0,0.0
1.83762294909684e-05,-4.899849955108948e-05,0.0,0.0,0.0
1.8054875909001566e-05,-4.893516961601563e-05,0.0,0.0,0.0
1.7877158825285733e-05,-4.869426629738882e-05,0.0,0.0,0.0
1.809399327612482e-05,-4.8530520871281624e-05,0.0,0.0,0.0
1.8208853362011723e-05,-4.8026817239588127e-05,0.0,0.0,0.0
1.8408627511234954e-05,-4.77629728266038e-05,0.0,0.0,0.0
1.8508831999497488e-05,-4.85683667648118e-05,0.0,0.0,0.0
1.842638084781356e-05,-4.846431693295017e-05,0.0,0.0,0.0
1.849301224865485e-05,-4.854853614233434e-05,0.0,0.0,0.0
1.7866104826680385e-05,-4.8782800149638206e-05,0.0,0.0,0.0
1.7727141312207095e-05,-4.8588684876449406e-05,0.0,0.0,0.0
1.811420042940881e-05,-4.901296415482648e-05,0.0,0.0,0.0
1.7858552382676862e-05,-4.899039049632847e-05,0.0,0.0,0.0
1.7773221770767123e-05,-4.902634827885777e-05,0.0,0.0,0.0
1.7573227523826063e-05,-4.9003683670889586e-05,0.0,0.0,0.0
1.7196492990478873e-05,-4.90152342536021e-05,0.0,0.0,0.0
1.7341786588076502e-05,-4.9012829549610615e-05,0.0,0.0,0.0
1.746814996295143e-05,-4.900786007056013e-05,0.0,0.0,0.0
1.763692853273824e-05,-4.9018621211871505e-05,0.0,0.0,0.0
1.799378514988348e-05,-4.9003472668118775e-05,0.0,0.0,0.0
1.7947559172171168e-05,-4.902176806353964e-05,0.0,0.0,0.0
1.779607373464387e-05,-4.900140629615635e-05,0.0,0.0,0.0
1.8086106138071045e-05,-4.917178739560768e-05,0.0,0.0,0.0
1.8186030501965433e-05,-4.933468881063163e-05,0.0,0.0,0.0
1.7803971786634065e-05,-4.936026016366668e-05,0.0,0.0,0.0
1.778101795935072e-05,-4.9452733946964145e-05,0.0,0.0,0.0
1.7802149159251712e-05,-4.978874494554475e-05,0.0,0.0,0.0
1.7782691429601982e-05,-5.000404053134844e-05,0.0,0.0,0.0
1.7800603018258698e-05,-4.986214480595663e-05,0.0,0.0,0.0
1.78585723915603e-05,-4.9529149691807106e-05,0.0,0.0,0.0
1.8173452190239914e-05,-4.987674401490949e-05,0.0,0.0,0.0
1.8396507584839128e-05,-4.972564056515694e-05,0.0,0.0,0.0
1.8171964256907813e-05,-4.929903298034333e-05,0.0,0.0,0.0
1.808965862437617e-05,-4.94197265652474e-05,0.0,0.0,0.0
1.816012809285894e-05,-4.954835821990855e-05,0.0,0.0,0.0
1.8100439774570987e-05,-4.8860696551855654e-05,0.0,0.0,0.0
1.7863205357571132e-05,-4.880944106844254e-05,0.0,0.0,0.0
1.8009002815233544e-05,-4.890316631644964e-05,0.0,0.0,0.0
1.848034662543796e-05,-4.876794264419004e-05,0.0,0.0,0.0
1.842680103436578e-05,-4.944175816490315e-05,0.0,0.0,0.0
1.849168802436907e-05,-4.875108061241917e-05,0.0,0.0,0.0
1.820854413381312e-05,-4.870136399404146e-05,0.0,0.0,0.0
1.7894364646053873e-05,-4.8665217036614195e-05,0.0,0.0,0.0
1.778233126970008e-05,-4.8675523430574685e-05,0.0,0.0,0.0
1.7999096598941833e-05,-4.8282705392921343e-05,0.0,0.0,0.0
1.8332611944060773e-05,-4.795735003426671e-05,0.0,0.0,0.0
1.846040140662808e-05,-4.823436393053271e-05,0.0,0.0,0.0
1.8468866983312182e-05,-4.812946281163022e-05,0.0,0.0,0.0
1.8136999642592855e-05,-4.820158937945962e-05,0.0,0.0,0.0
1.7947253581951372e-05,-4.815490319742821e-05,0.0,0.0,0.0
1.7840860891737975e-05,-4.8182406317209825e-05,0.0,0.0,0.0
1.7478821973782033e-05,-4.842403359361924e-05,0.0,0.0,0.0
1.7668107830104418e-05,-4.870990596828051e-05,0.0,0.0,0.0
1.7806147297960706e-05,-4.86438802909106e-05,0.0,0.0,0.0
1.7262485926039517e-05,-4.8706922825658694e-05,0.0,0.0,0.0
1.740003062877804e-05,-4.881797940470278e-05,0.0,0.0,0.0
1.7502379705547355e-05,-4.9255180783802643e-05,0.0,0.0,0.0
1.741929372656159e-05,-4.911540600005537e-05,0.0,0.0,0.0
1.7591777577763423e-05,-4.928619819111191e-05,0.0,0.0,0.0
1.8041584553429857e-05,-4.931398143526167e-05,0.0,0.0,0.0
1.8198228644905612e-05,-4.873616126133129e-05,0.0,0.0,0.0
1.8049795471597463e-05,-4.896976315649226e-05,0.0,0.0,0.0
1.7878372091217898e-05,-4.936020195600577e-05,0.0,0.0,0.0
1.7722779375617392e-05,-4.933722084388137e-05,0.0,0.0,0.0
1.78461577888811e-05,-4.9079528253059834e-05,0.0,0.0,0.0
1.7751106497598812e-05,-4.976555283064954e-05,0.0,0.0,0.0
1.7821443179855123e-05,-4.990292291040532e-05,0.0,0.0,0.0
1.8261682271258906e-05,-4.978249853593297e-05,0.0,0.0,0.0
1.8062220988213085e-05,-4.9930851673707366e-05,0.0,0.0,0.0
1.8139364328817464e-05,-4.9765872972784564e-05,0.0,0.0,0.0
1.858256473497022e-05,-5.01506838190835e-05,0.0,0.0,0.0
1.816909934859723e-05,-4.991806054022163e-05,0.0,0.0,0.0
1.8373330021859147e-05,-4.9710204621078447e-05,0.0,0.0,0.0
1.8438320694258437e-05,-4.9094149289885536e-05,0.0,0.0,0.0
1.8305110643268563e-05,-4.922244625049643e-05,0.0,0.0,0.0
1.7962829588213935e-05,-4.9331596528645605e-05,0.0,0.0,0.0
1.793501178326551e-05,-4.9199152272194624e-05,0.0,0.0,0.0
1.8139184248866513e-05,-4.888850526185706e-05,0.0,0.0,0.0
1.8110191376763396e-05,-4.8783975216792896e-05,0.0,0.0,0.0
1.8149808965972625e-05,-4.903209992335178e-05,0.0,0.0,0.0
1.799604251573328e-05,-4.909021663479507e-05,0.0,0.0,0.0
1.7834770915214904e-05,-4.9175032472703606e-05,0.0,0.0,0.0
1.7835494872997515e-05,-4.868837640970014e-05,0.0,0.0,0.0
1.807104672479909e-05,-4.85999153170269e-05,0.0,0.0,0.0
1.7926318832905963e-05,-4.835969230043702e-05,0.0,0.0,0.0
1.8403368812869303e-05,-4.8331552534364164e-05,0.0,0.0,0.0
1.8511902453610674e-05,-4.8298967158189043e-05,0.0,0.0,0.0
1.8361059119342826e-05,-4.80455782962963e-05,0.0,0.0,0.0
1.7899295926326886e-05,-4.7964775149011984e-05,0.0,0.0,0.0
1.7703672710922547e-05,-4.80435264762491e-05,0.0,0.0,0.0
1.7863712855614722e-05,-4.8542704462306574e-05,0.0,0.0,0.0
1.7734882931108586e-05,-4.87921352032572e-05,0.0,0.0,0.0
1.7304775610682555e-05,-4.8577188863418996e-05,0.0,0.0,0.0
1.752860043779947e-05,-4.875961531070061e-05,0.0,0.0,0.0
1.7691421817289665e-05,-4.88522564410232e-05,0.0,0.0,0.0
1.7547028619446792e-05,-4.932873707730323e-05,0.0,0.0,0.0
1.7706615835777484e-05,-4.930657087243162e-05,0.0,0.0,0.0
1.7327562090940773e-05,-4.937728226650506e-05,0.0,0.0,0.0
1.7554908481542952e-05,-4.932843876304105e-05,0.0,0.0,0.0
1.7766902601579204e-05,-4.935765900881961e-05,0.0,0.0,0.0
1.8380440451437607e-05,-4.9165064410772175e-05,0.0,0.0,0.0
1.8252714653499424e-05,-4.933913078275509e-05,0.0,0.0,0.0
1.798561424948275e-05,-4.971023736288771e-05,0.0,0.0,0.0
1.80857241502963e-05,-4.9505804781802e-05,0.0,0.0,0.0
1.81744198926026e-05,-4.965620246366598e-05,0.0,0.0,0.0
1.7825102986535057e-05,-4.9975609726971015e-05,0.0,0.0,0.0
1.763559521350544e-05,-5.006145511288196e-05,0.0,0.0,0.0
1.7724962162901647e-05,-4.9978138122241944e-05,0.0,0.0,0.0
1.8039931092062034e-05,-5.015394344809465e-05,0.0,0.0,0.0
1.81258401426021e-05,-5.021391552872956e-05,0.0,0.0,0.0
1.7810580175137147e-05,-4.994292976334691e-05,0.0,0.0,0.0
1.8219452613266185e-05,-4.926999463350512e-05,0.0,0.0,0.0
1.8406426534056664e-05,-4.916054240311496e-05,0.0,0.0,0.0
1.851561501098331e-05,-4.962469029123895e-05,0.0,0.0,0.0
1.8416365492157638e-05,-5.0038681365549564e-05,0.0,0.0,0.0
1.846255145210307e-05,-4.963592073181644e-05,0.0,0.0,0.0
1.783967309165746e-05,-4.909916970063932e-05,0.0,0.0,0.0
1.803884151740931e-05,-4.9226320697925985e-05,0.0,0.0,0.0
1.7926397049450316e-05,-4.9171881983056664e-05,0.0,0.0,0.0
1.76910798472818e-05,-4.9158123147208244e-05,0.0,0.0,0.0
1.7876227502711117e-05,-4.8968198825605214e-05,0.0,0.0,0.0
1.7722548363963142e-05,-4.85095770272892e-05,0.0,0.0,0.0
1.8082539099850692e-05,-4.880887718172744e-05,0.0,0.0,0.0
1.766023888194468e-05,-4.857408566749655e-05,0.0,0.0,0.0
1.742920903780032e-05,-4.8538877308601514e-05,0.0,0.0,0.0
1.7682925317785703e-05,-4.806897777598351e-05,0.0,0.0,0.0
1.797611912479624e-05,-4.8036326916189864e-05,0.0,0.0,0.0
1.7965254301088862e-05,-4.799124872079119e-05,0.0,0.0,0.0
1.7768299585441127e-05,-4.8343757953261957e-05,0.0,0.0,0.0
1.7811758880270645e-05,-4.838034510612488e-05,0.0,0.0,0.0
1.8073826140607707e-05,-4.811990220332518e-05,0.0,0.0,0.0
1.8195192751591094e-05,-4.8516107199247926e-05,0.0,0.0,0.0
1.779763442755211e-05,-4.862964851781726e-05,0.0,0.0,0.0
1.76678422576515e-05,-4.8841804527910426e-05,0.0,0.0,0.0
1.758326470735483e-05,-4.87380129925441e-05,0.0,0.0,0.0
1.7756590750650503e-05,-4.852623169426806e-05,0.0,0.0,0.0
1.7824644601205364e-05,-4.857488602283411e-05,0.0,0.0,0.0
1.7687640138319694e-05,-4.876748425886035e-05,0.0,0.0,0.0
1.7572798242326826e-05,-4.8658974264981225e-05,0.0,0.0,0.0
1.777015859261155e-05,-4.9001395382219926e-05,0.0,0.0,0.0
1.8118114894605242e-05,-4.871348210144788e-05,0.0,0.0,0.0
1.779884405550547e-05,-4.9013440730050206e-05,0.0,0.0,0.0
1.778640944394283e-05,-4.929252463625744e-05,0.0,0.0,0.0
1.779658668965567e-05,-4.877048195339739e-05,0.0,0.0,0.0
1.8075470507028513e-05,-4.888445255346596e-05,0.0,0.0,0.0
1.7895252312882803e-05,-4.9394417146686465e-05,0.0,0.0,0.0
1.74517190316692e-05,-4.956513294018805e-05,0.0,0.0,0.0
1.7738713722792454e-05,-5.000974488211796e-05,0.0,0.0,0.0
1.7801739886635914e-05,-4.975076444679871e-05,0.0,0.0,0.0
1.8016415197052993e-05,-4.943587919115089e-05,0.0,0.0,0.0
1.8161470507038757e-05,-4.9787049647420645e-05,0.0,0.0,0.0
1.7673131878837012e-05,-4.963609899277799e-05,0.0,0.0,0.0
1.7243513866560534e-05,-4.928298949380405e-05,0.0,0.0,0.0
1.768891524989158e-05,-4.939446444041096e-05,0.0,0.0,0.0
1.8347443983657286e-05,-4.931657531415112e-05,0.0,0.0,0.0
1.826897459977772e-05,-4.919501952826977e-05,0.0,0.0,0.0
1.8142787666874938e-05,-4.9001559091266245e-05,0.0,0.0,0.0
1.8115895727532916e-05,-4.901161082671024e-05,0.0,0.0,0.0
1.8136601283913478e-05,-4.915958197670989e-05,0.0,0.0,0.0
1.8249087588628754e-05,-4.9325604777550325e-05,0.0,0.0,0.0
1.8458604245097376e-05,-4.925794564769603e-05,0.0,0.0,0.0
1.8362801711191423e-05,-4.899292980553582e-05,0.0,0.0,0.0
1.813659764593467e-05,-4.903531589661725e-05,0.0,0.0,0.0
1.803653321985621e-05,-4.907065158477053e-05,0.0,0.0,0.0
1.7892143659992144e-05,-4.927961708744988e-05,0.0,0.0,0.0
1.8145874491892755e-05,-4.896283280686475e-05,0.0,0.0,0.0
1.8471910152584314e-05,-4.864399670623243e-05,0.0,0.0,0.0
1.84156797331525e-05,-4.8307847464457154e-05,0.0,0.0,0.0
1.8133461708202958e-05,-4.806755532626994e-05,0.0,0.0,0.0
1.7800723071559332e-05,-4.8293699364876375e-05,0.0,0.0,0.0
1.7782354916562326e-05,-4.869490294368006e-05,0.0,0.0,0.0
1.751520721882116e-05,-4.86587050545495e-05,0.0,0.0,0.0
1.7404516256647184e-05,-4.896891914540902e-05,0.0,0.0,0.0
1.7501506590633653e-05,-4.903534863842651e-05,0.0,0.0,0.0
1.7672537069302052e-05,-4.92481303808745e-05,0.0,0.0,0.0
1.7856444173958153e-05,-4.939436257700436e-05,0.0,0.0,0.0
1.7738066162564792e-05,-4.930903378408402e-05,0.0,0.0,0.0
1.7613114323467016e-05,-4.893270306638442e-05,0.0,0.0,0.0
1.7612050214665942e-05,-4.903363515040837e-05,0.0,0.0,0.0
1.785546737664845e-05,-4.9439087888458744e-05,0.0,0.0,0.0
1.774182055669371e-05,-4.908179835183546e-05,0.0,0.0,0.0
1.8011203792411834e-05,-4.90602724312339e-05,0.0,0.0,0.0
1.8107644791598432e-05,-4.931506919092499e-05,0.0,0.0,0.0
1.7980615666601807e-05,-4.9560621846467257e-05,0.0,0.0,0.0
1.7933845811057836e-05,-4.946869739796966e-05,0.0,0.0,0.0
1.812664049793966e-05,-4.970004374627024e-05,0.0,0.0,0.0
1.8133800040232018e-05,-4.9546724767424166e-05,0.0,0.0,0.0
1.8117536455974914e-05,-4.9359066906617954e-05,0.0,0.0,0.0
1.8141165128326975e-05,-4.955532858730294e-05,0.0,0.0,0.0
1.8207474568043835e-05,-4.9988193495664746e-05,0.0,0.0,0.0
1.8632677893037908e-05,-4.996467032469809e-05,0.0,0.0,0.0
1.8938895664177835e-05,-4.960098158335313e-05,0.0,0.0,0.0
1.8685333998291753e-05,-4.938303027302027e-05,0.0,0.0,0.0
1.8887945770984516e-05,-4.931467628921382e-05,0.0,0.0,0.0
1.8606251614983194e-05,-4.942064333590679e-05,0.0,0.0,0.0
1.803684608603362e-05,-4.9588499678066e-05,0.0,0.0,0.0
1.850665285019204e-05,-4.9419773858971894e-05,0.0,0.0,0.0
1.8117203580914065e-05,-4.8974176024785265e-05,0.0,0.0,0.0
1.8133679986931384e-05,-4.9043577746488154e-05,0.0,0.0,0.0
1.784932828741148e-05,-4.898616680293344e-05,0.0,0.0,0.0
1.775252712832298e-05,-4.876655657426454e-05,0.0,0.0,0.0
1.8083659597323276e-05,-4.862631612922996e-05,0.0,0.0,0.0
1.8125349015463144e-05,-4.8716039600549266e-05,0.0,0.0,0.0
1.836648880271241e-05,-4.864571747020818e-05,0.0,0.0,0.0
1.825769322749693e-05,-4.8698617320042104e-05,0.0,0.0,0.0
1.8307497157366015e-05,-4.866122981184162e-05,0.0,0.0,0.0
1.8303398974239826e-05,-4.8280813643941656e-05,0.0,0.0,0.0
1.8273307432536967e-05,-4.816415093955584e-05,0.0,0.0,0.0
1.8508491848479025e-05,-4.837410233449191e-05,0.0,0.0,0.0
1.8090519006364048e-05,-4.848780736210756e-05,0.0,0.0,0.0
1.7804602975957096e-05,-4.885411908617243e-05,0.0,0.0,0.0
1.793575029296335e-05,-4.8854839405976236e-05,0.0,0.0,0.0
1.784804589988198e-05,-4.867956158705056e-05,0.0,0.0,0.0
1.7730584659148008e-05,-4.8678950406610966e-05,0.0,0.0,0.0
1.7971442503039725e-05,-4.878571780864149e-05,0.0,0.0,0.0
1.7843061868916266e-05,-4.911771975457668e-05,0.0,0.0,0.0
1.7839209249359556e-05,-4.913683733320795e-05,0.0,0.0,0.0
1.8154703866457567e-05,-4.890471609542146e-05,0.0,0.0,0.0
1.8026690668193623e-05,-4.925000393996015e-05,0.0,0.0,0.0
1.7843061868916266e-05,-4.930652357870713e-05,0.0,0.0,0.0
1.7799171473598108e-05,-4.871092096436769e-05,0.0,0.0,0.0
1.8179332982981578e-05,-4.903962690150365e-05,0.0,0.0,0.0
1.8419133994029835e-05,-4.935601828037761e-05,0.0,0.0,0.0
1.8459402781445533e-05,-4.966555570717901e-05,0.0,0.0,0.0
1.7842852685134858e-05,-4.9698108341544867e-05,0.0,0.0,0.0
1.774877091520466e-05,-4.938405618304387e-05,0.0,0.0,0.0
1.810509456845466e-05,-4.9869697249960154e-05,0.0,0.0,0.0
1.7337151803076267e-05,-5.0120488594984636e-05,0.0,0.0,0.0
1.7777105313143693e-05,-4.993493712390773e-05,0.0,0.0,0.0
1.806733234843705e-05,-5.008748848922551e-05,0.0,0.0,0.0
1.7612288502277806e-05,-4.996487041353248e-05,0.0,0.0,0.0
1.7937945813173428e-05,-5.006051651434973e-05,0.0,0.0,0.0
1.810182220651768e-05,-4.9776292144088075e-05,0.0,0.0,0.0
1.8587656086310744e-05,-4.9887647037394345e-05,0.0,0.0,0.0
1.836924820963759e-05,-4.9654216127237305e-05,0.0,0.0,0.0
1.8531089153839275e-05,-4.930503200739622e-05,0.0,0.0,0.0
1.8078560970025137e-05,-4.9217789637623355e-05,0.0,0.0,0.0
1.7807458789320663e-05,-4.881010318058543e-05,0.0,0.0,0.0
1.8089454897562973e-05,-4.886274109594524e-05,0.0,0.0,0.0
1.817050542740617e-05,-4.89753729198128e-05,0.0,0.0,0.0
1.7956945157493465e-05,-4.8917834646999836e-05,0.0,0.0,0.0
1.795796379155945e-05,-4.842067210120149e-05,0.0,0.0,0.0
1.7966927771340124e-05,-4.815501597477123e-05,0.0,0.0,0.0
1.7947573724086396e-05,-4.838246604776941e-05,0.0,0.0,0.0
1.806235195545014e-05,-4.8619120207149535e-05,0.0,0.0,0.0
1.832579255278688e-05,-4.8413137847092e-05,0.0,0.0,0.0
1.8587497834232636e-05,-4.852468555327505e-05,0.0,0.0,0.0
1.8352644474362023e-05,-4.8189300287049264e-05,0.0,0.0,0.0
1.847613020800054e-05,-4.8545716708758846e-05,0.0,0.0,0.0
1.7809248674893752e-05,-4.8754980525700375e-05,0.0,0.0,0.0
1.808118940971326e-05,-4.8265304940287024e-05,0.0,0.0,0.0
1.785506719897967e-05,-4.809054735233076e-05,0.0,0.0,0.0
1.773865005816333e-05,-4.850899858865887e-05,0.0,0.0,0.0
1.7837053746916354e-05,-4.9091322580352426e-05,0.0,0.0,0.0
1.74882443388924e-05,-4.8671085096430033e-05,0.0,0.0,0.0
1.7708955056150444e-05,-4.8700178012950346e-05,0.0,0.0,0.0
1.7580538042238913e-05,-4.8661313485354185e-05,0.0,0.0,0.0
1.7635427866480313e-05,-4.8683643399272114e-05,0.0,0.0,0.0
1.741429150570184e-05,-4.867530151386745e-05,0.0,0.0,0.0
1.7448473954573274e-05,-4.8671994591131806e-05,0.0,0.0,0.0
1.7905555068864487e-05,-4.84827505715657e-05,0.0,0.0,0.0
1.808524211810436e-05,-4.869705662713386e-05,0.0,0.0,0.0
1.8554052076069638e-05,-4.887991235591471e-05,0.0,0.0,0.0
1.8225680832983926e-05,-4.896457176073454e-05,0.0,0.0,0.0
1.8170379917137325e-05,-4.9402759032091126e-05,0.0,0.0,0.0
1.8101876776199788e-05,-4.944926331518218e-05,0.0,0.0,0.0
1.8000786440097727e-05,-4.972128590452485e-05,0.0,0.0,0.0
1.7798452972783707e-05,-4.9652200686978176e-05,0.0,0.0,0.0
1.777585748641286e-05,-4.9591333663556725e-05,0.0,0.0,0.0
1.8028780687018298e-05,-4.944684405927546e-05,0.0,0.0,0.0
1.8210983398603275e-05,-4.957593773724511e-05,0.0,0.0,0.0
1.806083855626639e-05,-4.9293979827780277e-05,0.0,0.0,0.0
1.8252467270940542e-05,-4.9004509492078796e-05,0.0,0.0,0.0
1.834030626923777e-05,-4.9020858568837866e-05,0.0,0.0,0.0
1.830251858336851e-05,-4.89487501909025e-05,0.0,0.0,0.0
1.8604205251904204e-05,-4.880431151832454e-05,0.0,0.0,0.0
1.8309676306671463e-05,-4.917447949992493e-05,0.0,0.0,0.0
1.8249111235491e-05,-4.886951137450524e-05,0.0,0.0,0.0
1.771374445524998e-05,-4.8823294491739944e-05,0.0,0.0,0.0
1.785599670256488e-05,-4.8884161515161395e-05,0.0,0.0,0.0
1.8294227629667148e-05,-4.850249024457298e-05,0.0,0.0,0.0
1.8577695300336927e-05,-4.881928543909453e-05,0.0,0.0,0.0
1.8117332729161717e-05,-4.8305682867066935e-05,0.0,0.0,0.0
1.8166336303693242e-05,-4.815554348169826e-05,0.0,0.0,0.0
1.8336737412028015e-05,-4.8402140237158164e-05,0.0,0.0,0.0
1.8054141037282534e-05,-4.8330024583265185e-05,0.0,0.0,0.0
1.7301532352576032e-05,-4.7887217078823596e-05,0.0,0.0,0.0
1.773627991497051e-05,-4.8295438318746164e-05,0.0,0.0,0.0
1.7981641576625407e-05,-4.8292160499840975e-05,0.0,0.0,0.0
1.773361691448372e-05,-4.836939842789434e-05,0.0,0.0,0.0
1.7849395590019412e-05,-4.849864126299508e-05,0.0,0.0,0.0
1.773623444023542e-05,-4.867889219895005e-05,0.0,0.0,0.0
1.7547938114148565e-05,-4.88351215608418e-05,0.0,0.0,0.0
1.7073607523343526e-05,-4.8574976972304285e-05,0.0,0.0,0.0
1.7292537449975498e-05,-4.8306545068044215e-05,0.0,0.0,0.0
1.7523292626719922e-05,-4.8608213546685874e-05,0.0,0.0,0.0
1.7719272364047356e-05,-4.895735401078127e-05,0.0,0.0,0.0
1.7536563973408192e-05,-4.9249512812821195e-05,0.0,0.0,0.0
1.7702990589896217e-05,-4.9354373913956806e-05,0.0,0.0,0.0
1.7555032172822393e-05,-4.887465183855966e-05,0.0,0.0,0.0
1.7746880985214375e-05,-4.876047023572028e-05,0.0,0.0,0.0
1.7882819520309567e-05,-4.865359005634673e-05,0.0,0.0,0.0
1.802212318580132e-05,-4.9047503125621006e-05,0.0,0.0,0.0
1.7911781469592825e-05,-4.901185093331151e-05,0.0,0.0,0.0
1.799457641027402e-05,-4.933731543133035e-05,0.0,0.0,0.0
1.792697912605945e-05,-4.935613105772063e-05,0.0,0.0,0.0
1.7967375242733397e-05,-4.934048047289252e-05,0.0,0.0,0.0
1.8259937860420905e-05,-4.935414472129196e-05,0.0,0.0,0.0
1.8020557035924867e-05,-4.9607377150096e-05,0.0,0.0,0.0
1.8212680515716784e-05,-4.972402530256659e-05,0.0,0.0,0.0
1.8306882338947617e-05,-4.9648147978587076e-05,0.0,0.0,0.0
1.8305641788174398e-05,-4.97139262733981e-05,0.0,0.0,0.0
1.8046455807052553e-05,-4.943351086694747e-05,0.0,0.0,0.0
1.7975316950469278e-05,-4.9349597247783095e-05,0.0,0.0,0.0
1.7732048945617862e-05,-4.934509706799872e-05,0.0,0.0,0.0
1.802475526346825e-05,-4.935097967972979e-05,0.0,0.0,0.0
1.8113580154022202e-05,-4.916283432976343e-05,0.0,0.0,0.0
1.8130385797121562e-05,-4.900888598058373e-05,0.0,0.0,0.0
1.7974942238652147e-05,-4.901287684333511e-05,0.0,0.0,0.0
1.807425360311754e-05,-4.886416718363762e-05,0.0,0.0,0.0
1.8203731087851338e-05,-4.8675537982489914e-05,0.0,0.0,0.0
1.77818292286247e-05,-4.867861935053952e-05,0.0,0.0,0.0
1.7923328414326534e-05,-4.8672573029762134e-05,0.0,0.0,0.0
1.7992058928939514e-05,-4.868113319389522e-05,0.0,0.0,0.0
1.7836924598668702e-05,-4.847907257499173e-05,0.0,0.0,0.0
1.7834910977398977e-05,-4.7963661927497014e-05,0.0,0.0,0.0
1.8070306396111846e-05,-4.765225821756758e-05,0.0,0.0,0.0
1.7800535715650767e-05,-4.768473809235729e-05,0.0,0.0,0.0
1.783969855750911e-05,-4.770818122779019e-05,0.0,0.0,0.0
1.805646206776146e-05,-4.802827606908977e-05,0.0,0.0,0.0
1.7788957848097198e-05,-4.8320969654014334e-05,0.0,0.0,0.0
1.714579229883384e-05,-4.8357884224969894e-05,0.0,0.0,0.0
1.709897696855478e-05,-4.832548802369274e-05,0.0,0.0,0.0
1.7139345800387673e-05,-4.864071524934843e-05,0.0,0.0,0.0
1.6827802028274164e-05,-4.8706358938943595e-05,0.0,0.0,0.0
1.6761508959461935e-05,-4.8651105316821486e-05,0.0,0.0,0.0
1.7058926459867507e-05,-4.869709664490074e-05,0.0,0.0,0.0
1.713732308417093e-05,-4.8659312597010285e-05,0.0,0.0,0.0
1.7573032891959883e-05,-4.868986798101105e-05,0.0,0.0,0.0
1.8078826542478055e-05,-4.866563540417701e-05,0.0,0.0,0.0
1.766916102496907e-05,-4.889707633992657e-05,0.0,0.0,0.0
1.744918517943006e-05,-4.902389628114179e-05,0.0,0.0,0.0
1.7652844690019265e-05,-4.900130079477094e-05,0.0,0.0,0.0
1.798078119463753e-05,-4.9021422455552965e-05,0.0,0.0,0.0
1.8298134818905964e-05,-4.917390469927341e-05,0.0,0.0,0.0
1.81498471647501e-05,-4.951881055603735e-05,0.0,0.0,0.0
1.7784010196919553e-05,-4.9824000598164275e-05,0.0,0.0,0.0
1.7660899175098166e-05,-5.002375110052526e-05,0.0,0.0,0.0
1.783824700396508e-05,-4.976047421223484e-05,0.0,0.0,0.0
1.8438056940794922e-05,-4.94842606713064e-05,0.0,0.0,0.0
1.8272778106620535e-05,-4.9655103794066235e-05,0.0,0.0,0.0
1.7899417798616923e-05,-4.970691225025803e-05,0.0,0.0,0.0
1.809899004001636e-05,-4.957905548508279e-05,0.0,0.0,0.0
1.8152215488953516e-05,-4.938504207530059e-05,0.0,0.0,0.0
1.8170889234170318e-05,-4.9317037337459624e-05,0.0,0.0,0.0
1.8451904907124117e-05,-4.93722727696877e-05,0.0,0.0,0.0
1.843125937739387e-05,-4.932847878080793e-05,0.0,0.0,0.0
1.8185568478656933e-05,-4.939399877912365e-05,0.0,0.0,0.0
1.84032651304733e-05,-4.961329250363633e-05,0.0,0.0,0.0
1.8513705072109587e-05,-4.9428854254074395e-05,0.0,0.0,0.0
1.8422042558086105e-05,-4.899427221971564e-05,0.0,0.0,0.0
1.822027115849778e-05,-4.902384171145968e-05,0.0,0.0,0.0
1.7797881810110994e-05,-4.873927900916897e-05,0.0,0.0,0.0
1.755370612954721e-05,-4.8644375056028366e-05,0.0,0.0,0.0
1.8147587979910895e-05,-4.8461457481607795e-05,0.0,0.0,0.0
1.811145557439886e-05,-4.781726602232084e-05,0.0,0.0,0.0
1.7873184333438985e-05,-4.7668698243796825e-05,0.0,0.0,0.0
1.8049811842502095e-05,-4.766786514665e-05,0.0,0.0,0.0
1.8072470993502066e-05,-4.7873985749902204e-05,0.0,0.0,0.0
1.8587452359497547e-05,-4.8398447688668966e-05,0.0,0.0,0.0
1.818891723814886e-05,-4.869129043072462e-05,0.0,0.0,0.0
1.8016820831689984e-05,-4.866253220825456e-05,0.0,0.0,0.0
1.7590227798791602e-05,-4.868870382779278e-05,0.0,0.0,0.0
1.777570832928177e-05,-4.8665220674593e-05,0.0,0.0,0.0
1.7979686163016595e-05,-4.882421490037814e-05,0.0,0.0,0.0
1.7793721781345084e-05,-4.8998270358424634e-05,0.0,0.0,0.0
1.7918942830874585e-05,-4.9023725296137854e-05,0.0,0.0,0.0
1.7990018022828735e-05,-4.889576302957721e-05,0.0,0.0,0.0
1.7748665413819253e-05,-4.889115007244982e-05,0.0,0.0,0.0
1.75910481630126e-05,-4.929075657855719e-05,0.0,0.0,0.0
1.8047867342829704e-05,-4.932113370159641e-05,0.0,0.0,0.0
1.7878268408821896e-05,-4.906142930849455e-05,0.0,0.0,0.0
1.803373743314296e-05,-4.932972296955995e-05,0.0,0.0,0.0
1.7852142264018767e-05,-4.936460391036235e-05,0.0,0.0,0.0
1.768343099683989e-05,-4.936366167385131e-05,0.0,0.0,0.0
1.7229618606506847e-05,-4.965969856129959e-05,0.0,0.0,0.0
1.7034250049619004e-05,-4.9702139222063124e-05,0.0,0.0,0.0
1.7474534615757875e-05,-4.9956121074501425e-05,0.0,0.0,0.0
1.772397263266612e-05,-4.979417644790374e-05,0.0,0.0,0.0
1.8096965504810214e-05,-4.960416481480934e-05,0.0,0.0,0.0
1.78800146386493e-05,-4.9747297452995554e-05,0.0,0.0,0.0
1.8238168195239268e-05,-4.9877675337484106e-05,0.0,0.0,0.0
1.832603993534576e-05,-4.961719605489634e-05,0.0,0.0,0.0
1.7571972421137616e-05,-4.924789391225204e-05,0.0,0.0,0.0
1.7720118194120005e-05,-4.942579835187644e-05,0.0,0.0,0.0
1.796831566025503e-05,-4.888453986495733e-05,0.0,0.0,0.0
1.8163855202146806e-05,-4.888095645583235e-05,0.0,0.0,0.0
1.809826608223375e-05,-4.9019308789866045e-05,0.0,0.0,0.0
1.8150831238017417e-05,-4.9169004341820255e-05,0.0,0.0,0.0
1.7791500795283355e-05,-4.936995537718758e-05,0.0,0.0,0.0
1.7614385797060095e-05,-4.917399201076478e-05,0.0,0.0,0.0
1.8061435184790753e-05,-4.890224226983264e-05,0.0,0.0,0.0
1.8328202713746578e-05,-4.865238952334039e-05,0.0,0.0,0.0
1.814631832530722e-05,-4.870086922892369e-05,0.0,0.0,0.0
1.8214621377410367e-05,-4.843893475481309e-05,0.0,0.0,0.0
1.8276703485753387e-05,-4.825118958251551e-05,0.0,0.0,0.0
1.7907137589645572e-05,-4.841923146159388e-05,0.0,0.0,0.0
1.7934426068677567e-05,-4.812498445971869e-05,0.0,0.0,0.0
1.760517443472054e-05,-4.796533175976947e-05,0.0,0.0,0.0
1.780109596438706e-05,-4.839973553316668e-05,0.0,0.0,0.0
1.8435297533869743e-05,-4.833405910176225e-05,0.0,0.0,0.0
1.8123846530215815e-05,-4.868073665420525e-05,0.0,0.0,0.0
1.7780579582904465e-05,-4.867502138949931e-05,0.0,0.0,0.0
1.7494530766271055e-05,-4.86746066599153e-05,0.0,0.0,0.0
1.7132271750597283e-05,-4.868060568696819e-05,0.0,0.0,0.0
1.7114822185249068e-05,-4.8669593525119126e-05,0.0,0.0,0.0
1.7653295799391344e-05,-4.8685029469197616e-05,0.0,0.0,0.0
1.7863943867268972e-05,-4.892100696451962e-05,0.0,0.0,0.0
1.772838004399091e-05,-4.9055073759518564e-05,0.0,0.0,0.0
1.8081731468555517e-05,-4.87389370391611e-05,0.0,0.0,0.0
1.8103935872204602e-05,-4.8910416808212176e-05,0.0,0.0,0.0
1.7935881260200404e-05,-4.902176442556083e-05,0.0,0.0,0.0
1.7756212400854565e-05,-4.9006161134457216e-05,0.0,0.0,0.0
1.801333564799279e-05,-4.9014379328582436e-05,0.0,0.0,0.0
1.8114547856384888e-05,-4.9193258746527135e-05,0.0,0.0,0.0
1.7967642634175718e-05,-4.935266406391747e-05,0.0,0.0,0.0
1.7461212337366305e-05,-4.9505659262649715e-05,0.0,0.0,0.0
1.7424041288904846e-05,-4.9832167860586196e-05,0.0,0.0,0.0
1.7646385458647273e-05,-4.988161526853219e-05,0.0,0.0,0.0
1.7849586583906785e-05,-4.955803160555661e-05,0.0,0.0,0.0
1.842962774389889e-05,-4.9473550461698323e-05,0.0,0.0,0.0
1.8384911527391523e-05,-4.9555270379642025e-05,0.0,0.0,0.0
1.8120645108865574e-05,-4.9383597797714174e-05,0.0,0.0,0.0
1.81320974661503e-05,-4.931530202156864e-05,0.0,0.0,0.0
1.8125720089301467e-05,-4.930212890030816e-05,0.0,0.0,0.0
1.8255253962706774e-05,-4.901178544969298e-05,0.0,0.0,0.0
1.8690536307985894e-05,-4.9012680392479524e-05,0.0,0.0,0.0
1.8498109056963585e-05,-4.905352398054674e-05,0.0,0.0,0.0
1.8067770724883303e-05,-4.9249698349740356e-05,0.0,0.0,0.0
1.7851562006399035e-05,-4.880358392256312e-05,0.0,0.0,0.0
1.7744592696544714e-05,-4.88805235363543e-05,0.0,0.0,0.0
1.8402981368126348e-05,-4.8835037887329236e-05,0.0,0.0,0.0
1.7965341612580232e-05,-4.854409417021088e-05,0.0,0.0,0.0
1.7400996512151323e-05,-4.8784626414999366e-05,0.0,0.0,0.0
1.778466503310483e-05,-4.858920146944001e-05,0.0,0.0,0.0
1.8005073798121884e-05,-4.825530413654633e-05,0.0,0.0,0.0
1.841661287471652e-05,-4.813161649508402e-05,0.0,0.0,0.0
1.8218435798189603e-05,-4.844847717322409e-05,0.0,0.0,0.0
1.8336995708523318e-05,-4.804506170330569e-05,0.0,0.0,0.0
1.8080534573527984e-05,-4.84520205645822e-05,0.0,0.0,0.0
1.7553355064592324e-05,-4.8486876039532945e-05,0.0,0.0,0.0
1.7484548152424395e-05,-4.849963079323061e-05,0.0,0.0,0.0
1.7433038010494784e-05,-4.8710735427448526e-05,0.0,0.0,0.0
1.7315713193966076e-05,-4.879930929746479e-05,0.0,0.0,0.0
1.740207699185703e-05,-4.919964339933358e-05,0.0,0.0,0.0
1.7800395653466694e-05,-4.930709474137984e-05,0.0,0.0,0.0
1.7914368072524667e-05,-4.913196971756406e-05,0.0,0.0,0.0
1.8004664525506087e-05,-4.877282117377035e-05,0.0,0.0,0.0
1.781116588972509e-05,-4.912687654723413e-05,0.0,0.0,0.0
1.7773812942323275e-05,-4.9226819101022556e-05,0.0,0.0,0.0
1.7639000361668877e-05,-4.905421155854128e-05,0.0,0.0,0.0
1.7371983631164767e-05,-4.8899946705205366e-05,0.0,0.0,0.0
1.8092805476044305e-05,-4.8798337957123294e-05,0.0,0.0,0.0
1.8411186829325743e-05,-4.9039823352359235e-05,0.0,0.0,0.0
1.7769300029613078e-05,-4.96431857754942e-05,0.0,0.0,0.0
1.7536374798510224e-05,-4.947799607180059e-05,0.0,0.0,0.0
1.7996151655097492e-05,-5.018678348278627e-05,0.0,0.0,0.0
1.7613616364542395e-05,-5.018680531065911e-05,0.0,0.0,0.0
1.7900043530971743e-05,-4.9589481932343915e-05,0.0,0.0,0.0
1.859297299233731e-05,-5.003847400075756e-05,0.0,0.0,0.0
1.83473493962083e-05,-4.972601527697407e-05,0.0,0.0,0.0
1.829935354180634e-05,-4.9670252337818965e-05,0.0,0.0,0.0
1.8271983208251186e-05,-4.9695834604790434e-05,0.0,0.0,0.0
1.8567148799775168e-05,-4.9437774578109384e-05,0.0,0.0,0.0
1.816235453588888e-05,-4.933388117933646e-05,0.0,0.0,0.0
1.8161608750233427e-05,-4.93583720526658e-05,0.0,0.0,0.0
1.8109805751009844e-05,-4.893548975815065e-05,0.0,0.0,0.0
1.8323580661672167e-05,-4.903593799099326e-05,0.0,0.0,0.0
1.8481365259503946e-05,-4.920921855955385e-05,0.0,0.0,0.0
1.843840982473921e-05,-4.896888276562095e-05,0.0,0.0,0.0
1.849379259510897e-05,-4.8568508645985276e-05,0.0,0.0,0.0
1.8429193005431443e-05,-4.827106022275984e-05,0.0,0.0,0.0
1.8361890397500247e-05,-4.8695914301788434e-05,0.0,0.0,0.0
1.82226922333939e-05,-4.866339440923184e-05,0.0,0.0,0.0
1.8488242858438753e-05,-4.844931754632853e-05,0.0,0.0,0.0
1.843747668317519e-05,-4.8239722673315555e-05,0.0,0.0,0.0
1.8393879145151004e-05,-4.852674464927986e-05,0.0,0.0,0.0
1.812073060136754e-05,-4.832414197153412e-05,0.0,0.0,0.0
1.8061855371342972e-05,-4.8039277317002416e-05,0.0,0.0,0.0
1.780790807970334e-05,-4.83522453578189e-05,0.0,0.0,0.0
1.7833302990766242e-05,-4.827505472349003e-05,0.0,0.0,0.0
1.797689765226096e-05,-4.8134621465578675e-05,0.0,0.0,0.0
1.7279109670198523e-05,-4.856586019741371e-05,0.0,0.0,0.0
1.7288615708821453e-05,-4.872881618211977e-05,0.0,0.0,0.0
1.72857162397122e-05,-4.800779061042704e-05,0.0,0.0,0.0
1.7270434909733012e-05,-4.85761120216921e-05,0.0,0.0,0.0
1.7885953639051877e-05,-4.903821900370531e-05,0.0,0.0,0.0
1.7440441297367215e-05,-4.871171768172644e-05,0.0,0.0,0.0
1.7742398995324038e-05,-4.892579818260856e-05,0.0,0.0,0.0
1.7804757590056397e-05,-4.9048103392124176e-05,0.0,0.0,0.0
1.7539627151563764e-05,-4.874784281128086e-05,0.0,0.0,0.0
1.7678294170764275e-05,-4.889983028988354e-05,0.0,0.0,0.0
1.8019334675045684e-05,-4.9246471462538466e-05,0.0,0.0,0.0
1.7939099052455276e-05,-4.914446981274523e-05,0.0,0.0,0.0
1.794990930648055e-05,-4.9190595746040344e-05,0.0,0.0,0.0
1.8174325305153616e-05,-4.936860568705015e-05,0.0,0.0,0.0
1.774174779711757e-05,-4.95017011417076e-05,0.0,0.0,0.0
1.749138937157113e-05,-4.985930354450829e-05,0.0,0.0,0.0
1.7570106138009578e-05,-5.000867531634867e-05,0.0,0.0,0.0
1.7962736819754355e-05,-4.97492183058057e-05,0.0,0.0,0.0
1.8218466721009463e-05,-4.948269997839816e-05,0.0,0.0,0.0
1.8489527064957656e-05,-4.9782658607000485e-05,0.0,0.0,0.0
1.843852805905044e-05,-4.9918467993848026e-05,0.0,0.0,0.0
1.8486740373191424e-05,-4.978717697667889e-05,0.0,0.0,0.0
1.8441940483171493e-05,-4.9910602683667094e-05,0.0,0.0,0.0
1.8482833183952607e-05,-4.957428609486669e-05,0.0,0.0,0.0
1.8446218746248633e-05,-4.896712925983593e-05,0.0,0.0,0.0
1.8478296624380164e-05,-4.8792710003908724e-05,0.0,0.0,0.0
1.8450908100930974e-05,-4.9234840844292194e-05,0.0,0.0,0.0
1.8441643987898715e-05,-4.9104757636087015e-05,0.0,0.0,0.0
1.8158529201173224e-05,-4.893594086752273e-05,0.0,0.0,0.0
1.810052344808355e-05,-4.90730999445077e-05,0.0,0.0,0.0
1.8151742551708594e-05,-4.8676913138478994e-05,0.0,0.0,0.0
1.782995786925312e-05,-4.894803714705631e-05,0.0,0.0,0.0
1.830483233788982e-05,-4.879193511442281e-05,0.0,0.0,0.0
1.8291857486474328e-05,-4.859966429648921e-05,0.0,0.0,0.0
1.827274900279008e-05,-4.8254281864501536e-05,0.0,0.0,0.0
1.8103912225342356e-05,-4.789092417922802e-05,0.0,0.0,0.0
1.7656302588875405e-05,-4.854790313402191e-05,0.0,0.0,0.0
1.790009264368564e-05,-4.863835420110263e-05,0.0,0.0,0.0
1.7708569430396892e-05,-4.870676639256999e-05,0.0,0.0,0.0
1.7853699318948202e-05,-4.8269706894643605e-05,0.0,0.0,0.0
1.774941847543232e-05,-4.800009628525004e-05,0.0,0.0,0.0
1.764790795277804e-05,-4.835140498471446e-05,0.0,0.0,0.0
1.759943006618414e-05,-4.883750079898164e-05,0.0,0.0,0.0
1.7945592844625935e-05,-4.8865596909308806e-05,0.0,0.0,0.0
1.7993974324781448e-05,-4.881199492956512e-05,0.0,0.0,0.0
1.7783573639462702e-05,-4.901098145637661e-05,0.0,0.0,0.0
1.7925551219377667e-05,-4.912779331789352e-05,0.0,0.0,0.0
1.7986401871894486e-05,-4.9338639655616134e-05,0.0,0.0,0.0
1.7749785911291838e-05,-4.925781468045898e-05,0.0,0.0,0.0
1.7506892618257552e-05,-4.902754881186411e-05,0.0,0.0,0.0
1.7806049072532915e-05,-4.8922353016678244e-05,0.0,0.0,0.0
1.7774234947864898e-05,-4.878005711361766e-05,0.0,0.0,0.0
1.7812380974646658e-05,-4.905415335088037e-05,0.0,0.0,0.0
1.7770109479897656e-05,-4.9717673391569406e-05,0.0,0.0,0.0
1.7750775441527367e-05,-4.9926413339562714e-05,0.0,0.0,0.0
1.7175358152599074e-05,-4.947116394760087e-05,0.0,0.0,0.0
1.70769289979944e-05,-4.955460099154152e-05,0.0,0.0,0.0
1.80163169716252e-05,-4.979170626029372e-05,0.0,0.0,0.0
1.822464582801331e-05,-4.931709190714173e-05,0.0,0.0,0.0
1.804447492759209e-05,-4.964881009072997e-05,0.0,0.0,0.0
1.845333827077411e-05,-4.943610474583693e-05,0.0,0.0,0.0
1.8191554772784002e-05,-4.9306541768601164e-05,0.0,0.0,0.0
1.812124355637934e-05,-4.9619240598985925e-05,0.0,0.0,0.0
1.8135082427761517e-05,-4.945032196701504e-05,0.0,0.0,0.0
1.833210262702778e-05,-4.933712989441119e-05,0.0,0.0,0.0
1.8490527509129606e-05,-4.935399192618206e-05,0.0,0.0,0.0
1.843846621341072e-05,-4.915356475976296e-05,0.0,0.0,0.0
1.8486454791855067e-05,-4.8819601943250746e-05,0.0,0.0,0.0
1.8101776731782593e-05,-4.86805074615404e-05,0.0,0.0,0.0
1.7802674847189337e-05,-4.867030293098651e-05,0.0,0.0,0.0
1.807861372071784e-05,-4.8832498578121886e-05,0.0,0.0,0.0
1.833260103012435e-05,-4.872506906394847e-05,0.0,0.0,0.0
1.8125212591257878e-05,-4.848998651141301e-05,0.0,0.0,0.0
1.824817263695877e-05,-4.841274494538084e-05,0.0,0.0,0.0
1.834074646467343e-05,-4.8056277591967955e-05,0.0,0.0,0.0
1.806267027859576e-05,-4.8150559450732544e-05,0.0,0.0,0.0
1.778324985934887e-05,-4.859421824221499e-05,0.0,0.0,0.0
1.7800477507989854e-05,-4.835921208723448e-05,0.0,0.0,0.0
1.778393743734341e-05,-4.8389167204732075e-05,0.0,0.0,0.0
1.779966078174766e-05,-4.871310375165194e-05,0.0,0.0,0.0
1.7699792806524783e-05,-4.899457417195663e-05,0.0,0.0,0.0
1.7229689547093585e-05,-4.899442137684673e-05,0.0,0.0,0.0
1.7330603441223502e-05,-4.870317570748739e-05,0.0,0.0,0.0
1.7250746168429032e-05,-4.8653007979737595e-05,0.0,0.0,0.0
1.7298829334322363e-05,-4.8696139856474474e-05,0.0,0.0,0.0
1.7863658285932615e-05,-4.893611912848428e-05,0.0,0.0,0.0
1.7723001292324625e-05,-4.879756670561619e-05,0.0,0.0,0.0
1.810094909160398e-05,-4.910984353045933e-05,0.0,0.0,0.0
1.836333831306547e-05,-4.9228357966057956e-05,0.0,0.0,0.0
1.8493436073185876e-05,-4.8647805670043454e-05,0.0,0.0,0.0
1.822047124733217e-05,-4.9203466915059835e-05,0.0,0.0,0.0
1.811717447708361e-05,-4.932785304845311e-05,0.0,0.0,0.0
1.8344389900448732e-05,-4.935847027809359e-05,0.0,0.0,0.0
1.826869265642017e-05,-4.9727481382433325e-05,0.0,0.0,0.0
1.8124790585716255e-05,-5.003797195968218e-05,0.0,0.0,0.0
1.8124610505765304e-05,-5.00096648465842e-05,0.0,0.0,0.0
1.8295284462510608e-05,-5.002043326385319e-05,0.0,0.0,0.0
1.845267615863122e-05,-5.0024420488625765e-05,0.0,0.0,0.0
1.8339380403631367e-05,-4.986998828826472e-05,0.0,0.0,0.0
1.8243916201754473e-05,-4.95763415528927e-05,0.0,0.0,0.0
1.8468554117134772e-05,-4.9450070946477354e-05,0.0,0.0,0.0
1.8455437384545803e-05,-4.968890789314173e-05,0.0,0.0,0.0
1.8473496311344206e-05,-4.967405766365118e-05,0.0,0.0,0.0
1.8451893993187696e-05,-4.961047670803964e-05,0.0,0.0,0.0
1.8401366105536e-05,-4.928100315737538e-05,0.0,0.0,0.0
1.814027018554043e-05,-4.903410444967449e-05,0.0,0.0,0.0
1.8172071577282622e-05,-4.898998304270208e-05,0.0,0.0,0.0
1.843725112848915e-05,-4.899081977782771e-05,0.0,0.0,0.0
1.8487155102775432e-05,-4.872309000347741e-05,0.0,0.0,0.0
1.8399667169433087e-05,-4.894123412668705e-05,0.0,0.0,0.0
1.789448651834391e-05,-4.875850572716445e-05,0.0,0.0,0.0
1.7992120774579234e-05,-4.889556657872163e-05,0.0,0.0,0.0
1.8518145225243643e-05,-4.8831734602572396e-05,0.0,0.0,0.0
1.8407028619549237e-05,-4.829425961361267e-05,0.0,0.0,0.0
1.825288745749276e-05,-4.8400277592008933e-05,0.0,0.0,0.0
1.7817810658016242e-05,-4.8050009354483336e-05,0.0,0.0,0.0
1.7580958228791133e-05,-4.801115210284479e-05,0.0,0.0,0.0
1.764061198628042e-05,-4.800417445949279e-05,0.0,0.0,0.0
1.7840788132161833e-05,-4.821379843633622e-05,0.0,0.0,0.0
1.795894786482677e-05,-4.8567795602139086e-05,0.0,0.0,0.0
1.778257683326956e-05,-4.866605740971863e-05,0.0,0.0,0.0
1.758989856170956e-05,-4.8688209062675014e-05,0.0,0.0,0.0
1.7491602193331346e-05,-4.86632707179524e-05,0.0,0.0,0.0
1.7245760318473913e-05,-4.868983160122298e-05,0.0,0.0,0.0
1.7626338376430795e-05,-4.866264862357639e-05,0.0,0.0,0.0
1.7505093637737446e-05,-4.868960604653694e-05,0.0,0.0,0.0
1.7386253603035584e-05,-4.866357267019339e-05,0.0,0.0,0.0
1.7891343304654583e-05,-4.868811083724722e-05,0.0,0.0,0.0
1.8016340618487448e-05,-4.87718716613017e-05,0.0,0.0,0.0
1.7819549611886032e-05,-4.9006161134457216e-05,0.0,0.0,0.0
1.7846150512923487e-05,-4.9101992772193626e-05,0.0,0.0,0.0
1.8213344446849078e-05,-4.932137380819768e-05,0.0,0.0,0.0
1.8358663510298356e-05,-4.9306490836897865e-05,0.0,0.0,0.0
1.819674980652053e-05,-4.9074384151026607e-05,0.0,0.0,0.0
1.7979187759920023e-05,-4.9307993322145194e-05,0.0,0.0,0.0
1.76164412550861e-05,-4.938105121254921e-05,0.0,0.0,0.0
1.7663118342170492e-05,-4.9320111429551616e-05,0.0,0.0,0.0
1.8214395822724327e-05,-4.936992991133593e-05,0.0,0.0,0.0
1.77675156010082e-05,-4.9330246838508174e-05,0.0,0.0,0.0
1.808782144507859e-05,-4.9360765842720866e-05,0.0,0.0,0.0
1.8151144104194827e-05,-4.907259062747471e-05,0.0,0.0,0.0
1.8105867638951167e-05,-4.923856977256946e-05,0.0,0.0,0.0
1.839288233895786e-05,-4.89155063405633e-05,0.0,0.0,0.0
1.823774255171884e-05,-4.880539563600905e-05,0.0,0.0,0.0
1.7875401681521907e-05,-4.8901525588007644e-05,0.0,0.0,0.0
1.8004939192906022e-05,-4.856128362007439e-05,0.0,0.0,0.0
1.8148568415199406e-05,-4.8770503781270236e-05,0.0,0.0,0.0
1.8107097275787964e-05,-4.8792109737405553e-05,0.0,0.0,0.0
1.814803727029357e-05,-4.890138370683417e-05,0.0,0.0,0.0
1.7937623852049e-05,-4.844476279686205e-05,0.0,0.0,0.0
1.780691854946781e-05,-4.8221645556623116e-05,0.0,0.0,0.0
1.8074497347697616e-05,-4.827403972740285e-05,0.0,0.0,0.0
1.847475505201146e-05,-4.868888936471194e-05,0.0,0.0,0.0
1.8579525203676894e-05,-4.854601138504222e-05,0.0,0.0,0.0
1.8684928363654763e-05,-4.8109639465110376e-05,0.0,0.0,0.0
1.8365317373536527e-05,-4.780458766617812e-05,0.0,0.0,0.0
1.8041539078694768e-05,-4.814868589164689e-05,0.0,0.0,0.0
1.7886372006614693e-05,-4.851636549574323e-05,0.0,0.0,0.0
1.8024453311227262e-05,-4.818282832275145e-05,0.0,0.0,0.0
