1.738350147206802e-05,-4.868443647865206e-05,0.0,0.0,0.0
1.77934725797968e-05,-4.866953895543702e-05,0.0,0.0,0.0
1.751410854922142e-05,-4.868230826104991e-05,0.0,0.0,0.0
1.76857975020539e-05,-4.8670408432371914e-05,0.0,0.0,0.0
1.7601398212718777e-05,-4.8682428314350545e-05,0.0,0.0,0.0
1.7850483345682733e-05,-4.86695280415006e-05,0.0,0.0,0.0
1.779172453097999e-05,-4.84605370729696e-05,0.0,0.0,0.0
1.7322596249869093e-05,-4.852355414186604e-05,0.0,0.0,0.0
1.7161293726530857e-05,-4.872128556598909e-05,0.0,0.0,0.0
1.6860340110724792e-05,-4.844511568080634e-05,0.0,0.0,0.0
1.7403774108970538e-05,-4.8545254685450345e-05,0.0,0.0,0.0
1.7215788830071688e-05,-4.8492216592421755e-05,0.0,0.0,0.0
1.7166665202239528e-05,-4.850911136600189e-05,0.0,0.0,0.0
1.7090873370761983e-05,-4.837006054003723e-05,0.0,0.0,0.0
1.7136319002020173e-05,-4.801851900992915e-05,0.0,0.0,0.0
1.71168903762009e-05,-4.799056114279665e-05,0.0,0.0,0.0
1.7114327420131303e-05,-4.8253670684061944e-05,0.0,0.0,0.0
1.7135162124759518e-05,-4.863708818447776e-05,0.0,0.0,0.0
1.7195192413055338e-05,-4.852080746786669e-05,0.0,0.0,0.0
1.7293745258939452e-05,-4.809450183529407e-05,0.0,0.0,0.0
1.6814843547763303e-05,-4.824201459996402e-05,0.0,0.0,0.0
1.683036498434376e-05,-4.804905256605707e-05,0.0,0.0,0.0
1.7100697732530534e-05,-4.796910798177123e-05,0.0,0.0,0.0
1.7144167941296473e-05,-4.8033234634203836e-05,0.0,0.0,0.0
1.7062715414795093e-05,-4.80149537906982e-05,0.0,0.0,0.0
1.6850957763381302e-05,-4.829688259633258e-05,0.0,0.0,0.0
1.6724245142540894e-05,-4.806821380043402e-05,0.0,0.0,0.0
1.7127174942288548e-05,-4.794917185790837e-05,0.0,0.0,0.0
1.6835783753776923e-05,-4.860643457504921e-05,0.0,0.0,0.0
1.6756537661422044e-05,-4.817824446945451e-05,0.0,0.0,0.0
1.6806652638479136e-05,-4.7653287765569985e-05,0.0,0.0,0.0
1.7013317119563e-05,-4.845134390052408e-05,0.0,0.0,0.0
1.716012593533378e-05,-4.872117642662488e-05,0.0,0.0,0.0
1.7312728232354857e-05,-4.8413421609438956e-05,0.0,0.0,0.0
1.7288981325691566e-05,-4.814114436157979e-05,0.0,0.0,0.0
1.6662819689372554e-05,-4.797500150743872e-05,0.0,0.0,0.0
1.7036902136169374e-05,-4.822181654162705e-05,0.0,0.0,0.0
1.748111935739871e-05,-4.8511181375943124e-05,0.0,0.0,0.0
1.760404666129034e-05,-4.869254189543426e-05,0.0,0.0,0.0
1.7656975614954717e-05,-4.866325616603717e-05,0.0,0.0,0.0
1.7434165783924982e-05,-4.8835201596375555e-05,0.0,0.0,0.0
1.7336298697046004e-05,-4.886435272055678e-05,0.0,0.0,0.0
1.7111533452407457e-05,-4.868847827310674e-05,0.0,0.0,0.0
1.73607659235131e-05,-4.855004226556048e-05,0.0,0.0,0.0
1.776447970769368e-05,-4.8359219363192096e-05,0.0,0.0,0.0
1.77180118043907e-05,-4.832599370274693e-05,0.0,0.0,0.0
1.745860390656162e-05,-4.843662100029178e-05,0.0,0.0,0.0
1.752641583152581e-05,-4.864655056735501e-05,0.0,0.0,0.0
1.7772847058949992e-05,-4.857229578192346e-05,0.0,0.0,0.0
1.7805883544497192e-05,-4.804396303370595e-05,0.0,0.0,0.0
1.769777554727625e-05,-4.805469870916568e-05,0.0,0.0,0.0
1.7164327800855972e-05,-4.8637371946824715e-05,0.0,0.0,0.0
1.6783464161562733e-05,-4.8665340727893636e-05,0.0,0.0,0.0
1.70945750141982e-05,-4.806362630915828e-05,0.0,0.0,0.0
1.7146214304375462e-05,-4.852751953876577e-05,0.0,0.0,0.0
1.709573552943766e-05,-4.852697384194471e-05,0.0,0.0,0.0
1.6878717360668816e-05,-4.819530659005977e-05,0.0,0.0,0.0
1.6982869055937044e-05,-4.871694909525104e-05,0.0,0.0,0.0
1.7202035451191477e-05,-4.860808985540643e-05,0.0,0.0,0.0
1.7050975657184608e-05,-4.87300603708718e-05,0.0,0.0,0.0
1.6956111721810885e-05,-4.841199188376777e-05,0.0,0.0,0.0
1.6502161088283174e-05,-4.856174564338289e-05,0.0,0.0,0.0
1.6488804249092937e-05,-4.828783494303934e-05,0.0,0.0,0.0
1.6417996448581107e-05,-4.7957895731087774e-05,0.0,0.0,0.0
1.6834534108056687e-05,-4.804844502359629e-05,0.0,0.0,0.0
1.7119355106842704e-05,-4.796475332113914e-05,0.0,0.0,0.0
1.7118969481089152e-05,-4.836064181290567e-05,0.0,0.0,0.0
1.7124782971222885e-05,-4.849653851124458e-05,0.0,0.0,0.0
1.6976096958387643e-05,-4.8371079174103215e-05,0.0,0.0,0.0
1.6925954696489498e-05,-4.818502566195093e-05,0.0,0.0,0.0
1.7214693798450753e-05,-4.815594365936704e-05,0.0,0.0,0.0
1.7572901924722828e-05,-4.8404530389234424e-05,0.0,0.0,0.0
1.766984860296361e-05,-4.8698064347263426e-05,0.0,0.0,0.0
1.741475898597855e-05,-4.848711614613421e-05,0.0,0.0,0.0
1.7103513528127223e-05,-4.8065208829939365e-05,0.0,0.0,0.0
1.7200582078658044e-05,-4.801743489224464e-05,0.0,0.0,0.0
1.7465756172896363e-05,-4.840803376282565e-05,0.0,0.0,0.0
1.779836748028174e-05,-4.8633370170136914e-05,0.0,0.0,0.0
1.7722113625495695e-05,-4.871131750405766e-05,0.0,0.0,0.0
1.7203556126332842e-05,-4.8648380470694974e-05,0.0,0.0,0.0
1.7049918824341148e-05,-4.869775875704363e-05,0.0,0.0,0.0
1.7467265934101306e-05,-4.8660538595868275e-05,0.0,0.0,0.0
1.744810833770316e-05,-4.868693940807134e-05,0.0,0.0,0.0
1.746205634844955e-05,-4.867007737630047e-05,0.0,0.0,0.0
1.7708049199427478e-05,-4.816814907826483e-05,0.0,0.0,0.0
1.7824666429078206e-05,-4.843280839850195e-05,0.0,0.0,0.0
1.7766309611033648e-05,-4.901396096101962e-05,0.0,0.0,0.0
1.7588201444596052e-05,-4.8507063183933496e-05,0.0,0.0,0.0
1.742113454383798e-05,-4.855471706832759e-05,0.0,0.0,0.0
1.7685142665868625e-05,-4.849609103985131e-05,0.0,0.0,0.0
1.77872152562486e-05,-4.830276157008484e-05,0.0,0.0,0.0
1.7612086594454013e-05,-4.801511749974452e-05,0.0,0.0,0.0
1.7621065126149915e-05,-4.761925811180845e-05,0.0,0.0,0.0
1.7478696463513188e-05,-4.803300544153899e-05,0.0,0.0,0.0
1.741472806315869e-05,-4.815440115635283e-05,0.0,0.0,0.0
1.76486046257196e-05,-4.817857552552596e-05,0.0,0.0,0.0
1.747058195178397e-05,-4.817606168217026e-05,0.0,0.0,0.0
1.743972643453162e-05,-4.8280027840519324e-05,0.0,0.0,0.0
1.73682565218769e-05,-4.840374458581209e-05,0.0,0.0,0.0
1.7116584785981104e-05,-4.808697121916339e-05,0.0,0.0,0.0
1.7127455066656694e-05,-4.810523023479618e-05,0.0,0.0,0.0
1.696275830909144e-05,-4.8690795665606856e-05,0.0,0.0,0.0
1.657420943956822e-05,-4.853798236581497e-05,0.0,0.0,0.0
1.6648451492073946e-05,-4.8175686970353127e-05,0.0,0.0,0.0
1.6596433852100745e-05,-4.847460877499543e-05,0.0,0.0,0.0
1.6659741959301755e-05,-4.8171710659516975e-05,0.0,0.0,0.0
1.6912359569687396e-05,-4.786713179782964e-05,0.0,0.0,0.0
1.6989970390568487e-05,-4.8116446123458445e-05,0.0,0.0,0.0
1.7228965589310974e-05,-4.849104516324587e-05,0.0,0.0,0.0
1.758551661623642e-05,-4.8825721023604274e-05,0.0,0.0,0.0
1.7671563909971155e-05,-4.85587734146975e-05,0.0,0.0,0.0
1.7050035239662975e-05,-4.851026096730493e-05,0.0,0.0,0.0
1.7209078578162007e-05,-4.8000500100897625e-05,0.0,0.0,0.0
1.728895222186111e-05,-4.827969314646907e-05,0.0,0.0,0.0
1.730304938973859e-05,-4.856620216742158e-05,0.0,0.0,0.0
1.7051001123036258e-05,-4.868345058639534e-05,0.0,0.0,0.0
1.71678821061505e-05,-4.868223186349496e-05,0.0,0.0,0.0
1.747556234477088e-05,-4.865956725552678e-05,0.0,0.0,0.0
1.800659993023146e-05,-4.834001447306946e-05,0.0,0.0,0.0
1.794962190615479e-05,-4.829747194889933e-05,0.0,0.0,0.0
1.7622229279368185e-05,-4.873501893598586e-05,0.0,0.0,0.0
1.74755732587073e-05,-4.861885099671781e-05,0.0,0.0,0.0
1.7290272808168083e-05,-4.873153011430986e-05,0.0,0.0,0.0
1.7415612092008814e-05,-4.8496320232516155e-05,0.0,0.0,0.0
1.7730671970639378e-05,-4.828115561394952e-05,0.0,0.0,0.0
1.764099215506576e-05,-4.807082223123871e-05,0.0,0.0,0.0
1.7186242985189892e-05,-4.845765215577558e-05,0.0,0.0,0.0
1.7385180399287492e-05,-4.8638034058967605e-05,0.0,0.0,0.0
1.7199119611177593e-05,-4.8560741561232135e-05,0.0,0.0,0.0
1.7369085981044918e-05,-4.8154724936466664e-05,0.0,0.0,0.0
1.721757507766597e-05,-4.854627331951633e-05,0.0,0.0,0.0
1.734903344186023e-05,-4.8396123020211235e-05,0.0,0.0,0.0
1.720664840831887e-05,-4.802015973837115e-05,0.0,0.0,0.0
1.7051883332896978e-05,-4.861904017161578e-05,0.0,0.0,0.0
1.7174452295876108e-05,-4.8413021431770176e-05,0.0,0.0,0.0
1.70795447047567e-05,-4.799263479071669e-05,0.0,0.0,0.0
1.7150905478047207e-05,-4.773734326590784e-05,0.0,0.0,0.0
1.7099373508244753e-05,-4.789142985828221e-05,0.0,0.0,0.0
1.7134418158093467e-05,-4.832904596696608e-05,0.0,0.0,0.0
1.686827454250306e-05,-4.807218647329137e-05,0.0,0.0,0.0
1.652610080782324e-05,-4.799346424988471e-05,0.0,0.0,0.0
1.6448640963062644e-05,-4.8018213419709355e-05,0.0,0.0,0.0
1.6447118468931876e-05,-4.7989993618102744e-05,0.0,0.0,0.0
1.6857346054166555e-05,-4.8425117711303756e-05,0.0,0.0,0.0
1.7144457160611637e-05,-4.8305468226317316e-05,0.0,0.0,0.0
1.692174373602029e-05,-4.7976122004911304e-05,0.0,0.0,0.0
1.679037814028561e-05,-4.802472540177405e-05,0.0,0.0,0.0
1.694137063168455e-05,-4.7833254939178005e-05,0.0,0.0,0.0
1.7123173165600747e-05,-4.782231917488389e-05,0.0,0.0,0.0
1.71197625604691e-05,-4.8003701522247866e-05,0.0,0.0,0.0
1.712028642941732e-05,-4.8129357310244814e-05,0.0,0.0,0.0
1.7355705494992435e-05,-4.833850834984332e-05,0.0,0.0,0.0
1.7660042431089096e-05,-4.833875937038101e-05,0.0,0.0,0.0
1.7494121493655257e-05,-4.8441241233376786e-05,0.0,0.0,0.0
1.7338759789709002e-05,-4.865023583988659e-05,0.0,0.0,0.0
1.7170079445349984e-05,-4.8701393097871915e-05,0.0,0.0,0.0
1.714293466648087e-05,-4.865241498919204e-05,0.0,0.0,0.0
1.751502713887021e-05,-4.8698639147914946e-05,0.0,0.0,0.0
1.7671840396360494e-05,-4.865563823841512e-05,0.0,0.0,0.0
1.721927765174769e-05,-4.8695052100811154e-05,0.0,0.0,0.0
1.701774999673944e-05,-4.865949449595064e-05,0.0,0.0,0.0
1.6893049178179353e-05,-4.869100666837767e-05,0.0,0.0,0.0
1.7271313481614925e-05,-4.866363815381192e-05,0.0,0.0,0.0
1.760825398378074e-05,-4.868683754466474e-05,0.0,0.0,0.0
1.7599930288270116e-05,-4.866777453571558e-05,0.0,0.0,0.0
1.7411806766176596e-05,-4.868279938818887e-05,0.0,0.0,0.0
1.6957239495241083e-05,-4.8671659897081554e-05,0.0,0.0,0.0
1.7247937648789957e-05,-4.8679103201720864e-05,0.0,0.0,0.0
1.7025129636749625e-05,-4.867512689088471e-05,0.0,0.0,0.0
1.7188285710290074e-05,-4.867589450441301e-05,0.0,0.0,0.0
1.687500480329618e-05,-4.867805546382442e-05,0.0,0.0,0.0
1.6984746253001504e-05,-4.8290410632034764e-05,0.0,0.0,0.0
1.7138308976427652e-05,-4.834816718357615e-05,0.0,0.0,0.0
1.69226204889128e-05,-4.870536577072926e-05,0.0,0.0,0.0
1.6975642211036757e-05,-4.8495068767806515e-05,0.0,0.0,0.0
1.7083815691876225e-05,-4.820561298402026e-05,0.0,0.0,0.0
1.7162799849756993e-05,-4.827480734093115e-05,0.0,0.0,0.0
1.6947233234532177e-05,-4.8539990530116484e-05,0.0,0.0,0.0
1.6958429114311002e-05,-4.8477504606125876e-05,0.0,0.0,0.0
1.7052543626050465e-05,-4.843075294047594e-05,0.0,0.0,0.0
1.7185468095703982e-05,-4.8162917664740235e-05,0.0,0.0,0.0
1.6889622202143073e-05,-4.8350513679906726e-05,0.0,0.0,0.0
1.662389695411548e-05,-4.857215753872879e-05,0.0,0.0,0.0
1.6670959666953422e-05,-4.8079233238240704e-05,0.0,0.0,0.0
1.693696503934916e-05,-4.825128416996449e-05,0.0,0.0,0.0
1.7046731954906136e-05,-4.815118882106617e-05,0.0,0.0,0.0
1.748711110849399e-05,-4.8523426812607795e-05,0.0,0.0,0.0
1.7108342944993638e-05,-4.847980380873196e-05,0.0,0.0,0.0
1.712778066575993e-05,-4.82254326925613e-05,0.0,0.0,0.0
1.7118300092988648e-05,-4.872136560152285e-05,0.0,0.0,0.0
1.7118451069109142e-05,-4.808980520465411e-05,0.0,0.0,0.0
1.7126907550846227e-05,-4.795275890501216e-05,0.0,0.0,0.0
1.76211087818956e-05,-4.856361192651093e-05,0.0,0.0,0.0
1.811211768654175e-05,-4.8694226279621944e-05,0.0,0.0,0.0
1.738568244036287e-05,-4.8664714995538816e-05,0.0,0.0,0.0
1.7084996215999126e-05,-4.868249379796907e-05,0.0,0.0,0.0
1.7146092432085425e-05,-4.867447933065705e-05,0.0,0.0,0.0
1.7104119251598604e-05,-4.867450843448751e-05,0.0,0.0,0.0
1.71293049788801e-05,-4.8680863983463496e-05,0.0,0.0,0.0
1.7299467799603008e-05,-4.8669557145331055e-05,0.0,0.0,0.0
1.7290283722104505e-05,-4.8684541980037466e-05,0.0,0.0,0.0
1.711818367766682e-05,-4.8667003284208477e-05,0.0,0.0,0.0
1.7414682588423602e-05,-4.8686120862839743e-05,0.0,0.0,0.0
1.7658390788710676e-05,-4.8804515245137736e-05,0.0,0.0,0.0
1.7452861357014626e-05,-4.8888829041970894e-05,0.0,0.0,0.0
1.7463724361732602e-05,-4.8563353630015627e-05,0.0,0.0,0.0
1.7339491023449227e-05,-4.834963692701422e-05,0.0,0.0,0.0
1.7148759070551023e-05,-4.833242928725667e-05,0.0,0.0,0.0
1.70930870808661e-05,-4.843280112254433e-05,0.0,0.0,0.0
1.7221573216374964e-05,-4.8573787353234366e-05,0.0,0.0,0.0
1.7469696103944443e-05,-4.832575359614566e-05,0.0,0.0,0.0
1.7701999240671284e-05,-4.799242378794588e-05,0.0,0.0,0.0
1.716925726213958e-05,-4.801440809387714e-05,0.0,0.0,0.0
1.7080372344935313e-05,-4.806186552741565e-05,0.0,0.0,0.0
1.715357393550221e-05,-4.856091254623607e-05,0.0,0.0,0.0
1.709398566163145e-05,-4.8151970986509696e-05,0.0,0.0,0.0
1.7141845091828145e-05,-4.787936632055789e-05,0.0,0.0,0.0
1.710400465526618e-05,-4.8110829084180295e-05,0.0,0.0,0.0
1.7133366782218218e-05,-4.791662286152132e-05,0.0,0.0,0.0
1.7111100532929413e-05,-4.807724690181203e-05,0.0,0.0,0.0
1.712750417937059e-05,-4.819134119316004e-05,0.0,0.0,0.0
1.711586992314551e-05,-4.817992157768458e-05,0.0,0.0,0.0
1.712369885353837e-05,-4.7922920202836394e-05,0.0,0.0,0.0
1.711883487587329e-05,-4.828143210033886e-05,0.0,0.0,0.0
1.6919400877668522e-05,-4.8108478949870914e-05,0.0,0.0,0.0
1.6578798749833368e-05,-4.8009518650360405e-05,0.0,0.0,0.0
1.6811334717203863e-05,-4.800702299689874e-05,0.0,0.0,0.0
1.7306505469605327e-05,-4.7997149522416294e-05,0.0,0.0,0.0
1.7288344679400325e-05,-4.801714021596126e-05,0.0,0.0,0.0
1.7424026736989617e-05,-4.798908776137978e-05,0.0,0.0,0.0
1.750680894474499e-05,-4.816159344045445e-05,0.0,0.0,0.0
1.7521746485726908e-05,-4.831486148759723e-05,0.0,0.0,0.0
1.8202714272774756e-05,-4.848383832722902e-05,0.0,0.0,0.0
1.827492997108493e-05,-4.8531645006733015e-05,0.0,0.0,0.0
1.770646485965699e-05,-4.8487752792425454e-05,0.0,0.0,0.0
1.73807729879627e-05,-4.852572601521388e-05,0.0,0.0,0.0
1.728380811982788e-05,-4.849509059567936e-05,0.0,0.0,0.0
1.7728654711390845e-05,-4.851746780332178e-05,0.0,0.0,0.0
1.7793223378248513e-05,-4.850384357268922e-05,0.0,0.0,0.0
1.74846027221065e-05,-4.85511300212238e-05,0.0,0.0,0.0
1.773654730641283e-05,-4.8781061195768416e-05,0.0,0.0,0.0
1.7515385479782708e-05,-4.8590085498290136e-05,0.0,0.0,0.0
1.7406015103915706e-05,-4.874560909229331e-05,0.0,0.0,0.0
1.7785787349566817e-05,-4.862215428147465e-05,0.0,0.0,0.0
1.779800732037984e-05,-4.8716803576098755e-05,0.0,0.0,0.0
1.7520420442451723e-05,-4.838195673073642e-05,0.0,0.0,0.0
1.7427333659725264e-05,-4.8579218855593354e-05,0.0,0.0,0.0
1.7724478311720304e-05,-4.872750650974922e-05,0.0,0.0,0.0
1.7567150280228816e-05,-4.862748392042704e-05,0.0,0.0,0.0
1.764643457136117e-05,-4.82758077851031e-05,0.0,0.0,0.0
1.741645064612385e-05,-4.79191257909406e-05,0.0,0.0,0.0
1.704291207715869e-05,-4.848467142437585e-05,0.0,0.0,0.0
1.718508792691864e-05,-4.8639121814630926e-05,0.0,0.0,0.0
1.724889261822682e-05,-4.834811625187285e-05,0.0,0.0,0.0
1.7335862139589153e-05,-4.82996620121412e-05,0.0,0.0,0.0
1.7077394659281708e-05,-4.872440695180558e-05,0.0,0.0,0.0
1.7450889572501183e-05,-4.848729440709576e-05,0.0,0.0,0.0
1.7350048437947407e-05,-4.865189839620143e-05,0.0,0.0,0.0
1.6819942175061442e-05,-4.85903219669126e-05,0.0,0.0,0.0
1.6759016943979077e-05,-4.806242941413075e-05,0.0,0.0,0.0
1.6696545571903698e-05,-4.8170186346396804e-05,0.0,0.0,0.0
1.6453459465992637e-05,-4.868375253863633e-05,0.0,0.0,0.0
1.644135409151204e-05,-4.8672711272956803e-05,0.0,0.0,0.0
1.6534435417270288e-05,-4.8601985326968133e-05,0.0,0.0,0.0
1.6682806744938716e-05,-4.83048970636446e-05,0.0,0.0,0.0
1.6514008166268468e-05,-4.805983553524129e-05,0.0,0.0,0.0
1.63911117851967e-05,-4.835235813516192e-05,0.0,0.0,0.0
1.656472340982873e-05,-4.860060289502144e-05,0.0,0.0,0.0
1.6912816136027686e-05,-4.811632970813662e-05,0.0,0.0,0.0
1.6050575140980072e-05,-4.821948823519051e-05,0.0,0.0,0.0
1.6121297448989935e-05,-4.8732188588473946e-05,0.0,0.0,0.0
1.7277037841267884e-05,-4.862814967054874e-05,0.0,0.0,0.0
1.670359961281065e-05,-4.871724377153441e-05,0.0,0.0,0.0
1.712601624603849e-05,-4.864189031650312e-05,0.0,0.0,0.0
1.708771196717862e-05,-4.846007141168229e-05,0.0,0.0,0.0
1.7139474948635325e-05,-4.8523801524424925e-05,0.0,0.0,0.0
1.71139145095367e-05,-4.874192381976172e-05,0.0,0.0,0.0
1.7329681213595904e-05,-4.862338391831145e-05,0.0,0.0,0.0
1.7688533262116835e-05,-4.871776400250383e-05,0.0,0.0,0.0
1.7772352293832228e-05,-4.864494258072227e-05,0.0,0.0,0.0
1.7817155821830966e-05,-4.86986682517454e-05,0.0,0.0,0.0
1.776268800313119e-05,-4.866171002504416e-05,0.0,0.0,0.0
1.766486093401909e-05,-4.868408359470777e-05,0.0,0.0,0.0
1.7718501112540253e-05,-4.867425377597101e-05,0.0,0.0,0.0
1.788326699170284e-05,-4.8673446144675836e-05,0.0,0.0,0.0
1.7562655557412654e-05,-4.8683130444260314e-05,0.0,0.0,0.0
1.7688209482003003e-05,-4.86661956529133e-05,0.0,0.0,0.0
1.745406916597858e-05,-4.879524203715846e-05,0.0,0.0,0.0
1.7365011444780976e-05,-4.888640978606418e-05,0.0,0.0,0.0
1.713342862785794e-05,-4.8723923100624233e-05,0.0,0.0,0.0
1.7185860997415148e-05,-4.863257345277816e-05,0.0,0.0,0.0
1.7373547962051816e-05,-4.858840839006007e-05,0.0,0.0,0.0
1.7166637917398475e-05,-4.807953519048169e-05,0.0,0.0,0.0
1.712326775304973e-05,-4.833440834772773e-05,0.0,0.0,0.0
1.7423148165107705e-05,-4.8680863983463496e-05,0.0,0.0,0.0
1.718199928291142e-05,-4.867409006692469e-05,0.0,0.0,0.0
1.7379759810864925e-05,-4.867658208240755e-05,0.0,0.0,0.0
1.7521682821097784e-05,-4.867741881753318e-05,0.0,0.0,0.0
1.712444100121502e-05,-4.839758184971288e-05,0.0,0.0,0.0
1.6597619833191857e-05,-4.777398135047406e-05,0.0,0.0,0.0
1.6883677744772285e-05,-4.7628494939999655e-05,0.0,0.0,0.0
1.7246165953110904e-05,-4.770424493472092e-05,0.0,0.0,0.0
1.7016782294376753e-05,-4.787338912137784e-05,0.0,0.0,0.0
1.698175947240088e-05,-4.827751763514243e-05,0.0,0.0,0.0
1.6909189071157016e-05,-4.853385689784773e-05,0.0,0.0,0.0
1.7006061170832254e-05,-4.850715049542487e-05,0.0,0.0,0.0
1.6893936845008284e-05,-4.849157630815171e-05,0.0,0.0,0.0
1.7194486645166762e-05,-4.853824793826789e-05,0.0,0.0,0.0
1.706604234641418e-05,-4.829989848076366e-05,0.0,0.0,0.0
1.7158450646093115e-05,-4.821139373234473e-05,0.0,0.0,0.0
1.7246095012524165e-05,-4.813132909475826e-05,0.0,0.0,0.0
1.746541056490969e-05,-4.849077231483534e-05,0.0,0.0,0.0
1.7585027308086865e-05,-4.841090412810445e-05,0.0,0.0,0.0
1.7656875570537522e-05,-4.825969517696649e-05,0.0,0.0,0.0
1.7492075130576268e-05,-4.863932917942293e-05,0.0,0.0,0.0
1.732236887619365e-05,-4.87030774820596e-05,0.0,0.0,0.0
1.7178914276883006e-05,-4.874335354543291e-05,0.0,0.0,0.0
1.7064650819520466e-05,-4.892601282335818e-05,0.0,0.0,0.0
1.723748937365599e-05,-4.871622149948962e-05,0.0,0.0,0.0
1.7431197193218395e-05,-4.8637797590345144e-05,0.0,0.0,0.0
1.7787739125196822e-05,-4.875548620475456e-05,0.0,0.0,0.0
1.745646477502305e-05,-4.8910242185229436e-05,0.0,0.0,0.0
1.7479429516242817e-05,-4.8755719035398215e-05,0.0,0.0,0.0
1.774695010681171e-05,-4.829509271075949e-05,0.0,0.0,0.0
1.7831411241786554e-05,-4.8667217924958095e-05,0.0,0.0,0.0
1.7481674149166793e-05,-4.868357427767478e-05,0.0,0.0,0.0
1.7978767573367804e-05,-4.867036477662623e-05,0.0,0.0,0.0
1.7949552784557454e-05,-4.868115865974687e-05,0.0,0.0,0.0
1.7696029317448847e-05,-4.891675052931532e-05,0.0,0.0,0.0
1.763805266818963e-05,-4.8809433792484924e-05,0.0,0.0,0.0
1.71426945598796e-05,-4.840201654587872e-05,0.0,0.0,0.0
1.7173100786749274e-05,-4.857456588069908e-05,0.0,0.0,0.0
1.6877182133612223e-05,-4.827260272577405e-05,0.0,0.0,0.0
1.699355198070407e-05,-4.816654836758971e-05,0.0,0.0,0.0
1.7120408301707357e-05,-4.819574314751662e-05,0.0,0.0,0.0
1.677770706010051e-05,-4.81378665426746e-05,0.0,0.0,0.0
1.676392275840044e-05,-4.821523543796502e-05,0.0,0.0,0.0
1.72727886820212e-05,-4.8275036533595994e-05,0.0,0.0,0.0
1.7316440789727494e-05,-4.855408406001516e-05,0.0,0.0,0.0
1.7124577425420284e-05,-4.820869071409106e-05,0.0,0.0,0.0
1.700271423032973e-05,-4.81299139210023e-05,0.0,0.0,0.0
1.6795480405562557e-05,-4.843218994210474e-05,0.0,0.0,0.0
1.6682184650562704e-05,-4.8669433454051614e-05,0.0,0.0,0.0
1.6472024071845226e-05,-4.868627365794964e-05,0.0,0.0,0.0
1.6505942767253146e-05,-4.866376912104897e-05,0.0,0.0,0.0
1.6772994058555923e-05,-4.869072654400952e-05,0.0,0.0,0.0
1.684992093942128e-05,-4.86072531202808e-05,0.0,0.0,0.0
1.7077203665394336e-05,-4.843185524805449e-05,0.0,0.0,0.0
1.712673474685289e-05,-4.8596615670248866e-05,0.0,0.0,0.0
1.6811894965940155e-05,-4.874629667028785e-05,0.0,0.0,0.0
1.7074080460588448e-05,-4.861532215727493e-05,0.0,0.0,0.0
1.715990401862655e-05,-4.8728761612437665e-05,0.0,0.0,0.0
1.7364312952850014e-05,-4.863168578594923e-05,0.0,0.0,0.0
1.7255297279916704e-05,-4.871356577496044e-05,0.0,0.0,0.0
1.7032638425007463e-05,-4.8645728384144604e-05,0.0,0.0,0.0
1.768202128005214e-05,-4.87006691400893e-05,0.0,0.0,0.0
1.7789496268960647e-05,-4.865750088356435e-05,0.0,0.0,0.0
1.7568077964824624e-05,-4.86899989482481e-05,0.0,0.0,0.0
1.722563501971308e-05,-4.887979230261408e-05,0.0,0.0,0.0
1.7519241737318225e-05,-4.90349848405458e-05,0.0,0.0,0.0
1.7828311683842912e-05,-4.880415144725703e-05,0.0,0.0,0.0
1.7940325051313266e-05,-4.867565439781174e-05,0.0,0.0,0.0
1.7994250811170787e-05,-4.867995812674053e-05,0.0,0.0,0.0
1.791531940398272e-05,-4.882956272922456e-05,0.0,0.0,0.0
1.8159505998482928e-05,-4.88726727780886e-05,0.0,0.0,0.0
1.7825101167545654e-05,-4.866754898102954e-05,0.0,0.0,0.0
1.7743279386195354e-05,-4.868598625762388e-05,0.0,0.0,0.0
1.796750439098105e-05,-4.866590097662993e-05,0.0,0.0,0.0
1.7839631254901178e-05,-4.868705946137197e-05,0.0,0.0,0.0
1.7657293938100338e-05,-4.876105595030822e-05,0.0,0.0,0.0
1.7421174561604857e-05,-4.89190970256459e-05,0.0,0.0,0.0
1.7102365745813586e-05,-4.86291573906783e-05,0.0,0.0,0.0
1.7133474102593027e-05,-4.834389983443543e-05,0.0,0.0,0.0
1.711251024971716e-05,-4.828321107197553e-05,0.0,0.0,0.0
1.712463199510239e-05,-4.804164564120583e-05,0.0,0.0,0.0
1.7120124539360404e-05,-4.8036399675766006e-05,0.0,0.0,0.0
1.7118169125751592e-05,-4.8627152864355594e-05,0.0,0.0,0.0
1.712551420496311e-05,-4.871760029345751e-05,0.0,0.0,0.0
1.711377080937382e-05,-4.864192669629119e-05,0.0,0.0,0.0
1.7128999388660304e-05,-4.8427944420836866e-05,0.0,0.0,0.0
1.7111120541812852e-05,-4.8545978643232957e-05,0.0,0.0,0.0
1.7130892956629395e-05,-4.8249690735246986e-05,0.0,0.0,0.0
1.6865302313817665e-05,-4.811887629330158e-05,0.0,0.0,0.0
1.653404069656972e-05,-4.824083953280933e-05,0.0,0.0,0.0
1.6660409528412856e-05,-4.7872395953163505e-05,0.0,0.0,0.0
1.703070302028209e-05,-4.8109955969266593e-05,0.0,0.0,0.0
1.6907362805795856e-05,-4.7924058890203014e-05,0.0,0.0,0.0
1.6972257071756758e-05,-4.806443030247465e-05,0.0,0.0,0.0
1.7315036529907957e-05,-4.796385110239498e-05,0.0,0.0,0.0
1.7283782653976232e-05,-4.8370293370680884e-05,0.0,0.0,0.0
1.7117094103014097e-05,-4.867386815021746e-05,0.0,0.0,0.0
1.742200220178347e-05,-4.866926246904768e-05,0.0,0.0,0.0
1.7646088963374496e-05,-4.8690933908801526e-05,0.0,0.0,0.0
1.7724249119055457e-05,-4.8527992476010695e-05,0.0,0.0,0.0
1.7864740584627725e-05,-4.849150718655437e-05,0.0,0.0,0.0
1.7399608623236418e-05,-4.852184792980552e-05,0.0,0.0,0.0
1.7092977941501886e-05,-4.849910328630358e-05,0.0,0.0,0.0
1.7144293451565318e-05,-4.8598405555821955e-05,0.0,0.0,0.0
1.710066499072127e-05,-4.8747351684141904e-05,0.0,0.0,0.0
1.720094405754935e-05,-4.867592724622227e-05,0.0,0.0,0.0
1.741434789437335e-05,-4.898739280179143e-05,0.0,0.0,0.0
1.7491078324383125e-05,-4.872475255979225e-05,0.0,0.0,0.0
1.742811582516879e-05,-4.897277904092334e-05,0.0,0.0,0.0
1.7478616427979432e-05,-4.902315413346514e-05,0.0,0.0,0.0
1.743932079989463e-05,-4.869147960562259e-05,0.0,0.0,0.0
1.746861744322814e-05,-4.866268136538565e-05,0.0,0.0,0.0
1.7448166545364074e-05,-4.868807445745915e-05,0.0,0.0,0.0
1.7194995962199755e-05,-4.81346869491972e-05,0.0,0.0,0.0
1.708474155748263e-05,-4.819907189812511e-05,0.0,0.0,0.0
1.7148149709100835e-05,-4.8178742872551084e-05,0.0,0.0,0.0
1.710044853098225e-05,-4.837575397687033e-05,0.0,0.0,0.0
1.6911057173274457e-05,-4.880566120846197e-05,0.0,0.0,0.0
1.6968224372249097e-05,-4.8569960199529305e-05,0.0,0.0,0.0
1.7159542039735243e-05,-4.876209277426824e-05,0.0,0.0,0.0
1.690055796643719e-05,-4.860859553446062e-05,0.0,0.0,0.0
1.697422339930199e-05,-4.872804129263386e-05,0.0,0.0,0.0
1.7125645172200166e-05,-4.86383905808907e-05,0.0,0.0,0.0
1.7112402929342352e-05,-4.870218981523067e-05,0.0,0.0,0.0
1.7131327695096843e-05,-4.8362835514126346e-05,0.0,0.0,0.0
1.710807191557251e-05,-4.815431748284027e-05,0.0,0.0,0.0
1.713444544293452e-05,-4.8203746700892225e-05,0.0,0.0,0.0
1.6989051800919697e-05,-4.801615432370454e-05,0.0,0.0,0.0
1.681187131907791e-05,-4.821289985557087e-05,0.0,0.0,0.0
1.6663998394506052e-05,-4.8644851631252095e-05,0.0,0.0,0.0
1.6491198039148003e-05,-4.862255809712224e-05,0.0,0.0,0.0
1.641203198232688e-05,-4.8406316636828706e-05,0.0,0.0,0.0
1.654559855523985e-05,-4.859798718825914e-05,0.0,0.0,0.0
1.6781345038907602e-05,-4.843166607315652e-05,0.0,0.0,0.0
1.7094327631639317e-05,-4.8614991101203486e-05,0.0,0.0,0.0
1.6870857507456094e-05,-4.8725396482041106e-05,0.0,0.0,0.0
1.7338183170068078e-05,-4.863776484853588e-05,0.0,0.0,0.0
1.724547655612696e-05,-4.8705634981160983e-05,0.0,0.0,0.0
1.730189978843555e-05,-4.8654772399459034e-05,0.0,0.0,0.0
1.7309643226326443e-05,-4.869113763561472e-05,0.0,0.0,0.0
1.7241038221982308e-05,-4.840112160309218e-05,0.0,0.0,0.0
1.7354914234601893e-05,-4.805559728993103e-05,0.0,0.0,0.0
1.7209271391038783e-05,-4.8490717745153233e-05,0.0,0.0,0.0
1.7375097741023637e-05,-4.87322686240077e-05,0.0,0.0,0.0
1.6975573089439422e-05,-4.863193680648692e-05,0.0,0.0,0.0
1.7445801859139465e-05,-4.871048440691084e-05,0.0,0.0,0.0
1.7592392396181822e-05,-4.865082883043215e-05,0.0,0.0,0.0
1.8042046576738358e-05,-4.869424446951598e-05,0.0,0.0,0.0
1.774010706867557e-05,-4.8483860155101866e-05,0.0,0.0,0.0
1.7620515791350044e-05,-4.850919867749326e-05,0.0,0.0,0.0
1.7813106751418673e-05,-4.868523319601081e-05,0.0,0.0,0.0
1.77634628926171e-05,-4.8368354327976704e-05,0.0,0.0,0.0
1.7687980289338157e-05,-4.829639874515124e-05,0.0,0.0,0.0
1.729585164866876e-05,-4.8650366807123646e-05,0.0,0.0,0.0
1.72823820321355e-05,-4.8583719035377726e-05,0.0,0.0,0.0
1.7292406482738443e-05,-4.8329911805922166e-05,0.0,0.0,0.0
1.7191579900099896e-05,-4.844675277126953e-05,0.0,0.0,0.0
1.7054584532161243e-05,-4.847746095038019e-05,0.0,0.0,0.0
1.7106880477513187e-05,-4.807413279195316e-05,0.0,0.0,0.0
1.6818989024613984e-05,-4.794546839548275e-05,0.0,0.0,0.0
1.7119687981903553e-05,-4.8055175284389406e-05,0.0,0.0,0.0
1.720480213407427e-05,-4.800555689143948e-05,0.0,0.0,0.0
1.759585938998498e-05,-4.837135202251375e-05,0.0,0.0,0.0
1.6682181012583897e-05,-4.859795080847107e-05,0.0,0.0,0.0
1.6564648831263185e-05,-4.8117122787516564e-05,0.0,0.0,0.0
1.7256124920095317e-05,-4.819928653887473e-05,0.0,0.0,0.0
1.6456957382615656e-05,-4.873331272392534e-05,0.0,0.0,0.0
1.6728303307900205e-05,-4.862036439590156e-05,0.0,0.0,0.0
1.706811599433422e-05,-4.8718291509430856e-05,0.0,0.0,0.0
1.6879452232387848e-05,-4.840191104449332e-05,0.0,0.0,0.0
1.6524092643521726e-05,-4.8799800424603745e-05,0.0,0.0,0.0
1.6443551430711523e-05,-4.8627538490109146e-05,0.0,0.0,0.0
1.6457501260447316e-05,-4.845337389269844e-05,0.0,0.0,0.0
1.664117917243857e-05,-4.858009924646467e-05,0.0,0.0,0.0
1.7002148524625227e-05,-4.842581256525591e-05,0.0,0.0,0.0
1.7107982785091735e-05,-4.877796527580358e-05,0.0,0.0,0.0
1.713311576168053e-05,-4.8591049562674016e-05,0.0,0.0,0.0
1.7268157534999773e-05,-4.874650403507985e-05,0.0,0.0,0.0
1.761764542607125e-05,-4.861966226599179e-05,0.0,0.0,0.0
1.75024542841129e-05,-4.8720630729803815e-05,0.0,0.0,0.0
1.714283280307427e-05,-4.8642912588547915e-05,0.0,0.0,0.0
1.7218335415236652e-05,-4.8699890612624586e-05,0.0,0.0,0.0
1.7354332157992758e-05,-4.866125891567208e-05,0.0,0.0,0.0
1.713272649794817e-05,-4.868381074629724e-05,0.0,0.0,0.0
1.710959622869268e-05,-4.8675199650460854e-05,0.0,0.0,0.0
1.713075107545592e-05,-4.8671885451767594e-05,0.0,0.0,0.0
1.7238868167623878e-05,-4.8621433961670846e-05,0.0,0.0,0.0
1.7796650354284793e-05,-4.8409707233076915e-05,0.0,0.0,0.0
1.8136233848053962e-05,-4.867816824116744e-05,0.0,0.0,0.0
1.8057897250400856e-05,-4.894255835097283e-05,0.0,0.0,0.0
1.753728065523319e-05,-4.8448811867274344e-05,0.0,0.0,0.0
1.7389136701240204e-05,-4.855590668739751e-05,0.0,0.0,0.0
1.7798216504161246e-05,-4.8782039812067524e-05,0.0,0.0,0.0
1.7789483536034822e-05,-4.858420288655907e-05,0.0,0.0,0.0
1.8057287888950668e-05,-4.8755595344118774e-05,0.0,0.0,0.0
1.7910166207002476e-05,-4.809833626495674e-05,0.0,0.0,0.0
1.748215436236933e-05,-4.8243775381706655e-05,0.0,0.0,0.0
1.7251213648705743e-05,-4.8841691750567406e-05,0.0,0.0,0.0
1.7070569811039604e-05,-4.880927372141741e-05,0.0,0.0,0.0
1.7163416487164795e-05,-4.8638510634191334e-05,0.0,0.0,0.0
1.7084506907849573e-05,-4.870671182288788e-05,0.0,0.0,0.0
1.734205216052942e-05,-4.8269670514855534e-05,0.0,0.0,0.0
1.7443093383917585e-05,-4.800020906259306e-05,0.0,0.0,0.0
1.7636681150179356e-05,-4.8351226723752916e-05,0.0,0.0,0.0
1.7310541807091795e-05,-4.83591684314888e-05,0.0,0.0,0.0
1.678263106441591e-05,-4.8152272938750684e-05,0.0,0.0,0.0
1.6787209460744634e-05,-4.819835157832131e-05,0.0,0.0,0.0
1.6910251360968687e-05,-4.801707109436393e-05,0.0,0.0,0.0
1.7114214642788284e-05,-4.799098678631708e-05,0.0,0.0,0.0
1.7019516235450283e-05,-4.812643237528391e-05,0.0,0.0,0.0
1.6700400010449812e-05,-4.8213390982709825e-05,0.0,0.0,0.0
1.65430083143292e-05,-4.8053414502646774e-05,0.0,0.0,0.0
1.683027767285239e-05,-4.79608315799851e-05,0.0,0.0,0.0
1.711968070594594e-05,-4.810840982827358e-05,0.0,0.0,0.0
1.7068883607862517e-05,-4.82232280774042e-05,0.0,0.0,0.0
1.685756978986319e-05,-4.81777751701884e-05,0.0,0.0,0.0
1.712423181743361e-05,-4.8530495405429974e-05,0.0,0.0,0.0
1.7743725038599223e-05,-4.87784891447518e-05,0.0,0.0,0.0
1.7522519556223415e-05,-4.8279351176461205e-05,0.0,0.0,0.0
1.7111990018747747e-05,-4.867693496635184e-05,0.0,0.0,0.0
1.7128477338701487e-05,-4.867895404458977e-05,0.0,0.0,0.0
1.711352524580434e-05,-4.893660661764443e-05,0.0,0.0,0.0
1.7126987586379983e-05,-4.8799163778312504e-05,0.0,0.0,0.0
1.7604168533580378e-05,-4.8851037718122825e-05,0.0,0.0,0.0
1.7384663806296885e-05,-4.886693932348862e-05,0.0,0.0,0.0
1.7021066014422104e-05,-4.857556996284984e-05,0.0,0.0,0.0
1.7628273781156167e-05,-4.8761274229036644e-05,0.0,0.0,0.0
1.7761009075911716e-05,-4.8605525080347434e-05,0.0,0.0,0.0
1.7623849998926744e-05,-4.873420039075427e-05,0.0,0.0,0.0
1.7609476344659925e-05,-4.826828444493003e-05,0.0,0.0,0.0
1.7989725165534765e-05,-4.8365600378019735e-05,0.0,0.0,0.0
1.7953645510715432e-05,-4.8671070544514805e-05,0.0,0.0,0.0
1.779898229870014e-05,-4.882703797193244e-05,0.0,0.0,0.0
1.7651771486271173e-05,-4.8734342271927744e-05,0.0,0.0,0.0
1.745955341903027e-05,-4.822246773983352e-05,0.0,0.0,0.0
1.7574102457729168e-05,-4.82412833662238e-05,0.0,0.0,0.0
1.7563175788382068e-05,-4.875452214037068e-05,0.0,0.0,0.0
1.707275259832386e-05,-4.892692595603876e-05,0.0,0.0,0.0
1.6844705896801315e-05,-4.868421456194483e-05,0.0,0.0,0.0
1.712276934995316e-05,-4.859650653088465e-05,0.0,0.0,0.0
1.7116599337896332e-05,-4.843284477829002e-05,0.0,0.0,0.0
1.712605262582656e-05,-4.857160820392892e-05,0.0,0.0,0.0
1.7114209185820073e-05,-4.8414822231279686e-05,0.0,0.0,0.0
1.7127655155491084e-05,-4.831126716453582e-05,0.0,0.0,0.0
1.7113290596171282e-05,-4.8644753405824304e-05,0.0,0.0,0.0
1.7127982573583722e-05,-4.808209996554069e-05,0.0,0.0,0.0
1.682632318988908e-05,-4.851108315051533e-05,0.0,0.0,0.0
1.619760223547928e-05,-4.881795757682994e-05,0.0,0.0,0.0
1.6331947335856967e-05,-4.855615406995639e-05,0.0,0.0,0.0
1.6524072634638287e-05,-4.826627628062852e-05,0.0,0.0,0.0
1.663123293837998e-05,-4.8349214921472594e-05,0.0,0.0,0.0
1.6864143617567606e-05,-4.861630077357404e-05,0.0,0.0,0.0
1.6497171600349247e-05,-4.8175239498959854e-05,0.0,0.0,0.0
1.6479152691317722e-05,-4.847214586334303e-05,0.0,0.0,0.0
1.6629675883450545e-05,-4.8037025408120826e-05,0.0,0.0,0.0
1.738800165185239e-05,-4.8256722948281094e-05,0.0,0.0,0.0
1.780579077603761e-05,-4.849287506658584e-05,0.0,0.0,0.0
1.760634404490702e-05,-4.869680560659617e-05,0.0,0.0,0.0
1.730906114971731e-05,-4.851115954807028e-05,0.0,0.0,0.0
1.7254138583666645e-05,-4.8332414735341445e-05,0.0,0.0,0.0
1.747055648593232e-05,-4.849686592933722e-05,0.0,0.0,0.0
1.7569056581123732e-05,-4.86449571326375e-05,0.0,0.0,0.0
1.7798492990550585e-05,-4.871308556175791e-05,0.0,0.0,0.0
1.757169775373768e-05,-4.86355675093364e-05,0.0,0.0,0.0
1.715975668048486e-05,-4.8719492042437196e-05,0.0,0.0,0.0
1.708540912659373e-05,-4.8631816753186285e-05,0.0,0.0,0.0
1.7226466297870502e-05,-4.8720907216193154e-05,0.0,0.0,0.0
1.7403290257789195e-05,-4.8632431571604684e-05,0.0,0.0,0.0
1.750202864059247e-05,-4.8718553443904966e-05,0.0,0.0,0.0
1.737489401421044e-05,-4.859370528720319e-05,0.0,0.0,0.0
1.7188471247209236e-05,-4.8445021093357354e-05,0.0,0.0,0.0
1.708522904664278e-05,-4.857371095567942e-05,0.0,0.0,0.0
1.746087036735844e-05,-4.876458115177229e-05,0.0,0.0,0.0
1.7741731426212937e-05,-4.860144326812588e-05,0.0,0.0,0.0
1.7555823433212936e-05,-4.873850048170425e-05,0.0,0.0,0.0
1.7121341443271376e-05,-4.835992513108067e-05,0.0,0.0,0.0
1.7141048374469392e-05,-4.834578430745751e-05,0.0,0.0,0.0
1.7107182429754175e-05,-4.858418833464384e-05,0.0,0.0,0.0
1.7127973478636704e-05,-4.870121483691037e-05,0.0,0.0,0.0
1.7118518371717073e-05,-4.8659498133929446e-05,0.0,0.0,0.0
1.711827098915819e-05,-4.868576434091665e-05,0.0,0.0,0.0
1.692463229119312e-05,-4.8471189074916765e-05,0.0,0.0,0.0
1.695272294455208e-05,-4.8323447117581964e-05,0.0,0.0,0.0
1.7155307432403788e-05,-4.836001244257204e-05,0.0,0.0,0.0
1.7088426830014214e-05,-4.8489513574168086e-05,0.0,0.0,0.0
1.6990745280054398e-05,-4.854386861552484e-05,0.0,0.0,0.0
1.6905516531551257e-05,-4.8610101657686755e-05,0.0,0.0,0.0
1.714379686745815e-05,-4.889697811449878e-05,0.0,0.0,0.0
1.7100333934649825e-05,-4.8786940169520676e-05,0.0,0.0,0.0
1.702114059298765e-05,-4.890276977675967e-05,0.0,0.0,0.0
1.6782132661319338e-05,-4.857371823163703e-05,0.0,0.0,0.0
1.6786845662863925e-05,-4.8449746827827767e-05,0.0,0.0,0.0
1.6783875253167935e-05,-4.8644851631252095e-05,0.0,0.0,0.0
1.678511944191996e-05,-4.870413613389246e-05,0.0,0.0,0.0
1.6913174476940185e-05,-4.865187656832859e-05,0.0,0.0,0.0
1.734445868351031e-05,-4.869736949331127e-05,0.0,0.0,0.0
1.720337604638189e-05,-4.865835580858402e-05,0.0,0.0,0.0
1.7049869711627252e-05,-4.869120311923325e-05,0.0,0.0,0.0
1.7201777154696174e-05,-4.868545147473924e-05,0.0,0.0,0.0
1.7364320228807628e-05,-4.8979516577674076e-05,0.0,0.0,0.0
1.7533102436573245e-05,-4.904046727460809e-05,0.0,0.0,0.0
1.7116713934228756e-05,-4.871055352850817e-05,0.0,0.0,0.0
1.713373785605654e-05,-4.866024028160609e-05,0.0,0.0,0.0
1.7622593077248894e-05,-4.8688933020457625e-05,0.0,0.0,0.0
1.7614211174077354e-05,-4.8666704969946295e-05,0.0,0.0,0.0
1.737545244395733e-05,-4.86830722365994e-05,0.0,0.0,0.0
1.7967051462619565e-05,-4.8671972763258964e-05,0.0,0.0,0.0
1.7908128938870504e-05,-4.8678386519895867e-05,0.0,0.0,0.0
1.777525721990969e-05,-4.8676098231226206e-05,0.0,0.0,0.0
1.781053470040206e-05,-4.867480674874969e-05,0.0,0.0,0.0
1.7591541109140962e-05,-4.885995440417901e-05,0.0,0.0,0.0
1.7638936697039753e-05,-4.884565350948833e-05,0.0,0.0,0.0
1.7463382391724735e-05,-4.867032475885935e-05,0.0,0.0,0.0
1.7278727682423778e-05,-4.8679190513212234e-05,0.0,0.0,0.0
1.7304380889981985e-05,-4.867595635005273e-05,0.0,0.0,0.0
1.726898153719958e-05,-4.8419202357763425e-05,0.0,0.0,0.0
1.7426404156140052e-05,-4.802594048669562e-05,0.0,0.0,0.0
1.7378732081851922e-05,-4.8091042117448524e-05,0.0,0.0,0.0
1.7012976968544535e-05,-4.84401207359042e-05,0.0,0.0,0.0
1.6986166883725673e-05,-4.86527023895178e-05,0.0,0.0,0.0
1.730944131850265e-05,-4.8697915190132335e-05,0.0,0.0,0.0
1.7209138604812324e-05,-4.8656598664820194e-05,0.0,0.0,0.0
1.7097758245654404e-05,-4.858766260440461e-05,0.0,0.0,0.0
1.7446292986278422e-05,-4.809553502127528e-05,0.0,0.0,0.0
1.7129224943346344e-05,-4.823307244805619e-05,0.0,0.0,0.0
1.7069445675588213e-05,-4.8106776375789195e-05,0.0,0.0,0.0
1.6541785953450017e-05,-4.791991159436293e-05,0.0,0.0,0.0
1.6656531443004496e-05,-4.8648966185282916e-05,0.0,0.0,0.0
1.6894320651772432e-05,-4.81491515529342e-05,0.0,0.0,0.0
1.6692700228304602e-05,-4.790505408891477e-05,0.0,0.0,0.0
1.7116934031946585e-05,-4.834576611756347e-05,0.0,0.0,0.0
1.7333410141873173e-05,-4.854369763052091e-05,0.0,0.0,0.0
1.7274836864089593e-05,-4.8738831537775695e-05,0.0,0.0,0.0
1.6831225366331637e-05,-4.817790613742545e-05,0.0,0.0,0.0
1.6603389667579904e-05,-4.842983980779536e-05,0.0,0.0,0.0
1.6812860849313438e-05,-4.8714038712205365e-05,0.0,0.0,0.0
1.717970189929474e-05,-4.864325819653459e-05,0.0,0.0,0.0
1.743731991155073e-05,-4.870498742093332e-05,0.0,0.0,0.0
1.7840266082203016e-05,-4.882165012531914e-05,0.0,0.0,0.0
1.743846405588556e-05,-4.887824979959987e-05,0.0,0.0,0.0
1.7140771888080053e-05,-4.865342634730041e-05,0.0,0.0,0.0
1.710974902380258e-05,-4.855668521486223e-05,0.0,0.0,0.0
1.7123689758591354e-05,-4.820344111067243e-05,0.0,0.0,0.0
1.71240208146628e-05,-4.825440191780217e-05,0.0,0.0,0.0
1.7111984561779536e-05,-4.8852827603695914e-05,0.0,0.0,0.0
1.713339406705927e-05,-4.92510043841321e-05,0.0,0.0,0.0
1.727487142488826e-05,-4.9032933020498604e-05,0.0,0.0,0.0
1.77661822817754e-05,-4.891823846264742e-05,0.0,0.0,0.0
1.780988350219559e-05,-4.859163163928315e-05,0.0,0.0,0.0
1.778084879333619e-05,-4.8130932555068284e-05,0.0,0.0,0.0
1.775511191226542e-05,-4.855373117607087e-05,0.0,0.0,0.0
1.7490461686975323e-05,-4.844300201511942e-05,0.0,0.0,0.0
1.738144419505261e-05,-4.827638258575462e-05,0.0,0.0,0.0
1.6898964531719685e-05,-4.870458724326454e-05,0.0,0.0,0.0
1.668611730565317e-05,-4.8655183491064236e-05,0.0,0.0,0.0
1.7146014215541072e-05,-4.8414574848720804e-05,0.0,0.0,0.0
1.7087009837268852e-05,-4.802758849109523e-05,0.0,0.0,0.0
1.7148284314316697e-05,-4.851714038522914e-05,0.0,0.0,0.0
1.685392089711968e-05,-4.849596734857187e-05,0.0,0.0,0.0
1.7008036593324505e-05,-4.80217750009615e-05,0.0,0.0,0.0
1.6932694052229635e-05,-4.8277062887791544e-05,0.0,0.0,0.0
1.6945094102993608e-05,-4.810670725419186e-05,0.0,0.0,0.0
1.7183765521622263e-05,-4.820781759917736e-05,0.0,0.0,0.0
1.7067051885533147e-05,-4.816211367142387e-05,0.0,0.0,0.0
1.7165612007374875e-05,-4.816453656530939e-05,0.0,0.0,0.0
1.6742980733397417e-05,-4.8365011025452986e-05,0.0,0.0,0.0
1.6470617993036285e-05,-4.832162812817842e-05,0.0,0.0,0.0
1.6431917174486443e-05,-4.820590402232483e-05,0.0,0.0,0.0
1.6601210518274456e-05,-4.8273333959514275e-05,0.0,0.0,0.0
1.6896523447940126e-05,-4.8670157411834225e-05,0.0,0.0,0.0
1.689065175014548e-05,-4.868398900725879e-05,0.0,0.0,0.0
1.647104181756731e-05,-4.8454716306878254e-05,0.0,0.0,0.0
1.6429306924692355e-05,-4.8140962462639436e-05,0.0,0.0,0.0
1.6552348824916407e-05,-4.837056258111261e-05,0.0,0.0,0.0
1.67467169376323e-05,-4.870280827162787e-05,0.0,0.0,0.0
1.688190604909323e-05,-4.86527023895178e-05,0.0,0.0,0.0
1.7063484847312793e-05,-4.8696991143515334e-05,0.0,0.0,0.0
1.721167609503027e-05,-4.861579873249866e-05,0.0,0.0,0.0
1.734850047796499e-05,-4.842305861529894e-05,0.0,0.0,0.0
1.7201347873196937e-05,-4.855245060753077e-05,0.0,0.0,0.0
1.674206941970624e-05,-4.815688225789927e-05,0.0,0.0,0.0
1.7105809092754498e-05,-4.845195508096367e-05,0.0,0.0,0.0
1.713606616249308e-05,-4.886319220531732e-05,0.0,0.0,0.0
1.710480501060374e-05,-4.852315396419726e-05,0.0,0.0,0.0
1.739181789162103e-05,-4.8799076466821134e-05,0.0,0.0,0.0
1.7471553292125463e-05,-4.858053944190033e-05,0.0,0.0,0.0
1.7446018318878487e-05,-4.851409903494641e-05,0.0,0.0,0.0
1.7239046428585425e-05,-4.8488687752978876e-05,0.0,0.0,0.0
1.7097014278988354e-05,-4.8750229325378314e-05,0.0,0.0,0.0
1.733966200845316e-05,-4.862540663452819e-05,0.0,0.0,0.0
1.765102024364751e-05,-4.8515783419134095e-05,0.0,0.0,0.0
1.761681960488204e-05,-4.867706593358889e-05,0.0,0.0,0.0
1.7446698620915413e-05,-4.886632086709142e-05,0.0,0.0,0.0
1.7301743355346844e-05,-4.850436016567983e-05,0.0,0.0,0.0
1.7267229850403965e-05,-4.848578464589082e-05,0.0,0.0,0.0
1.7314629076281562e-05,-4.868962423643097e-05,0.0,0.0,0.0
1.7132319044321775e-05,-4.8525864258408546e-05,0.0,0.0,0.0
1.7107322491938248e-05,-4.849640026804991e-05,0.0,0.0,0.0
1.7134996596723795e-05,-4.840845213038847e-05,0.0,0.0,0.0
1.710564538370818e-05,-4.8187419452006e-05,0.0,0.0,0.0
1.7050713722710498e-05,-4.832485501538031e-05,0.0,0.0,0.0
1.686635732767172e-05,-4.874696605838835e-05,0.0,0.0,0.0
1.7154919987660833e-05,-4.861076740780845e-05,0.0,0.0,0.0
1.739799336064607e-05,-4.8629804950905964e-05,0.0,0.0,0.0
1.711608456389513e-05,-4.8099973355419934e-05,0.0,0.0,0.0
1.6754604075686075e-05,-4.8599220463074744e-05,0.0,0.0,0.0
1.6466165106976405e-05,-4.871882265433669e-05,0.0,0.0,0.0
1.6122263332363218e-05,-4.833010461879894e-05,0.0,0.0,0.0
1.6680727640050463e-05,-4.8347712436225265e-05,0.0,0.0,0.0
1.6043311916291714e-05,-4.8335918108932674e-05,0.0,0.0,0.0
1.6388872609240934e-05,-4.8609399527776986e-05,0.0,0.0,0.0
1.7043021216522902e-05,-4.8453624913236126e-05,0.0,0.0,0.0
1.6817086361697875e-05,-4.852663550991565e-05,0.0,0.0,0.0
1.7320011465926655e-05,-4.851845733355731e-05,0.0,0.0,0.0
1.6738900740165263e-05,-4.8477442760486156e-05,0.0,0.0,0.0
1.709856223897077e-05,-4.81287352158688e-05,0.0,0.0,0.0
1.7065793144865893e-05,-4.774627450387925e-05,0.0,0.0,0.0
1.7536873201606795e-05,-4.811796679859981e-05,0.0,0.0,0.0
1.7437701899325475e-05,-4.8279562179232016e-05,0.0,0.0,0.0
1.7256468709092587e-05,-4.8755708121461794e-05,0.0,0.0,0.0
1.7341695638606325e-05,-4.862030618824065e-05,0.0,0.0,0.0
1.7220048903254792e-05,-4.8562866140855476e-05,0.0,0.0,0.0
1.764340777299367e-05,-4.83249023091048e-05,0.0,0.0,0.0
1.773744952515699e-05,-4.834124047192745e-05,0.0,0.0,0.0
1.78452846739674e-05,-4.846949013881385e-05,0.0,0.0,0.0
1.7740889234119095e-05,-4.8748337576398626e-05,0.0,0.0,0.0
1.7648899302002974e-05,-4.903749140794389e-05,0.0,0.0,0.0
1.7283206034335308e-05,-4.889436240773648e-05,0.0,0.0,0.0
1.7757243767846376e-05,-4.858717875322327e-05,0.0,0.0,0.0
1.7819444110500626e-05,-4.8059144319267944e-05,0.0,0.0,0.0
1.7770678823580965e-05,-4.838149470742792e-05,0.0,0.0,0.0
1.780839193088468e-05,-4.8604571929899976e-05,0.0,0.0,0.0
1.7715823560138233e-05,-4.8439680540468544e-05,0.0,0.0,0.0
1.722834349493496e-05,-4.857434760197066e-05,0.0,0.0,0.0
1.7342132196063176e-05,-4.876787352259271e-05,0.0,0.0,0.0
1.726449409034103e-05,-4.8594927648082376e-05,0.0,0.0,0.0
1.700092980172485e-05,-4.8471076297573745e-05,0.0,0.0,0.0
1.7484706404502504e-05,-4.824129064218141e-05,0.0,0.0,0.0
1.741152664180845e-05,-4.867944517172873e-05,0.0,0.0,0.0
1.7734775610733777e-05,-4.83937983517535e-05,0.0,0.0,0.0
1.7327409295830876e-05,-4.857625754084438e-05,0.0,0.0,0.0
1.7288384697167203e-05,-4.870218981523067e-05,0.0,0.0,0.0
1.752723619574681e-05,-4.843881106353365e-05,0.0,0.0,0.0
1.7192665836773813e-05,-4.85486671095714e-05,0.0,0.0,0.0
1.7350319467368536e-05,-4.829958561458625e-05,0.0,0.0,0.0
1.7254160411539488e-05,-4.816180808120407e-05,0.0,0.0,0.0
1.71307419805089e-05,-4.853423160966486e-05,0.0,0.0,0.0
1.679320484981872e-05,-4.8506666644243523e-05,0.0,0.0,0.0
1.660225461819209e-05,-4.834261198993772e-05,0.0,0.0,0.0
1.6779535144451074e-05,-4.8205773055087775e-05,0.0,0.0,0.0
1.6789344954304397e-05,-4.800217357114889e-05,0.0,0.0,0.0
1.7015468984027393e-05,-4.812908809981309e-05,0.0,0.0,0.0
1.722197157505434e-05,-4.831758269574493e-05,0.0,0.0,0.0
1.6834927009767853e-05,-4.836492735194042e-05,0.0,0.0,0.0
1.674144368735142e-05,-4.840049587073736e-05,0.0,0.0,0.0
1.689693090156652e-05,-4.8530895583098754e-05,0.0,0.0,0.0
1.7126913007814437e-05,-4.817648368771188e-05,0.0,0.0,0.0
1.7476575521868654e-05,-4.858505417359993e-05,0.0,0.0,0.0
1.743955544952769e-05,-4.870762859354727e-05,0.0,0.0,0.0
1.7469974409323186e-05,-4.831729893339798e-05,0.0,0.0,0.0
1.7424159523216076e-05,-4.837705273530446e-05,0.0,0.0,0.0
1.7170994397019967e-05,-4.8625988711137325e-05,0.0,0.0,0.0
1.736595731927082e-05,-4.814018393517472e-05,0.0,0.0,0.0
1.7808022676035762e-05,-4.8448011511936784e-05,0.0,0.0,0.0
1.77682341018226e-05,-4.883918518316932e-05,0.0,0.0,0.0
1.78098380274605e-05,-4.854565122514032e-05,0.0,0.0,0.0
1.7779429981601425e-05,-4.8778387281345204e-05,0.0,0.0,0.0
1.8034033928415738e-05,-4.8599180445307866e-05,0.0,0.0,0.0
1.792472176020965e-05,-4.873163561569527e-05,0.0,0.0,0.0
1.775134660420008e-05,-4.863964568357915e-05,0.0,0.0,0.0
1.8030190403806046e-05,-4.8696987505536526e-05,0.0,0.0,0.0
1.791901195247192e-05,-4.84775155200623e-05,0.0,0.0,0.0
1.797739059838932e-05,-4.832569175050594e-05,0.0,0.0,0.0
1.796033393475227e-05,-4.8362351662945e-05,0.0,0.0,0.0
1.74674678419251e-05,-4.847316085943021e-05,0.0,0.0,0.0
1.7270065654884093e-05,-4.870811972068623e-05,0.0,0.0,0.0
1.745486406434793e-05,-4.864256698056124e-05,0.0,0.0,0.0
1.7456768546253443e-05,-4.845552030019462e-05,0.0,0.0,0.0
1.745666486385744e-05,-4.7988029109546915e-05,0.0,0.0,0.0
1.745537701935973e-05,-4.8023030103649944e-05,0.0,0.0,0.0
1.7553411453263834e-05,-4.81777242384851e-05,0.0,0.0,0.0
1.7686597857391462e-05,-4.865723894909024e-05,0.0,0.0,0.0
1.749609873513691e-05,-4.869073745794594e-05,0.0,0.0,0.0
1.7422220480511896e-05,-4.853782957070507e-05,0.0,0.0,0.0
1.7432012100471184e-05,-4.8176552809309214e-05,0.0,0.0,0.0
1.7085980289266445e-05,-4.855773659073748e-05,0.0,0.0,0.0
1.681275898590684e-05,-4.877585524809547e-05,0.0,0.0,0.0
1.678330772847403e-05,-4.852970960200764e-05,0.0,0.0,0.0
1.7097110685426742e-05,-4.786287172464654e-05,0.0,0.0,0.0
1.6567460988881066e-05,-4.80820526718162e-05,0.0,0.0,0.0
1.6348167264368385e-05,-4.827884549740702e-05,0.0,0.0,0.0
1.653465733397752e-05,-4.8323232476832345e-05,0.0,0.0,0.0
1.6633175619062968e-05,-4.891750359092839e-05,0.0,0.0,0.0
1.711918957880698e-05,-4.7993682528613135e-05,0.0,0.0,0.0
1.6841406250023283e-05,-4.786636054632254e-05,0.0,0.0,0.0
1.6795511328382418e-05,-4.8247151426039636e-05,0.0,0.0,0.0
1.6779182260506786e-05,-4.8803602112457156e-05,0.0,0.0,0.0
1.7190657672472298e-05,-4.817989611183293e-05,0.0,0.0,0.0
1.729580071696546e-05,-4.842063208343461e-05,0.0,0.0,0.0
1.7442340322304517e-05,-4.868662654189393e-05,0.0,0.0,0.0
1.7843349269242026e-05,-4.8652658733772114e-05,0.0,0.0,0.0
1.7428739738534205e-05,-4.8710400733398274e-05,0.0,0.0,0.0
1.730469193716999e-05,-4.863416324951686e-05,0.0,0.0,0.0
1.7009468137985095e-05,-4.8724159569246694e-05,0.0,0.0,0.0
1.7003123502945527e-05,-4.849700053455308e-05,0.0,0.0,0.0
1.7720050891512074e-05,-4.8403002438135445e-05,0.0,0.0,0.0
1.7747239326126873e-05,-4.838511813431978e-05,0.0,0.0,0.0
1.741965206747409e-05,-4.891235948889516e-05,0.0,0.0,0.0
1.7486478100181557e-05,-4.918119520880282e-05,0.0,0.0,0.0
1.7506514268461615e-05,-4.903387161903083e-05,0.0,0.0,0.0
1.78494410647545e-05,-4.861591150984168e-05,0.0,0.0,0.0
1.8053269741358235e-05,-4.872988574788906e-05,0.0,0.0,0.0
1.78401551238494e-05,-4.867210373049602e-05,0.0,0.0,0.0
1.772133146005217e-05,-4.8984620661940426e-05,0.0,0.0,0.0
1.752534444676712e-05,-4.871175406151451e-05,0.0,0.0,0.0
1.7400603610440157e-05,-4.864496804657392e-05,0.0,0.0,0.0
1.7213031242135912e-05,-4.870417251368053e-05,0.0,0.0,0.0
1.70462008100003e-05,-4.865117443841882e-05,0.0,0.0,0.0
1.7179037968162447e-05,-4.843325223191641e-05,0.0,0.0,0.0
1.6821113604237325e-05,-4.8540365241933614e-05,0.0,0.0,0.0
1.7030284652719274e-05,-4.8266443627653643e-05,0.0,0.0,0.0
1.715323014650494e-05,-4.834940773434937e-05,0.0,0.0,0.0
1.7088124877773225e-05,-4.83823569084052e-05,0.0,0.0,0.0
1.715255348244682e-05,-4.826104486710392e-05,0.0,0.0,0.0
1.708966192381922e-05,-4.8648831580067053e-05,0.0,0.0,0.0
1.7150272469734773e-05,-4.799318776349537e-05,0.0,0.0,0.0
1.7092572306864895e-05,-4.8117621190613136e-05,0.0,0.0,0.0
1.6976682672975585e-05,-4.825874566449784e-05,0.0,0.0,0.0
1.6756162949604914e-05,-4.842978160013445e-05,0.0,0.0,0.0
1.695944956736639e-05,-4.824957431992516e-05,0.0,0.0,0.0
1.69577615451999e-05,-4.856714804191142e-05,0.0,0.0,0.0
1.6684170986991376e-05,-4.8205973143922165e-05,0.0,0.0,0.0
1.666872776695527e-05,-4.8241134209092706e-05,0.0,0.0,0.0
1.710861579340417e-05,-4.8449372116010636e-05,0.0,0.0,0.0
1.7131611457443796e-05,-4.822804476134479e-05,0.0,0.0,0.0
1.7110463886638172e-05,-4.85373311676085e-05,0.0,0.0,0.0
1.713010533421766e-05,-4.8472753405803815e-05,0.0,0.0,0.0
1.7175498214783147e-05,-4.854802318732254e-05,0.0,0.0,0.0
1.7436166672268882e-05,-4.84673073515296e-05,0.0,0.0,0.0
1.747254100337159e-05,-4.859167165705003e-05,0.0,0.0,0.0
1.7475600543548353e-05,-4.873822763329372e-05,0.0,0.0,0.0
1.772024916135706e-05,-4.863372669206001e-05,0.0,0.0,0.0
1.7230719095095992e-05,-4.870242264587432e-05,0.0,0.0,0.0
1.731325755827129e-05,-4.866383096668869e-05,0.0,0.0,0.0
1.7577718608663417e-05,-4.8677498853066936e-05,0.0,0.0,0.0
1.7088690583477728e-05,-4.868407268077135e-05,0.0,0.0,0.0
1.793593582988251e-05,-4.840622204937972e-05,0.0,0.0,0.0
1.769244954630267e-05,-4.8574151151115075e-05,0.0,0.0,0.0
1.7119371477747336e-05,-4.87062061438337e-05,0.0,0.0,0.0
1.7630365618970245e-05,-4.8658061132300645e-05,0.0,0.0,0.0
1.7781165297492407e-05,-4.825951691600494e-05,0.0,0.0,0.0
1.8003160221269354e-05,-4.8372392484452575e-05,0.0,0.0,0.0
1.7943360944627784e-05,-4.872975841863081e-05,0.0,0.0,0.0
1.777481520548463e-05,-4.8637983127264306e-05,0.0,0.0,0.0
1.76360881596338e-05,-4.904211891698651e-05,0.0,0.0,0.0
1.728066854411736e-05,-4.918235572404228e-05,0.0,0.0,0.0
1.7429954823455773e-05,-4.886092938249931e-05,0.0,0.0,0.0
1.764055559760891e-05,-4.8547019105171785e-05,0.0,0.0,0.0
1.747255737427622e-05,-4.846121737500653e-05,0.0,0.0,0.0
1.7325824956060387e-05,-4.844347131438553e-05,0.0,0.0,0.0
1.7143738659797236e-05,-4.823746712645516e-05,0.0,0.0,0.0
1.7005630070343614e-05,-4.863111098529771e-05,0.0,0.0,0.0
1.6904519725358114e-05,-4.8712714487919584e-05,0.0,0.0,0.0
1.706990587990731e-05,-4.857279782299884e-05,0.0,0.0,0.0
1.7162881704280153e-05,-4.8452537157572806e-05,0.0,0.0,0.0
1.708596755634062e-05,-4.855525548919104e-05,0.0,0.0,0.0
1.7063399354810826e-05,-4.8470952606294304e-05,0.0,0.0,0.0
1.6497966498718597e-05,-4.8568446800345555e-05,0.0,0.0,0.0
1.6405883798142895e-05,-4.8744037485448644e-05,0.0,0.0,0.0
1.6487494576722383e-05,-4.831009209738113e-05,0.0,0.0,0.0
1.6702844732208177e-05,-4.836288280785084e-05,0.0,0.0,0.0
1.6855105059221387e-05,-4.8325222451239824e-05,0.0,0.0,0.0
1.699150016065687e-05,-4.8084260924952105e-05,0.0,0.0,0.0
1.7204451069119386e-05,-4.8476169467903674e-05,0.0,0.0,0.0
1.7296089936280623e-05,-4.852348502026871e-05,0.0,0.0,0.0
1.7540021872264333e-05,-4.847358650295064e-05,0.0,0.0,0.0
1.7165801182272844e-05,-4.878067920799367e-05,0.0,0.0,0.0
1.715191683615558e-05,-4.859450564254075e-05,0.0,0.0,0.0
1.7098773241741583e-05,-4.853615610045381e-05,0.0,0.0,0.0
1.713425081106834e-05,-4.847280797548592e-05,0.0,0.0,0.0
1.7294865756412037e-05,-4.872925637755543e-05,0.0,0.0,0.0
1.729458017507568e-05,-4.864030415774323e-05,0.0,0.0,0.0
1.7114169168053195e-05,-4.8697726015234366e-05,0.0,0.0,0.0
1.74184260686161e-05,-4.8815985792316496e-05,0.0,0.0,0.0
1.7793168808566406e-05,-4.9008889618562534e-05,0.0,0.0,0.0
1.7658749129623175e-05,-4.889567208010703e-05,0.0,0.0,0.0
1.7708262021187693e-05,-4.86671706312336e-05,0.0,0.0,0.0
1.8190365153714083e-05,-4.8691512347431853e-05,0.0,0.0,0.0
1.839371725509409e-05,-4.8656384024070576e-05,0.0,0.0,0.0
1.8035709217656404e-05,-4.8699541366659105e-05,0.0,0.0,0.0
1.7822854715632275e-05,-4.865079972660169e-05,0.0,0.0,0.0
1.7763120922609232e-05,-4.870298653258942e-05,0.0,0.0,0.0
1.7871932868729346e-05,-4.864920992986299e-05,0.0,0.0,0.0
1.7986267266678624e-05,-4.870298653258942e-05,0.0,0.0,0.0
1.7544063666719012e-05,-4.8650548706064e-05,0.0,0.0,0.0
1.7035934433806688e-05,-4.867927054874599e-05,0.0,0.0,0.0
1.6879916074685752e-05,-4.836010703002103e-05,0.0,0.0,0.0
1.6993022654787637e-05,-4.861244815401733e-05,0.0,0.0,0.0
1.7502707123639993e-05,-4.8729201807873324e-05,0.0,0.0,0.0
1.71425908774836e-05,-4.863286449108273e-05,0.0,0.0,0.0
1.712231278361287e-05,-4.871147029916756e-05,0.0,0.0,0.0
1.7123655197792687e-05,-4.864816219196655e-05,0.0,0.0,0.0
1.711353070277255e-05,-4.8698366299504414e-05,0.0,0.0,0.0
1.713114215817768e-05,-4.821263428311795e-05,0.0,0.0,0.0
1.710727701720316e-05,-4.7975270717870444e-05,0.0,0.0,0.0
1.71362298715394e-05,-4.803081537829712e-05,0.0,0.0,0.0
1.6911852071643807e-05,-4.7982561227399856e-05,0.0,0.0,0.0
1.6792313545010984e-05,-4.802371040568687e-05,0.0,0.0,0.0
1.6774709365563467e-05,-4.815955617232248e-05,0.0,0.0,0.0
1.663782495597843e-05,-4.835746585740708e-05,0.0,0.0,0.0
1.6582804164499976e-05,-4.8178742872551084e-05,0.0,0.0,0.0
1.6660593246342614e-05,-4.801631803275086e-05,0.0,0.0,0.0
1.669556149863638e-05,-4.7996796638472006e-05,0.0,0.0,0.0
1.7112732166424394e-05,-4.8243924538837746e-05,0.0,0.0,0.0
1.712592893454712e-05,-4.8543464799877256e-05,0.0,0.0,0.0
1.7117421521106735e-05,-4.83767144032754e-05,0.0,0.0,0.0
1.720723412290681e-05,-4.822665505344048e-05,0.0,0.0,0.0
1.7359630874125287e-05,-4.8049223551061004e-05,0.0,0.0,0.0
1.729160430841148e-05,-4.809717938769609e-05,0.0,0.0,0.0
1.7645597836235538e-05,-4.8646314098732546e-05,0.0,0.0,0.0
1.7566395399626344e-05,-4.866215385845862e-05,0.0,0.0,0.0
1.7364611267112195e-05,-4.831719343201257e-05,0.0,0.0,0.0
1.7510345060145482e-05,-4.8038589739007875e-05,0.0,0.0,0.0
1.7101841876865365e-05,-4.797400833922438e-05,0.0,0.0,0.0
1.770721428329125e-05,-4.8607238568365574e-05,0.0,0.0,0.0
1.7590846255188808e-05,-4.8733127187006176e-05,0.0,0.0,0.0
1.814981624193024e-05,-4.809854362974875e-05,0.0,0.0,0.0
1.814567258406896e-05,-4.8482874262845144e-05,0.0,0.0,0.0
1.7567792383488268e-05,-4.8767979023978114e-05,0.0,0.0,0.0
1.821188379835803e-05,-4.859795808442868e-05,0.0,0.0,0.0
1.755425000737887e-05,-4.874231308349408e-05,0.0,0.0,0.0
1.7726566511555575e-05,-4.862148853135295e-05,0.0,0.0,0.0
1.7769074474927038e-05,-4.8518784751649946e-05,0.0,0.0,0.0
1.7611930161365308e-05,-4.829074168810621e-05,0.0,0.0,0.0
1.744374822010286e-05,-4.856035593547858e-05,0.0,0.0,0.0
1.72882810147712e-05,-4.865487426286563e-05,0.0,0.0,0.0
1.7122760255006142e-05,-4.869059193879366e-05,0.0,0.0,0.0
1.71102219610475e-05,-4.837039523408748e-05,0.0,0.0,0.0
1.6999521903926507e-05,-4.7873534640530124e-05,0.0,0.0,0.0
1.6767809938755818e-05,-4.7800043830648065e-05,0.0,0.0,0.0
1.6806750863906927e-05,-4.798951340490021e-05,0.0,0.0,0.0
1.6653226339258254e-05,-4.8128244088729843e-05,0.0,0.0,0.0
1.6492387658217922e-05,-4.840276960749179e-05,0.0,0.0,0.0
1.6491834685439244e-05,-4.868964242632501e-05,0.0,0.0,0.0
1.6804056940600276e-05,-4.866188101004809e-05,0.0,0.0,0.0
1.670061465119943e-05,-4.869130498263985e-05,0.0,0.0,0.0
1.655215965001844e-05,-4.8661000619176775e-05,0.0,0.0,0.0
1.6664998838678002e-05,-4.860641638515517e-05,0.0,0.0,0.0
1.655257074162364e-05,-4.8060570406960323e-05,0.0,0.0,0.0
1.6360192603315227e-05,-4.798061490873806e-05,0.0,0.0,0.0
1.6524856619071215e-05,-4.833524872083217e-05,0.0,0.0,0.0
1.638606954657007e-05,-4.8060199333122e-05,0.0,0.0,0.0
1.677734690019861e-05,-4.850906043429859e-05,0.0,0.0,0.0
1.7047546862158924e-05,-4.85286109324079e-05,0.0,0.0,0.0
1.715488724585157e-05,-4.8461493861395866e-05,0.0,0.0,0.0
1.7095198927563615e-05,-4.833006460103206e-05,0.0,0.0,0.0
1.7138090697699226e-05,-4.8299789341399446e-05,0.0,0.0,0.0
1.7110245607909746e-05,-4.8642563342582434e-05,0.0,0.0,0.0
1.712475022941362e-05,-4.837982851313427e-05,0.0,0.0,0.0
1.7121934433816932e-05,-4.862856076215394e-05,0.0,0.0,0.0
1.7114647562266327e-05,-4.8016187065513805e-05,0.0,0.0,0.0
1.749210787238553e-05,-4.8092417273437604e-05,0.0,0.0,0.0
1.7454338376410306e-05,-4.811549297301099e-05,0.0,0.0,0.0
1.7273960111197084e-05,-4.853997961618006e-05,0.0,0.0,0.0
1.7457165085943416e-05,-4.8808244173415005e-05,0.0,0.0,0.0
1.7323171050520614e-05,-4.8732403229223564e-05,0.0,0.0,0.0
1.7243648471776396e-05,-4.849685137742199e-05,0.0,0.0,0.0
1.757370409904979e-05,-4.862814967054874e-05,0.0,0.0,0.0
1.7774849766283296e-05,-4.862521018367261e-05,0.0,0.0,0.0
1.781130958988797e-05,-4.839136454393156e-05,0.0,0.0,0.0
1.777132274582982e-05,-4.870783232036047e-05,0.0,0.0,0.0
1.7739041140885092e-05,-4.8638583393767476e-05,0.0,0.0,0.0
1.752376920194365e-05,-4.852678466704674e-05,0.0,0.0,0.0
1.7763250070856884e-05,-4.7710615035612136e-05,0.0,0.0,0.0
1.7728652892401442e-05,-4.77693865832407e-05,0.0,0.0,0.0
1.7143544027931057e-05,-4.8554400564171374e-05,0.0,0.0,0.0
1.67744183272589e-05,-4.848367825616151e-05,0.0,0.0,0.0
1.6795718693174422e-05,-4.852564597968012e-05,0.0,0.0,0.0
1.677423460932914e-05,-4.823332346859388e-05,0.0,0.0,0.0
1.707169030851219e-05,-4.780977178597823e-05,0.0,0.0,0.0
1.714881909720134e-05,-4.816907676286064e-05,0.0,0.0,0.0
1.7353007933706976e-05,-4.8379686631960794e-05,0.0,0.0,0.0
1.7261121683986858e-05,-4.909264680463821e-05,0.0,0.0,0.0
1.705248905636836e-05,-4.8668243834981695e-05,0.0,0.0,0.0
1.6952828445937485e-05,-4.851202174904756e-05,0.0,0.0,0.0
1.6506621250300668e-05,-4.7854282456682995e-05,0.0,0.0,0.0
1.648367651796434e-05,-4.787576472153887e-05,0.0,0.0,0.0
1.661479109316133e-05,-4.802692637895234e-05,0.0,0.0,0.0
1.6814603441162035e-05,-4.797512519871816e-05,0.0,0.0,0.0
1.693371268629562e-05,-4.787078432855196e-05,0.0,0.0,0.0
1.713945675874129e-05,-4.778312722919509e-05,0.0,0.0,0.0
1.7108748579630628e-05,-4.80544549645856e-05,0.0,0.0,0.0
1.6988400602713227e-05,-4.795404674950987e-05,0.0,0.0,0.0
1.6916743334149942e-05,-4.8056088417069986e-05,0.0,0.0,0.0
1.710439937596675e-05,-4.79541122331284e-05,0.0,0.0,0.0
1.7138234397862107e-05,-4.8160854930756614e-05,0.0,0.0,0.0
1.7102222045650706e-05,-4.827737939194776e-05,0.0,0.0,0.0
1.7224374460056424e-05,-4.848435492021963e-05,0.0,0.0,0.0
1.7415821275790222e-05,-4.860035187448375e-05,0.0,0.0,0.0
1.7556832972331904e-05,-4.86801982333418e-05,0.0,0.0,0.0
1.767731737345457e-05,-4.836267908103764e-05,0.0,0.0,0.0
1.749917646520771e-05,-4.867193638347089e-05,0.0,0.0,0.0
1.7114867659984156e-05,-4.867935786023736e-05,0.0,0.0,0.0
1.7427953935111873e-05,-4.867397728958167e-05,0.0,0.0,0.0
1.7169479178846814e-05,-4.867822281084955e-05,0.0,0.0,0.0
1.7652517271926627e-05,-4.838722088607028e-05,0.0,0.0,0.0
1.791077374946326e-05,-4.857817475567572e-05,0.0,0.0,0.0
1.74261203937931e-05,-4.874571823165752e-05,0.0,0.0,0.0
1.7505077266832814e-05,-4.861981506110169e-05,0.0,0.0,0.0
1.7661497622611932e-05,-4.872091085417196e-05,0.0,0.0,0.0
1.7851012671599165e-05,-4.864236689172685e-05,0.0,0.0,0.0
1.774490374373272e-05,-4.892389915767126e-05,0.0,0.0,0.0
1.7828657291829586e-05,-4.880472260992974e-05,0.0,0.0,0.0
1.756249366735574e-05,-4.824493589694612e-05,0.0,0.0,0.0
1.7652722817729227e-05,-4.800330498255789e-05,0.0,0.0,0.0
1.7802543879952282e-05,-4.8001387767726555e-05,0.0,0.0,0.0
1.7439670045860112e-05,-4.801266914000735e-05,0.0,0.0,0.0
1.7284086425206624e-05,-4.815306965610944e-05,0.0,0.0,0.0
1.7599964849068783e-05,-4.850490586250089e-05,0.0,0.0,0.0
1.752108073560521e-05,-4.865698792855255e-05,0.0,0.0,0.0
1.725156653265003e-05,-4.869672920904122e-05,0.0,0.0,0.0
1.7446900528739206e-05,-4.842119960812852e-05,0.0,0.0,0.0
1.7462509276811033e-05,-4.815664578927681e-05,0.0,0.0,0.0
1.735708246997092e-05,-4.828332021133974e-05,0.0,0.0,0.0
1.7055590433301404e-05,-4.8392081225756556e-05,0.0,0.0,0.0
1.686575160420034e-05,-4.8369121941505e-05,0.0,0.0,0.0
1.702457848296035e-05,-4.862766218138859e-05,0.0,0.0,0.0
1.6895439330255613e-05,-4.840860128751956e-05,0.0,0.0,0.0
1.6953987142187543e-05,-4.86322860524524e-05,0.0,0.0,0.0
1.6589281585766003e-05,-4.871309647569433e-05,0.0,0.0,0.0
1.635225271456875e-05,-4.8645775677869096e-05,0.0,0.0,0.0
1.6841375327203423e-05,-4.870126213063486e-05,0.0,0.0,0.0
1.674005761742592e-05,-4.8368954594479874e-05,0.0,0.0,0.0
1.7095906514441594e-05,-4.859206092078239e-05,0.0,0.0,0.0
1.7399028365616687e-05,-4.8469952162122354e-05,0.0,0.0,0.0
1.7221076632267796e-05,-4.8255969886668026e-05,0.0,0.0,0.0
1.7076730728149414e-05,-4.8655459977453575e-05,0.0,0.0,0.0
1.7620988728594966e-05,-4.864683432970196e-05,0.0,0.0,0.0
1.7371930880472064e-05,-4.869862459599972e-05,0.0,0.0,0.0
1.7263979316339828e-05,-4.887298564426601e-05,0.0,0.0,0.0
1.733425051497761e-05,-4.8838115617400035e-05,0.0,0.0,0.0
1.722746128507424e-05,-4.864158472628333e-05,0.0,0.0,0.0
1.7540300177643076e-05,-4.8520574637223035e-05,0.0,0.0,0.0
1.7215104890055954e-05,-4.848620665143244e-05,0.0,0.0,0.0
1.7334821677650325e-05,-4.885607631877065e-05,0.0,0.0,0.0
1.771045572240837e-05,-4.885264570475556e-05,0.0,0.0,0.0
1.7882253814605065e-05,-4.8681889893487096e-05,0.0,0.0,0.0
1.7571146599948406e-05,-4.867657844442874e-05,0.0,0.0,0.0
1.779066769813653e-05,-4.8554087697993964e-05,0.0,0.0,0.0
1.7690626918920316e-05,-4.846816955250688e-05,0.0,0.0,0.0
1.7463669792050496e-05,-4.863820504397154e-05,0.0,0.0,0.0
1.7453703549108468e-05,-4.8713012802181765e-05,0.0,0.0,0.0
1.752932985255029e-05,-4.864124275627546e-05,0.0,0.0,0.0
1.7835360267781653e-05,-4.8709323891671374e-05,0.0,0.0,0.0
1.8059768990497105e-05,-4.864547372562811e-05,0.0,0.0,0.0
1.775507007550914e-05,-4.870466364081949e-05,0.0,0.0,0.0
1.7115020455094054e-05,-4.8650454118615016e-05,0.0,0.0,0.0
1.682539368630387e-05,-4.869945769314654e-05,0.0,0.0,0.0
1.705942122498527e-05,-4.8655798309482634e-05,0.0,0.0,0.0
1.7462320101913065e-05,-4.840692054131068e-05,0.0,0.0,0.0
1.7172658772324212e-05,-4.856089799432084e-05,0.0,0.0,0.0
1.709081516310107e-05,-4.876084494753741e-05,0.0,0.0,0.0
1.7143707736977376e-05,-4.8351354053011164e-05,0.0,0.0,0.0
1.7103366189985536e-05,-4.861023626290262e-05,0.0,0.0,0.0
1.7132877474068664e-05,-4.868603355134837e-05,0.0,0.0,0.0
1.7112613932113163e-05,-4.866494418820366e-05,0.0,0.0,0.0
1.669968150963541e-05,-4.847623858950101e-05,0.0,0.0,0.0
1.6614079868304543e-05,-4.851108678849414e-05,0.0,0.0,0.0
1.6445272194687277e-05,-4.8720081395003945e-05,0.0,0.0,0.0
1.6600251910858788e-05,-4.827565862797201e-05,0.0,0.0,0.0
1.7017060599755496e-05,-4.8193876864388585e-05,0.0,0.0,0.0
1.672934195084963e-05,-4.8008394514909014e-05,0.0,0.0,0.0
1.697483276075218e-05,-4.81263232359197e-05,0.0,0.0,0.0
1.7090140318032354e-05,-4.8382498789578676e-05,0.0,0.0,0.0
1.7140204363386147e-05,-4.8033034545369446e-05,0.0,0.0,0.0
1.7344260413665324e-05,-4.8212088586296886e-05,0.0,0.0,0.0
1.7770531485439278e-05,-4.867744792136364e-05,0.0,0.0,0.0
1.781652645149734e-05,-4.857768362853676e-05,0.0,0.0,0.0
1.7765452867024578e-05,-4.8448571760673076e-05,0.0,0.0,0.0
1.78197897184873e-05,-4.863308640778996e-05,0.0,0.0,0.0
1.7763790310709737e-05,-4.8714453441789374e-05,0.0,0.0,0.0
1.7820062566897832e-05,-4.858969259657897e-05,0.0,0.0,0.0
1.7764712538337335e-05,-4.844399882131256e-05,0.0,0.0,0.0
1.7818128981161863e-05,-4.8621084715705365e-05,0.0,0.0,0.0
1.7746213416103274e-05,-4.9004247557604685e-05,0.0,0.0,0.0
1.7520902474643663e-05,-4.83962066937238e-05,0.0,0.0,0.0
1.768740185070783e-05,-4.8578953283140436e-05,0.0,0.0,0.0
1.788107692846097e-05,-4.820686808670871e-05,0.0,0.0,0.0
1.79832277353853e-05,-4.8389967560069636e-05,0.0,0.0,0.0
1.8478820493328385e-05,-4.886805982096121e-05,0.0,0.0,0.0
1.8416491002426483e-05,-4.851735138799995e-05,0.0,0.0,0.0
1.803146551537793e-05,-4.8805719416122884e-05,0.0,0.0,0.0
1.771690403984394e-05,-4.8796497139846906e-05,0.0,0.0,0.0
1.7850104995886795e-05,-4.890021591563709e-05,0.0,0.0,0.0
1.7749098333297297e-05,-4.858165993937291e-05,0.0,0.0,0.0
1.7821550500229932e-05,-4.874664591625333e-05,0.0,0.0,0.0
1.759340193530079e-05,-4.862708010477945e-05,0.0,0.0,0.0
1.7285990907112136e-05,-4.836688094655983e-05,0.0,0.0,0.0
1.712335870251991e-05,-4.829950557905249e-05,0.0,0.0,0.0
1.7259913875022903e-05,-4.8688096285331994e-05,0.0,0.0,0.0
1.7331196431769058e-05,-4.867795723839663e-05,0.0,0.0,0.0
1.723597051750403e-05,-4.866349991061725e-05,0.0,0.0,0.0
1.7463980839238502e-05,-4.858099782723002e-05,0.0,0.0,0.0
1.7231706806342117e-05,-4.821762559004128e-05,0.0,0.0,0.0
1.692654041107744e-05,-4.813940904568881e-05,0.0,0.0,0.0
1.6972982848528773e-05,-4.8280176997650415e-05,0.0,0.0,0.0
1.6789887013146654e-05,-4.847428135690279e-05,0.0,0.0,0.0
1.6403630070271902e-05,-4.846616502618417e-05,0.0,0.0,0.0
1.6596724890405312e-05,-4.8138022975763306e-05,0.0,0.0,0.0
1.7020036466419697e-05,-4.7972356696845964e-05,0.0,0.0,0.0
1.7111357010435313e-05,-4.870842531090602e-05,0.0,0.0,0.0
1.617731868464034e-05,-4.862634523306042e-05,0.0,0.0,0.0
1.6370251614716835e-05,-4.8407444410258904e-05,0.0,0.0,0.0
1.6516996765858494e-05,-4.799686212209053e-05,0.0,0.0,0.0
1.6944457456702366e-05,-4.8563655582256615e-05,0.0,0.0,0.0
1.7245047274627723e-05,-4.874841033597477e-05,0.0,0.0,0.0
1.752702155499719e-05,-4.861424531554803e-05,0.0,0.0,0.0
1.769554910424631e-05,-4.872942008660175e-05,0.0,0.0,0.0
1.7540904082125053e-05,-4.86309509142302e-05,0.0,0.0,0.0
1.7490914615336806e-05,-4.849143806495704e-05,0.0,0.0,0.0
1.738739592838101e-05,-4.849959077546373e-05,0.0,0.0,0.0
1.7953232600120828e-05,-4.873901707469486e-05,0.0,0.0,0.0
1.7474745618528686e-05,-4.862435889663175e-05,0.0,0.0,0.0
1.772064388205763e-05,-4.88994519400876e-05,0.0,0.0,0.0
1.774149131961167e-05,-4.8815698391990736e-05,0.0,0.0,0.0
1.7503352864878252e-05,-4.8692036216380075e-05,0.0,0.0,0.0
1.7402635421603918e-05,-4.8813435569172725e-05,0.0,0.0,0.0
1.7650196241447702e-05,-4.9018231948139146e-05,0.0,0.0,0.0
1.7605232642381452e-05,-4.9136091547552496e-05,0.0,0.0,0.0
1.7869735529529862e-05,-4.9340214900439605e-05,0.0,0.0,0.0
1.7948184904525988e-05,-4.935579636367038e-05,0.0,0.0,0.0
1.7448124708607793e-05,-4.933919626637362e-05,0.0,0.0,0.0
1.738779610604979e-05,-4.918610648019239e-05,0.0,0.0,0.0
1.7119677067967132e-05,-4.8860681999940425e-05,0.0,0.0,0.0
1.725708534650039e-05,-4.926775363855995e-05,0.0,0.0,0.0
1.7719836250762455e-05,-4.95208878419362e-05,0.0,0.0,0.0
1.7774942534742877e-05,-4.981491656508297e-05,0.0,0.0,0.0
1.7127988030551933e-05,-4.951720984536223e-05,0.0,0.0,0.0
1.7097425370593555e-05,-4.9206893891096115e-05,0.0,0.0,0.0
1.6824673366500065e-05,-4.94626619911287e-05,0.0,0.0,0.0
1.7041673345374875e-05,-4.896856989944354e-05,0.0,0.0,0.0
1.7460846720496193e-05,-4.904245361103676e-05,0.0,0.0,0.0
1.7177604604512453e-05,-4.8992689698934555e-05,0.0,0.0,0.0
1.683884511294309e-05,-4.927693589706905e-05,0.0,0.0,0.0
1.6778458302724175e-05,-4.9377154937246814e-05,0.0,0.0,0.0
1.7022450265358202e-05,-4.9316684453515336e-05,0.0,0.0,0.0
1.6920314010349102e-05,-4.915611134492792e-05,0.0,0.0,0.0
1.6530764696653932e-05,-4.9171620048582554e-05,0.0,0.0,0.0
1.6668416719767265e-05,-4.921246363664977e-05,0.0,0.0,0.0
1.678544322203379e-05,-4.9129288527183235e-05,0.0,0.0,0.0
1.6783855244284496e-05,-4.942343366565183e-05,0.0,0.0,0.0
1.6956884792307392e-05,-4.945311593473889e-05,0.0,0.0,0.0
1.7122531062341295e-05,-4.95828571729362e-05,0.0,0.0,0.0
1.726948903524317e-05,-4.9595673772273585e-05,0.0,0.0,0.0
1.731421798467636e-05,-4.977815842721611e-05,0.0,0.0,0.0
1.725907532090787e-05,-4.933181844535284e-05,0.0,0.0,0.0
1.7318971003987826e-05,-4.923976302961819e-05,0.0,0.0,0.0
1.7152568034362048e-05,-4.902093132841401e-05,0.0,0.0,0.0
1.7090860637836158e-05,-4.899948908132501e-05,0.0,0.0,0.0
1.723336026770994e-05,-4.9112488341052085e-05,0.0,0.0,0.0
1.7334257790935226e-05,-4.930787690682337e-05,0.0,0.0,0.0
1.7252132238354534e-05,-4.9322250561090186e-05,0.0,0.0,0.0
1.7368658518535085e-05,-4.905702735413797e-05,0.0,0.0,0.0
1.7489133824710734e-05,-4.932635056320578e-05,0.0,0.0,0.0
1.7123726138379425e-05,-4.936221012030728e-05,0.0,0.0,0.0
1.7420336007489823e-05,-4.9338981625624e-05,0.0,0.0,0.0
1.7175836546812207e-05,-4.935141987516545e-05,0.0,0.0,0.0
1.707312731014099e-05,-4.906092362944037e-05,0.0,0.0,0.0
1.7437625501770526e-05,-4.869062831858173e-05,0.0,0.0,0.0
1.7725777070154436e-05,-4.86792741867248e-05,0.0,0.0,0.0
1.7568212570040487e-05,-4.8671081458451226e-05,0.0,0.0,0.0
1.7643529645283706e-05,-4.868313772021793e-05,0.0,0.0,0.0
1.7633446987019852e-05,-4.86682474729605e-05,0.0,0.0,0.0
1.7369879060424864e-05,-4.868506221100688e-05,0.0,0.0,0.0
1.7526625015307218e-05,-4.866712697548792e-05,0.0,0.0,0.0
1.7198330169776455e-05,-4.8281362978741527e-05,0.0,0.0,0.0
1.734073885018006e-05,-4.796685607288964e-05,0.0,0.0,0.0
1.744744622556027e-05,-4.8218145821010694e-05,0.0,0.0,0.0
1.728963979985565e-05,-4.798089503310621e-05,0.0,0.0,0.0
1.7117094103014097e-05,-4.7676065150881186e-05,0.0,0.0,0.0
1.7119489712058567e-05,-4.766353958984837e-05,0.0,0.0,0.0
1.698731466603931e-05,-4.7535340854665264e-05,0.0,0.0,0.0
1.690996032266412e-05,-4.73357031296473e-05,0.0,0.0,0.0
1.711743971100077e-05,-4.74476873932872e-05,0.0,0.0,0.0
1.7014033801387995e-05,-4.776683999807574e-05,0.0,0.0,0.0
1.6707541362848133e-05,-4.7996021748986095e-05,0.0,0.0,0.0
1.6534735550521873e-05,-4.792848267243244e-05,0.0,0.0,0.0
1.6764781321398914e-05,-4.7608242311980575e-05,0.0,0.0,0.0
1.6800075172795914e-05,-4.741218435810879e-05,0.0,0.0,0.0
1.682716901996173e-05,-4.7679855924798176e-05,0.0,0.0,0.0
1.7053538613254204e-05,-4.792506297235377e-05,0.0,0.0,0.0
1.681089634075761e-05,-4.7430701670236886e-05,0.0,0.0,0.0
1.6479914847877808e-05,-4.75972265121527e-05,0.0,0.0,0.0
1.704752867226489e-05,-4.804065974894911e-05,0.0,0.0,0.0
1.7182093870360404e-05,-4.797669316758402e-05,0.0,0.0,0.0
1.7069507521227933e-05,-4.8026344302343205e-05,0.0,0.0,0.0
1.7428430510335602e-05,-4.798933878191747e-05,0.0,0.0,0.0
1.7456914065405726e-05,-4.8015273932833225e-05,0.0,0.0,0.0
1.7454367480240762e-05,-4.848814205615781e-05,0.0,0.0,0.0
1.7693244444672018e-05,-4.873404395766556e-05,0.0,0.0,0.0
1.7589520211913623e-05,-4.863101275986992e-05,0.0,0.0,0.0
1.74188880919246e-05,-4.871053897659294e-05,0.0,0.0,0.0
1.748622344166506e-05,-4.8853693442652e-05,0.0,0.0,0.0
1.7624433894525282e-05,-4.885140879196115e-05,0.0,0.0,0.0
1.7820811990532093e-05,-4.86438802909106e-05,0.0,0.0,0.0
1.7940334146260284e-05,-4.8698366299504414e-05,0.0,0.0,0.0
1.7988582840189338e-05,-4.866303061135113e-05,0.0,0.0,0.0
1.7925402062246576e-05,-4.868205724051222e-05,0.0,0.0,0.0
1.7997221220866777e-05,-4.853846621699631e-05,0.0,0.0,0.0
1.7794367522583343e-05,-4.846808224101551e-05,0.0,0.0,0.0
1.7786387616069987e-05,-4.8438367230119184e-05,0.0,0.0,0.0
1.7906593711813912e-05,-4.8134435928659514e-05,0.0,0.0,0.0
1.791073191270698e-05,-4.8213492846116424e-05,0.0,0.0,0.0
1.743337998050265e-05,-4.82168652524706e-05,0.0,0.0,0.0
1.7087002561311238e-05,-4.8451285692863166e-05,0.0,0.0,0.0
1.7151223801192828e-05,-4.8052974307211116e-05,0.0,0.0,0.0
1.7146236132248305e-05,-4.765966514241882e-05,0.0,0.0,0.0
1.7406358892912976e-05,-4.793668267666362e-05,0.0,0.0,0.0
1.7161462892545387e-05,-4.742626697407104e-05,0.0,0.0,0.0
1.7065367501345463e-05,-4.7553214244544506e-05,0.0,0.0,0.0
1.6854795831022784e-05,-4.745932892546989e-05,0.0,0.0,0.0
1.701389737718273e-05,-4.7511497541563585e-05,0.0,0.0,0.0
1.720945510896854e-05,-4.7527308197459206e-05,0.0,0.0,0.0
1.6781916201580316e-05,-4.7448203986277804e-05,0.0,0.0,0.0
1.7064332496374846e-05,-4.7829078539507464e-05,0.0,0.0,0.0
1.713441452011466e-05,-4.7538367653032765e-05,0.0,0.0,0.0
1.6638223314657807e-05,-4.7773763071745634e-05,0.0,0.0,0.0
1.663835246290546e-05,-4.7588142479071394e-05,0.0,0.0,0.0
1.683205300651025e-05,-4.8367375711677596e-05,0.0,0.0,0.0
1.6546475308132358e-05,-4.868818723480217e-05,0.0,0.0,0.0
1.6653155398671515e-05,-4.8274610890075564e-05,0.0,0.0,0.0
1.696995059319306e-05,-4.800694659934379e-05,0.0,0.0,0.0
1.6951515135588124e-05,-4.799429007107392e-05,0.0,0.0,0.0
1.6942312868195586e-05,-4.818202796741389e-05,0.0,0.0,0.0
1.7269147065235302e-05,-4.8318564950022846e-05,0.0,0.0,0.0
1.7319791368208826e-05,-4.836740481550805e-05,0.0,0.0,0.0
1.7376736650476232e-05,-4.843779242946766e-05,0.0,0.0,0.0
1.789346060832031e-05,-4.8700454499339685e-05,0.0,0.0,0.0
1.8020427887677215e-05,-4.86494718643371e-05,0.0,0.0,0.0
1.771465213096235e-05,-4.870475095231086e-05,0.0,0.0,0.0
1.7372234651702456e-05,-4.8647005314705893e-05,0.0,0.0,0.0
1.7143440345535055e-05,-4.8705609515309334e-05,0.0,0.0,0.0
1.7163503798656166e-05,-4.8647540097590536e-05,0.0,0.0,0.0
1.7499798559583724e-05,-4.8703881475375965e-05,0.0,0.0,0.0
1.76824105437845e-05,-4.865027221967466e-05,0.0,0.0,0.0
1.72446252690861e-05,-4.8700330808060244e-05,0.0,0.0,0.0
1.731799238768872e-05,-4.867574170930311e-05,0.0,0.0,0.0
1.7261172615690157e-05,-4.898942279396579e-05,0.0,0.0,0.0
1.757758218445815e-05,-4.9030702939489856e-05,0.0,0.0,0.0
1.7970438420888968e-05,-4.8719906772021204e-05,0.0,0.0,0.0
1.76461417140672e-05,-4.865151640842669e-05,0.0,0.0,0.0
1.790866554074455e-05,-4.8696852900320664e-05,0.0,0.0,0.0
1.770145354385022e-05,-4.817051740246825e-05,0.0,0.0,0.0
1.785948552424088e-05,-4.842997441301122e-05,0.0,0.0,0.0
1.7521508198115043e-05,-4.8315650928998366e-05,0.0,0.0,0.0
1.74646975210635e-05,-4.8315301683032885e-05,0.0,0.0,0.0
1.7257441868423484e-05,-4.8807756684254855e-05,0.0,0.0,0.0
1.7284726709476672e-05,-4.7993820771807805e-05,0.0,0.0,0.0
1.7319329344900325e-05,-4.772299143951386e-05,0.0,0.0,0.0
1.706706825643778e-05,-4.779786468134262e-05,0.0,0.0,0.0
1.717351915431209e-05,-4.804017225978896e-05,0.0,0.0,0.0
1.7218028006027453e-05,-4.79798654851038e-05,0.0,0.0,0.0
1.764191620168276e-05,-4.7882826038403437e-05,0.0,0.0,0.0
1.7486559954704717e-05,-4.7665882448200136e-05,0.0,0.0,0.0
1.718471321510151e-05,-4.7666821046732366e-05,0.0,0.0,0.0
1.7062689948943444e-05,-4.778250149684027e-05,0.0,0.0,0.0
1.7172369553009048e-05,-4.8074627557070926e-05,0.0,0.0,0.0
1.6989944924716838e-05,-4.843353963224217e-05,0.0,0.0,0.0
1.6846481230459176e-05,-4.849477772950195e-05,0.0,0.0,0.0
1.6668689568177797e-05,-4.808688390767202e-05,0.0,0.0,0.0
1.6574842447880656e-05,-4.798522422788665e-05,0.0,0.0,0.0
1.6692911231075414e-05,-4.833015918848105e-05,0.0,0.0,0.0
1.6892581697902642e-05,-4.804343916475773e-05,0.0,0.0,0.0
1.699985659797676e-05,-4.827595694223419e-05,0.0,0.0,0.0
1.690696990408469e-05,-4.8082809371408075e-05,0.0,0.0,0.0
1.6973921447061002e-05,-4.8514080845052376e-05,0.0,0.0,0.0
1.6961861547315493e-05,-4.881212589680217e-05,0.0,0.0,0.0
1.692123078100849e-05,-4.8564055759925395e-05,0.0,0.0,0.0
1.7255311831831932e-05,-4.876744787907228e-05,0.0,0.0,0.0
1.7017629943438806e-05,-4.860377885052003e-05,0.0,0.0,0.0
1.7195641703438014e-05,-4.896631799056195e-05,0.0,0.0,0.0
1.707006958895363e-05,-4.899474515696056e-05,0.0,0.0,0.0
1.7150001440313645e-05,-4.9446302000433207e-05,0.0,0.0,0.0
1.710934520815499e-05,-4.9515001592226326e-05,0.0,0.0,0.0
1.7116655726567842e-05,-4.9108497478300706e-05,0.0,0.0,0.0
1.713719939289149e-05,-4.9225807742914185e-05,0.0,0.0,0.0
1.7434174878872e-05,-4.9154004955198616e-05,0.0,0.0,0.0
1.7676360585028306e-05,-4.919000275549479e-05,0.0,0.0,0.0
1.7407179257133976e-05,-4.9032518290914595e-05,0.0,0.0,0.0
1.7645730622461997e-05,-4.883619476458989e-05,0.0,0.0,0.0
1.773478288669139e-05,-4.885777161689475e-05,0.0,0.0,0.0
1.7614196622162126e-05,-4.871012788498774e-05,0.0,0.0,0.0
1.709060052235145e-05,-4.864529182668775e-05,0.0,0.0,0.0
1.715114376565907e-05,-4.851287303608842e-05,0.0,0.0,0.0
1.7090535038732924e-05,-4.8017238441389054e-05,0.0,0.0,0.0
1.714949576125946e-05,-4.806939614354633e-05,0.0,0.0,0.0
1.7093607311835513e-05,-4.825941869057715e-05,0.0,0.0,0.0
1.714527388685383e-05,-4.815501597477123e-05,0.0,0.0,0.0
1.705618888081517e-05,-4.857509338762611e-05,0.0,0.0,0.0
1.6839063391671516e-05,-4.8697904276195914e-05,0.0,0.0,0.0
1.6760635844548233e-05,-4.798978625331074e-05,0.0,0.0,0.0
1.711609002086334e-05,-4.770360465045087e-05,0.0,0.0,0.0
1.712644734652713e-05,-4.7929486754583195e-05,0.0,0.0,0.0
1.7113414287450723e-05,-4.778948277817108e-05,0.0,0.0,0.0
1.6863374185049906e-05,-4.758316572406329e-05,0.0,0.0,0.0
1.6995711121126078e-05,-4.799272574018687e-05,0.0,0.0,0.0
1.71917872648919e-05,-4.749427898786962e-05,0.0,0.0,0.0
1.682463516772259e-05,-4.7758461732883006e-05,0.0,0.0,0.0
1.681423236732371e-05,-4.854168219026178e-05,0.0,0.0,0.0
1.697157676971983e-05,-4.821334368898533e-05,0.0,0.0,0.0
1.6959529602900147e-05,-4.80043345305603e-05,0.0,0.0,0.0
1.654370134929195e-05,-4.781034294865094e-05,0.0,0.0,0.0
1.666094067331869e-05,-4.784486009157263e-05,0.0,0.0,0.0
1.6766742191975936e-05,-4.818367233383469e-05,0.0,0.0,0.0
1.6800266166683286e-05,-4.850111872656271e-05,0.0,0.0,0.0
1.6920997950364836e-05,-4.8673271521693096e-05,0.0,0.0,0.0
1.712911580398213e-05,-4.840577457798645e-05,0.0,0.0,0.0
1.7369267879985273e-05,-4.8007368604885414e-05,0.0,0.0,0.0
1.7662528989603743e-05,-4.8239297029795125e-05,0.0,0.0,0.0
1.737367892928887e-05,-4.8649453674443066e-05,0.0,0.0,0.0
1.7114791262429208e-05,-4.870150951319374e-05,0.0,0.0,0.0
1.7126281818491407e-05,-4.8737932957010344e-05,0.0,0.0,0.0
1.7115184164140373e-05,-4.8936999519355595e-05,0.0,0.0,0.0
1.7189619029522873e-05,-4.8700952902436256e-05,0.0,0.0,0.0
1.7475949789513834e-05,-4.870937118539587e-05,0.0,0.0,0.0
1.774646261765156e-05,-4.9038710130844265e-05,0.0,0.0,0.0
1.7493997802375816e-05,-4.929480201099068e-05,0.0,0.0,0.0
1.740328298183158e-05,-4.904649540549144e-05,0.0,0.0,0.0
1.7188966012327e-05,-4.8671532567823306e-05,0.0,0.0,0.0
1.7637792552704923e-05,-4.867936149821617e-05,0.0,0.0,0.0
1.7368151020491496e-05,-4.867450115852989e-05,0.0,0.0,0.0
1.693860031082295e-05,-4.86770695715677e-05,0.0,0.0,0.0
1.7269821910304017e-05,-4.8676211008569226e-05,0.0,0.0,0.0
1.7000829757307656e-05,-4.867585812462494e-05,0.0,0.0,0.0
1.7682172256172635e-05,-4.8677000449970365e-05,0.0,0.0,0.0
1.7323834981652908e-05,-4.8675425205146894e-05,0.0,0.0,0.0
1.7087815649574623e-05,-4.846444426220842e-05,0.0,0.0,0.0
1.7156371541204862e-05,-4.8119913117261603e-05,0.0,0.0,0.0
1.708290983515326e-05,-4.800570968654938e-05,0.0,0.0,0.0
1.7159420167445205e-05,-4.782371615874581e-05,0.0,0.0,0.0
1.708152012724895e-05,-4.783138138009235e-05,0.0,0.0,0.0
1.7159343769890256e-05,-4.7697307309135795e-05,0.0,0.0,0.0
1.7231766832992435e-05,-4.7470304707530886e-05,0.0,0.0,0.0
1.73522512341151e-05,-4.767663995153271e-05,0.0,0.0,0.0
1.7221276721102186e-05,-4.7791472752578557e-05,0.0,0.0,0.0
1.7356040189042687e-05,-4.7999674279708415e-05,0.0,0.0,0.0
1.7116668459493667e-05,-4.8010493628680706e-05,0.0,0.0,0.0
1.702949703030754e-05,-4.799903399543837e-05,0.0,0.0,0.0
1.6883868738659658e-05,-4.792576146428473e-05,0.0,0.0,0.0
1.708737363514956e-05,-4.768524013343267e-05,0.0,0.0,0.0
1.7084714272641577e-05,-4.784769771504216e-05,0.0,0.0,0.0
1.6790267181931995e-05,-4.8494170187041163e-05,0.0,0.0,0.0
1.6822492398205213e-05,-4.8219120799330994e-05,0.0,0.0,0.0
1.7089749235310592e-05,-4.846398951485753e-05,0.0,0.0,0.0
1.71468491316773e-05,-4.850996992900036e-05,0.0,0.0,0.0
1.709844400465954e-05,-4.788771548192017e-05,0.0,0.0,0.0
1.685215647739824e-05,-4.867425741394982e-05,0.0,0.0,0.0
1.70047005667584e-05,-4.8683104978408664e-05,0.0,0.0,0.0
1.72057407326065e-05,-4.866544986725785e-05,0.0,0.0,0.0
1.781579339876771e-05,-4.869037002208643e-05,0.0,0.0,0.0
1.803401937650051e-05,-4.865961454925127e-05,0.0,0.0,0.0
1.717248778732028e-05,-4.8694888391764835e-05,0.0,0.0,0.0
1.7194399333675392e-05,-4.865630398853682e-05,0.0,0.0,0.0
1.7064236089936458e-05,-4.869710755883716e-05,0.0,0.0,0.0
1.7161788491648622e-05,-4.8857131332624704e-05,0.0,0.0,0.0
1.747551687003579e-05,-4.904768502456136e-05,0.0,0.0,0.0
1.7831043805927038e-05,-4.897921098745428e-05,0.0,0.0,0.0
1.7766662494977936e-05,-4.90417551191058e-05,0.0,0.0,0.0
1.796523247321602e-05,-4.898520273854956e-05,0.0,0.0,0.0
1.8273982277605683e-05,-4.888687908533029e-05,0.0,0.0,0.0
1.8179756807512604e-05,-4.865750815952197e-05,0.0,0.0,0.0
1.7688487787381746e-05,-4.869226904702373e-05,0.0,0.0,0.0
1.7554370060679503e-05,-4.8662965127732605e-05,0.0,0.0,0.0
1.7696153008728288e-05,-4.8687044909456745e-05,0.0,0.0,0.0
1.736130980134476e-05,-4.8763638915261254e-05,0.0,0.0,0.0
1.7143867808044888e-05,-4.891432399745099e-05,0.0,0.0,0.0
1.709600110189058e-05,-4.8710211558500305e-05,0.0,0.0,0.0
1.7145830497611314e-05,-4.864617221755907e-05,0.0,0.0,0.0
1.7095511793741025e-05,-4.864973743679002e-05,0.0,0.0,0.0
1.7187603589263745e-05,-4.83490657643415e-05,0.0,0.0,0.0
1.7397751435055397e-05,-4.8334066377719864e-05,0.0,0.0,0.0
1.7486718206782825e-05,-4.8324032832169905e-05,0.0,0.0,0.0
1.7117579773184843e-05,-4.8043693823274225e-05,0.0,0.0,0.0
1.712362609396223e-05,-4.797106157639064e-05,0.0,0.0,0.0
1.7117965398938395e-05,-4.831065234611742e-05,0.0,0.0,0.0
1.7388567357556894e-05,-4.808737139683217e-05,0.0,0.0,0.0
1.7234213373740204e-05,-4.847071977565065e-05,0.0,0.0,0.0
1.7061209291568957e-05,-4.80414237244986e-05,0.0,0.0,0.0
1.670271194598172e-05,-4.773830369231291e-05,0.0,0.0,0.0
1.6805211998871528e-05,-4.861117486143485e-05,0.0,0.0,0.0
1.7238029613508843e-05,-4.816432556253858e-05,0.0,0.0,0.0
1.7024298358592205e-05,-4.803557021659799e-05,0.0,0.0,0.0
1.7198195564560592e-05,-4.8368652642238885e-05,0.0,0.0,0.0
1.7059628589777276e-05,-4.8707810492487624e-05,0.0,0.0,0.0
1.7167059922940098e-05,-4.865722803515382e-05,0.0,0.0,0.0
1.7086867956095375e-05,-4.884421286988072e-05,0.0,0.0,0.0
1.7590091374586336e-05,-4.8715977754909545e-05,0.0,0.0,0.0
1.7693269910523668e-05,-4.847427044296637e-05,0.0,0.0,0.0
1.7275977370445617e-05,-4.8681191401556134e-05,0.0,0.0,0.0
1.7545527953188866e-05,-4.866623203270137e-05,0.0,0.0,0.0
1.7799258785089478e-05,-4.869031909038313e-05,0.0,0.0,0.0
1.759888618835248e-05,-4.8754995077615604e-05,0.0,0.0,0.0
1.732534474285785e-05,-4.892726428806782e-05,0.0,0.0,0.0
1.779692138370592e-05,-4.8693949793232605e-05,0.0,0.0,0.0
1.8093927792506292e-05,-4.866488234256394e-05,0.0,0.0,0.0
1.77992696990259e-05,-4.873571378993802e-05,0.0,0.0,0.0
1.7781752831069753e-05,-4.902042564935982e-05,0.0,0.0,0.0
1.780450838850811e-05,-4.933842865284532e-05,0.0,0.0,0.0
1.7756734450813383e-05,-4.931584044243209e-05,0.0,0.0,0.0
1.7513171769678593e-05,-4.87485813209787e-05,0.0,0.0,0.0
1.7692642359179445e-05,-4.890426134807058e-05,0.0,0.0,0.0
1.787803921615705e-05,-4.882421126239933e-05,0.0,0.0,0.0
1.7718462913762778e-05,-4.856654777540825e-05,0.0,0.0,0.0
1.759877341100946e-05,-4.876503226114437e-05,0.0,0.0,0.0
1.7373884475091472e-05,-4.811680264538154e-05,0.0,0.0,0.0
1.7523780115880072e-05,-4.847132368013263e-05,0.0,0.0,0.0
1.717912164167501e-05,-4.850810000789352e-05,0.0,0.0,0.0
1.6715688616386615e-05,-4.8056190280476585e-05,0.0,0.0,0.0
1.640042319195345e-05,-4.7848352551227435e-05,0.0,0.0,0.0
1.705968679743819e-05,-4.7614048526156694e-05,0.0,0.0,0.0
1.7284108253079467e-05,-4.771691601490602e-05,0.0,0.0,0.0
1.710047945380211e-05,-4.762848766404204e-05,0.0,0.0,0.0
1.6982745364657603e-05,-4.7703248128527775e-05,0.0,0.0,0.0
1.676101965131238e-05,-4.8087989853229374e-05,0.0,0.0,0.0
1.6670710465405136e-05,-4.827738302992657e-05,0.0,0.0,0.0
1.6558415154577233e-05,-4.767456266563386e-05,0.0,0.0,0.0
1.6677742678439245e-05,-4.754411565954797e-05,0.0,0.0,0.0
1.645054180698935e-05,-4.756865746458061e-05,0.0,0.0,0.0
1.645012707740534e-05,-4.785566488862969e-05,0.0,0.0,0.0
1.644657641008962e-05,-4.790724051417783e-05,0.0,0.0,0.0
1.652763967285864e-05,-4.830996476812288e-05,0.0,0.0,0.0
1.6818503354443237e-05,-4.874310252489522e-05,0.0,0.0,0.0
1.7119042240665294e-05,-4.856443410972133e-05,0.0,0.0,0.0
1.7121014025178738e-05,-4.8466197767993435e-05,0.0,0.0,0.0
1.7121101336670108e-05,-4.856974192080088e-05,0.0,0.0,0.0
1.7119551557698287e-05,-4.876663297181949e-05,0.0,0.0,0.0
1.7122049030149356e-05,-4.860066474066116e-05,0.0,0.0,0.0
1.7119044059654698e-05,-4.873854049947113e-05,0.0,0.0,0.0
1.739869185257703e-05,-4.834955689148046e-05,0.0,0.0,0.0
1.749267175910063e-05,-4.8342248192057014e-05,0.0,0.0,0.0
1.7425958503736183e-05,-4.885274393018335e-05,0.0,0.0,0.0
1.7481392205809243e-05,-4.882507346337661e-05,0.0,0.0,0.0
1.720193358778488e-05,-4.883752262685448e-05,0.0,0.0,0.0
1.7112501154770143e-05,-4.90932070533745e-05,0.0,0.0,0.0
1.7128128092736006e-05,-4.916172110824846e-05,0.0,0.0,0.0
1.7315873265033588e-05,-4.92102735734079e-05,0.0,0.0,0.0
1.7668331565801054e-05,-4.875857484876178e-05,0.0,0.0,0.0
1.7785974705475383e-05,-4.8890276957536116e-05,0.0,0.0,0.0
1.779699778126087e-05,-4.8829733714228496e-05,0.0,0.0,0.0
1.746902307786513e-05,-4.867400275543332e-05,0.0,0.0,0.0
1.7121110431617126e-05,-4.883464862359688e-05,0.0,0.0,0.0
1.7120170014095493e-05,-4.8856352805159986e-05,0.0,0.0,0.0
1.7376225514453836e-05,-4.8703517677495256e-05,0.0,0.0,0.0
1.7657357602729462e-05,-4.8529356718063354e-05,0.0,0.0,0.0
1.7270909665967338e-05,-4.8490626795683056e-05,0.0,0.0,0.0
1.6792288079159334e-05,-4.861805427935906e-05,0.0,0.0,0.0
1.6863419659784995e-05,-4.8730864364188164e-05,0.0,0.0,0.0
1.7030064555001445e-05,-4.855122460867278e-05,0.0,0.0,0.0
1.682373294897843e-05,-4.8348487325711176e-05,0.0,0.0,0.0
1.6805463019409217e-05,-4.7969966544769704e-05,0.0,0.0,0.0
1.707316368992906e-05,-4.803620322491042e-05,0.0,0.0,0.0
1.6857238733791746e-05,-4.7945348342182115e-05,0.0,0.0,0.0
1.7025577108142897e-05,-4.771042586071417e-05,0.0,0.0,0.0
1.688991869741585e-05,-4.732247907668352e-05,0.0,0.0,0.0
1.6983240129775368e-05,-4.791623723576777e-05,0.0,0.0,0.0
1.6959358617896214e-05,-4.780456220032647e-05,0.0,0.0,0.0
1.665193121880293e-05,-4.8363999667344615e-05,0.0,0.0,0.0
1.714891732262913e-05,-4.8355745093431324e-05,0.0,0.0,0.0
1.6575490008108318e-05,-4.753972461912781e-05,0.0,0.0,0.0
1.6669397155055776e-05,-4.829116369364783e-05,0.0,0.0,0.0
1.7049587768269703e-05,-4.8488753236597404e-05,0.0,0.0,0.0
1.688953852863051e-05,-4.832895865547471e-05,0.0,0.0,0.0
1.6585010598646477e-05,-4.7910634748404846e-05,0.0,0.0,0.0
1.6811274690553546e-05,-4.845885996473953e-05,0.0,0.0,0.0
1.716460974421352e-05,-4.8647714720573276e-05,0.0,0.0,0.0
1.6910220438148826e-05,-4.8691497795516625e-05,0.0,0.0,0.0
1.681687353993766e-05,-4.8672285629436374e-05,0.0,0.0,0.0
1.7053476767614484e-05,-4.8670994146959856e-05,0.0,0.0,0.0
1.747862006595824e-05,-4.896558675682172e-05,0.0,0.0,0.0
1.7436625057598576e-05,-4.906292451778427e-05,0.0,0.0,0.0
1.7473452317062765e-05,-4.896045720670372e-05,0.0,0.0,0.0
1.7228992874152027e-05,-4.927360714646056e-05,0.0,0.0,0.0
1.673214319453109e-05,-4.932161755277775e-05,0.0,0.0,0.0
1.6771988157415763e-05,-4.8965859605232254e-05,0.0,0.0,0.0
1.7643667888478376e-05,-4.9055634008254856e-05,0.0,0.0,0.0
1.7609543647267856e-05,-4.897125472780317e-05,0.0,0.0,0.0
1.76334724528715e-05,-4.899622581433505e-05,0.0,0.0,0.0
1.7535323422634974e-05,-4.8674384743208066e-05,0.0,0.0,0.0
1.7053460396709852e-05,-4.867926691076718e-05,0.0,0.0,0.0
1.717593113426119e-05,-4.8672747652744874e-05,0.0,0.0,0.0
1.7075890355044976e-05,-4.8679903557058424e-05,0.0,0.0,0.0
1.715597500151489e-05,-4.867292591370642e-05,0.0,0.0,0.0
1.7093536371248774e-05,-4.867907409789041e-05,0.0,0.0,0.0
1.714048266876489e-05,-4.8674261051928625e-05,0.0,0.0,0.0
1.7107027815654874e-05,-4.867736788582988e-05,0.0,0.0,0.0
1.7618047422729433e-05,-4.867622192250565e-05,0.0,0.0,0.0
1.737601814966183e-05,-4.867525785812177e-05,0.0,0.0,0.0
1.7025258784997277e-05,-4.8231730033876374e-05,0.0,0.0,0.0
1.6989726645988412e-05,-4.795938002644107e-05,0.0,0.0,0.0
1.6697766113793477e-05,-4.824624193133786e-05,0.0,0.0,0.0
1.7240425222553313e-05,-4.832136619370431e-05,0.0,0.0,0.0
1.7238466170965694e-05,-4.8176589189097285e-05,0.0,0.0,0.0
1.7141954231192358e-05,-4.798234294867143e-05,0.0,0.0,0.0
1.7104837752413005e-05,-4.786450881510973e-05,0.0,0.0,0.0
1.7131473214249127e-05,-4.8098481784109026e-05,0.0,0.0,0.0
1.6975867765722796e-05,-4.8407782742287964e-05,0.0,0.0,0.0
1.692065598035697e-05,-4.801017348654568e-05,0.0,0.0,0.0
1.710766264295671e-05,-4.823264680453576e-05,0.0,0.0,0.0
1.7022763131535612e-05,-4.844638897338882e-05,0.0,0.0,0.0
1.6795664123492315e-05,-4.824041752726771e-05,0.0,0.0,0.0
1.6773077732068487e-05,-4.8602545575704426e-05,0.0,0.0,0.0
1.6871992556843907e-05,-4.8737656470621005e-05,0.0,0.0,0.0
1.7082209524232894e-05,-4.862600690103136e-05,0.0,0.0,0.0
1.7208631106768735e-05,-4.8716639867052436e-05,0.0,0.0,0.0
1.7350468624499626e-05,-4.864472430199385e-05,0.0,0.0,0.0
1.7211012163897976e-05,-4.870007251156494e-05,0.0,0.0,0.0
1.70432249433361e-05,-4.8659276217222214e-05,0.0,0.0,0.0
1.7186090190079994e-05,-4.868739779340103e-05,0.0,0.0,0.0
1.7066060536308214e-05,-4.8670208343537524e-05,0.0,0.0,0.0
1.7718282833811827e-05,-4.8678077291697264e-05,0.0,0.0,0.0
1.7565986127010547e-05,-4.867804818786681e-05,0.0,0.0,0.0
1.7131251297541894e-05,-4.892683864454739e-05,0.0,0.0,0.0
1.7883330656331964e-05,-4.905010064248927e-05,0.0,0.0,0.0
1.8185928638558835e-05,-4.921122672385536e-05,0.0,0.0,0.0
1.7633465176913887e-05,-4.9180172936758026e-05,0.0,0.0,0.0
1.7664737242739648e-05,-4.894243465969339e-05,0.0,0.0,0.0
1.7815447790781036e-05,-4.927302506985143e-05,0.0,0.0,0.0
1.7387756088282913e-05,-4.893005461781286e-05,0.0,0.0,0.0
1.7479278540122323e-05,-4.88631303596776e-05,0.0,0.0,0.0
1.780851380317472e-05,-4.8845347919268534e-05,0.0,0.0,0.0
1.7780377675080672e-05,-4.866810922976583e-05,0.0,0.0,0.0
1.7799442503019236e-05,-4.883248402620666e-05,0.0,0.0,0.0
1.764996886777226e-05,-4.8865058488445356e-05,0.0,0.0,0.0
1.759006227075588e-05,-4.8562018491793424e-05,0.0,0.0,0.0
1.7780354028218426e-05,-4.82202012790367e-05,0.0,0.0,0.0
1.7587180991540663e-05,-4.802033436135389e-05,0.0,0.0,0.0
1.714672180241905e-05,-4.8086800234159455e-05,0.0,0.0,0.0
1.7096195733756758e-05,-4.841926784138195e-05,0.0,0.0,0.0
1.7217736967722885e-05,-4.851044650422409e-05,0.0,0.0,0.0
1.7346344975521788e-05,-4.8134232201846316e-05,0.0,0.0,0.0
1.724296271277126e-05,-4.820266622118652e-05,0.0,0.0,0.0
1.7322277926723473e-05,-4.810868631466292e-05,0.0,0.0,0.0
1.723367859085556e-05,-4.791761239175685e-05,0.0,0.0,0.0
1.7004229448502883e-05,-4.807721052202396e-05,0.0,0.0,0.0
1.6905654774745926e-05,-4.7945999540388584e-05,0.0,0.0,0.0
1.6685375157976523e-05,-4.805175194633193e-05,0.0,0.0,0.0
1.686537689238321e-05,-4.769218503497541e-05,0.0,0.0,0.0
1.6987456547212787e-05,-4.792407344211824e-05,0.0,0.0,0.0
1.6947939002420753e-05,-4.856276063947007e-05,0.0,0.0,0.0
1.6935018720687367e-05,-4.845074363402091e-05,0.0,0.0,0.0
1.722081651678309e-05,-4.853396239923313e-05,0.0,0.0,0.0
1.7044581909431145e-05,-4.87312936456874e-05,0.0,0.0,0.0
1.6962743757176213e-05,-4.820878166356124e-05,0.0,0.0,0.0
1.6932806829572655e-05,-4.820207323064096e-05,0.0,0.0,0.0
1.717032864689827e-05,-4.81721835967619e-05,0.0,0.0,0.0
1.7451358871767297e-05,-4.833192360820249e-05,0.0,0.0,0.0
1.7652371752774343e-05,-4.872444333159365e-05,0.0,0.0,0.0
1.7597320038476028e-05,-4.863342110184021e-05,0.0,0.0,0.0
1.7796928659663536e-05,-4.871403143624775e-05,0.0,0.0,0.0
1.7661597667029127e-05,-4.86434182676021e-05,0.0,0.0,0.0
1.7571155694895424e-05,-4.8832112952368334e-05,0.0,0.0,0.0
1.7921856851899065e-05,-4.897943654214032e-05,0.0,0.0,0.0
1.798854827939067e-05,-4.903925582766533e-05,0.0,0.0,0.0
1.7844566173152998e-05,-4.908529808744788e-05,0.0,0.0,0.0
1.782392428140156e-05,-4.9176724132848904e-05,0.0,0.0,0.0
1.808391243685037e-05,-4.8722471547080204e-05,0.0,0.0,0.0
1.7912589100888e-05,-4.863532740273513e-05,0.0,0.0,0.0
1.841757148213219e-05,-4.871244163950905e-05,0.0,0.0,0.0
1.841248740674928e-05,-4.864449147135019e-05,0.0,0.0,0.0
1.780628736014478e-05,-4.8704081564210355e-05,0.0,0.0,0.0
1.7472708350396715e-05,-4.865210939897224e-05,0.0,0.0,0.0
1.7757638488546945e-05,-4.869715849054046e-05,0.0,0.0,0.0
1.781828723323997e-05,-4.8945530579658225e-05,0.0,0.0,0.0
1.7772443243302405e-05,-4.851524136029184e-05,0.0,0.0,0.0
1.780616003088653e-05,-4.7952125896699727e-05,0.0,0.0,0.0
1.727173730614595e-05,-4.8582707677269354e-05,0.0,0.0,0.0
1.755402445269283e-05,-4.843954957323149e-05,0.0,0.0,0.0
1.7895570636028424e-05,-4.853769496548921e-05,0.0,0.0,0.0
1.748200156725943e-05,-4.828716555493884e-05,0.0,0.0,0.0
1.7718974049785174e-05,-4.812544284504838e-05,0.0,0.0,0.0
1.7568503608345054e-05,-4.82341529277619e-05,0.0,0.0,0.0
1.7648024368099868e-05,-4.810226892004721e-05,0.0,0.0,0.0
1.7625641703489237e-05,-4.8247929953504354e-05,0.0,0.0,0.0
1.726276423141826e-05,-4.792623803950846e-05,0.0,0.0,0.0
1.6979382053250447e-05,-4.806652941624634e-05,0.0,0.0,0.0
1.6913898434722796e-05,-4.7958306822692975e-05,0.0,0.0,0.0
1.7000002117129043e-05,-4.803820775123313e-05,0.0,0.0,0.0
1.6900530681596138e-05,-4.798310692422092e-05,0.0,0.0,0.0
1.7124208170571364e-05,-4.8016710934462026e-05,0.0,0.0,0.0
1.711575168883428e-05,-4.821422044187784e-05,0.0,0.0,0.0
1.7030824892572127e-05,-4.864183210884221e-05,0.0,0.0,0.0
1.6881953342817724e-05,-4.862708374275826e-05,0.0,0.0,0.0
1.7089992979890667e-05,-4.8326033720513806e-05,0.0,0.0,0.0
1.7145132005680352e-05,-4.8422178224427626e-05,0.0,0.0,0.0
1.715468715701718e-05,-4.8574336688034236e-05,0.0,0.0,0.0
1.7438749637221918e-05,-4.846108640776947e-05,0.0,0.0,0.0
1.7441238014725968e-05,-4.8602847527945414e-05,0.0,0.0,0.0
1.7164560631499626e-05,-4.9044389015762135e-05,0.0,0.0,0.0
1.7396616385667585e-05,-4.867093593929894e-05,0.0,0.0,0.0
1.7218229913851246e-05,-4.9256130296271294e-05,0.0,0.0,0.0
1.703995258139912e-05,-4.914788223686628e-05,0.0,0.0,0.0
1.7186173863592558e-05,-4.891066055279225e-05,0.0,0.0,0.0
1.7068481611204334e-05,-4.935068136546761e-05,0.0,0.0,0.0
1.7650156223680824e-05,-4.9066529754782096e-05,0.0,0.0,0.0
1.7349679183098488e-05,-4.924598033539951e-05,0.0,0.0,0.0
1.7269796444452368e-05,-4.937492121825926e-05,0.0,0.0,0.0
1.7542613932164386e-05,-4.910974166705273e-05,0.0,0.0,0.0
1.7180078430101275e-05,-4.921925574308261e-05,0.0,0.0,0.0
1.7551919881952927e-05,-4.897334656561725e-05,0.0,0.0,0.0
1.7954558643396012e-05,-4.882909342995845e-05,0.0,0.0,0.0
1.79805610969197e-05,-4.904141678707674e-05,0.0,0.0,0.0
1.7768912584870122e-05,-4.883000292466022e-05,0.0,0.0,0.0
1.7661159290582873e-05,-4.854262078879401e-05,0.0,0.0,0.0
1.7306736481259577e-05,-4.833206185139716e-05,0.0,0.0,0.0
1.7005657355184667e-05,-4.834532592212781e-05,0.0,0.0,0.0
1.690221506578382e-05,-4.8338919441448525e-05,0.0,0.0,0.0
1.7105659935623407e-05,-4.844613067689352e-05,0.0,0.0,0.0
1.7136162568931468e-05,-4.866363451583311e-05,0.0,0.0,0.0
1.7104719518101774e-05,-4.8685295041650534e-05,0.0,0.0,0.0
1.7211134036188014e-05,-4.8446945584146306e-05,0.0,0.0,0.0
1.7414960893802345e-05,-4.781248571816832e-05,0.0,0.0,0.0
1.7440524970879778e-05,-4.791007813764736e-05,0.0,0.0,0.0
1.7118996765930206e-05,-4.812606130144559e-05,0.0,0.0,0.0
1.7091573681682348e-05,-4.82091709272936e-05,0.0,0.0,0.0
1.6819698430481367e-05,-4.810358223039657e-05,0.0,0.0,0.0
1.67567723110551e-05,-4.761314266943373e-05,0.0,0.0,0.0
1.6520074495929293e-05,-4.7999223170336336e-05,0.0,0.0,0.0
1.6667503587086685e-05,-4.856755185755901e-05,0.0,0.0,0.0
1.6869658793439157e-05,-4.8739006160758436e-05,0.0,0.0,0.0
1.6716412574169226e-05,-4.8628426156938076e-05,0.0,0.0,0.0
1.6839032468851656e-05,-4.8711175622884184e-05,0.0,0.0,0.0
1.6977483028313145e-05,-4.865256778430194e-05,0.0,0.0,0.0
1.6728738046367653e-05,-4.869043914368376e-05,0.0,0.0,0.0
1.6578585928073153e-05,-4.867017560172826e-05,0.0,0.0,0.0
1.6866906662471592e-05,-4.867570169153623e-05,0.0,0.0,0.0
1.6914265870582312e-05,-4.868229734711349e-05,0.0,0.0,0.0
1.717654595267959e-05,-4.884674126515165e-05,0.0,0.0,0.0
1.7422051314497367e-05,-4.90334969072137e-05,0.0,0.0,0.0
1.78253812919138e-05,-4.883002839051187e-05,0.0,0.0,0.0
1.777303623384796e-05,-4.899552004644647e-05,0.0,0.0,0.0
1.752236312313471e-05,-4.932187948725186e-05,0.0,0.0,0.0
1.7389877029927447e-05,-4.937296034768224e-05,0.0,0.0,0.0
1.7636617485550232e-05,-4.932335650664754e-05,0.0,0.0,0.0
1.7403490346623585e-05,-4.9477013817522675e-05,0.0,0.0,0.0
1.7082338672480546e-05,-4.9550941184861585e-05,0.0,0.0,0.0
1.7245340131921694e-05,-4.939902282785624e-05,0.0,0.0,0.0
1.739435174386017e-05,-4.930307841277681e-05,0.0,0.0,0.0
1.757829522830434e-05,-4.9258229410042986e-05,0.0,0.0,0.0
1.7709469830151647e-05,-4.87546349177137e-05,0.0,0.0,0.0
1.790820351743605e-05,-4.900030035059899e-05,0.0,0.0,0.0
1.796372998796869e-05,-4.932735100737773e-05,0.0,0.0,0.0
1.7598551494302228e-05,-4.9018934078048915e-05,0.0,0.0,0.0
1.7023899999912828e-05,-4.8694888391764835e-05,0.0,0.0,0.0
1.7487978766439483e-05,-4.865954178967513e-05,0.0,0.0,0.0
1.7432386812288314e-05,-4.869137774221599e-05,0.0,0.0,0.0
1.7207255950779654e-05,-4.8662626795703545e-05,0.0,0.0,0.0
1.7075884898076765e-05,-4.868865289608948e-05,0.0,0.0,0.0
1.715375947242137e-05,-4.842044654651545e-05,0.0,0.0,0.0
1.709788921289146e-05,-4.832299237023108e-05,0.0,0.0,0.0
1.713411620585248e-05,-4.857776366407052e-05,0.0,0.0,0.0
1.7115242371801287e-05,-4.868695395998657e-05,0.0,0.0,0.0
1.7118971300078556e-05,-4.826209624297917e-05,0.0,0.0,0.0
1.7128275430877693e-05,-4.7793862904654816e-05,0.0,0.0,0.0
1.7107946405303665e-05,-4.749228901346214e-05,0.0,0.0,0.0
1.6797090211184695e-05,-4.749382060253993e-05,0.0,0.0,0.0
1.642007009650115e-05,-4.783993063028902e-05,0.0,0.0,0.0
1.6776672055129893e-05,-4.799860471393913e-05,0.0,0.0,0.0
1.6948533811955713e-05,-4.814666317543015e-05,0.0,0.0,0.0
1.669591983954888e-05,-4.8206373321590945e-05,0.0,0.0,0.0
1.6420979591202922e-05,-4.813461782759987e-05,0.0,0.0,0.0
1.647664248594083e-05,-4.842544149141759e-05,0.0,0.0,0.0
1.651870843488723e-05,-4.867790266871452e-05,0.0,0.0,0.0
1.6705911548342556e-05,-4.8676400183467194e-05,0.0,0.0,0.0
1.6538609997951426e-05,-4.8525867896387354e-05,0.0,0.0,0.0
1.6876088920980692e-05,-4.80581475130748e-05,0.0,0.0,0.0
1.7481761460658163e-05,-4.806470315088518e-05,0.0,0.0,0.0
1.774260090314783e-05,-4.865261144004762e-05,0.0,0.0,0.0
1.7464461052441038e-05,-4.8696114390622824e-05,0.0,0.0,0.0
1.7126178136095405e-05,-4.8659825552022085e-05,0.0,0.0,0.0
1.7114871297962964e-05,-4.868977703154087e-05,0.0,0.0,0.0
1.7126287275459617e-05,-4.866535891778767e-05,0.0,0.0,0.0
1.7115276932599954e-05,-4.896148311672732e-05,0.0,0.0,0.0
1.7125465092249215e-05,-4.9308819143334404e-05,0.0,0.0,0.0
1.71164283528924e-05,-4.91005448566284e-05,0.0,0.0,0.0
1.7613267118576914e-05,-4.872959470958449e-05,0.0,0.0,0.0
1.784500273060985e-05,-4.8913807404460385e-05,0.0,0.0,0.0
1.7747503079590388e-05,-4.8810619773576036e-05,0.0,0.0,0.0
1.8041702787741087e-05,-4.906182221020572e-05,0.0,0.0,0.0
1.791316935850773e-05,-4.9214500904781744e-05,0.0,0.0,0.0
1.778720434231218e-05,-4.894078301731497e-05,0.0,0.0,0.0
1.779663398338016e-05,-4.888882176601328e-05,0.0,0.0,0.0
1.7787720935302787e-05,-4.862291461904533e-05,0.0,0.0,0.0
1.779591002559755e-05,-4.8876856453716755e-05,0.0,0.0,0.0
1.7788601326174103e-05,-4.8834164772415534e-05,0.0,0.0,0.0
1.7656666386756115e-05,-4.869818440056406e-05,0.0,0.0,0.0
1.74593624251429e-05,-4.866235758527182e-05,0.0,0.0,0.0
1.733635872369632e-05,-4.868333780905232e-05,0.0,0.0,0.0
1.7135613234131597e-05,-4.8675050493329763e-05,0.0,0.0,0.0
1.7107304302044213e-05,-4.8672645789338276e-05,0.0,0.0,0.0
1.7047346773324534e-05,-4.85137352370657e-05,0.0,0.0,0.0
1.6870939361979254e-05,-4.79636546515394e-05,0.0,0.0,0.0
1.7085738363675773e-05,-4.760642332257703e-05,0.0,0.0,0.0
1.714990139589645e-05,-4.7357174480566755e-05,0.0,0.0,0.0
1.7053887859219685e-05,-4.740228541777469e-05,0.0,0.0,0.0
1.6807913198135793e-05,-4.794432970811613e-05,0.0,0.0,0.0
1.6442394553450868e-05,-4.8059955588541925e-05,0.0,0.0,0.0
1.645343581913039e-05,-4.795523636857979e-05,0.0,0.0,0.0
1.6734416931285523e-05,-4.804920536116697e-05,0.0,0.0,0.0
1.682603033259511e-05,-4.768924191012047e-05,0.0,0.0,0.0
1.6752208466641605e-05,-4.7931414883350953e-05,0.0,0.0,0.0
1.7065443898900412e-05,-4.8041529225884005e-05,0.0,0.0,0.0
1.7132995708379894e-05,-4.846421506954357e-05,0.0,0.0,0.0
1.710774995444808e-05,-4.875587546848692e-05,0.0,0.0,0.0
1.7133725123130716e-05,-4.861108027398586e-05,0.0,0.0,0.0
1.7107531675719656e-05,-4.8728750698501244e-05,0.0,0.0,0.0
1.7133492292487063e-05,-4.8634996346663684e-05,0.0,0.0,0.0
1.7299586033914238e-05,-4.870780685450882e-05,0.0,0.0,0.0
1.7660217054071836e-05,-4.82916075270623e-05,0.0,0.0,0.0
1.7609354472369887e-05,-4.8175137635553256e-05,0.0,0.0,0.0
1.746315319905989e-05,-4.850769983022474e-05,0.0,0.0,0.0
1.7598560589249246e-05,-4.896623067907058e-05,0.0,0.0,0.0
1.7796272004488856e-05,-4.921450454276055e-05,0.0,0.0,0.0
1.7788104742066935e-05,-4.9011203373083845e-05,0.0,0.0,0.0
1.7678536096354946e-05,-4.913103475701064e-05,0.0,0.0,0.0
1.7465332348365337e-05,-4.933266245643608e-05,0.0,0.0,0.0
1.7448468497605063e-05,-4.936158438795246e-05,0.0,0.0,0.0
1.75482637132518e-05,-4.933501622872427e-05,0.0,0.0,0.0
1.776400131348055e-05,-4.93589868710842e-05,0.0,0.0,0.0
1.787987639545463e-05,-4.9273967306362465e-05,0.0,0.0,0.0
1.8078595530823804e-05,-4.899589839624241e-05,0.0,0.0,0.0
1.8126802387996577e-05,-4.867689494858496e-05,0.0,0.0,0.0
1.779242666088976e-05,-4.8707071982789785e-05,0.0,0.0,0.0
1.77483816514723e-05,-4.895374149782583e-05,0.0,0.0,0.0
1.720608997857198e-05,-4.874874866800383e-05,0.0,0.0,0.0
1.7621885490370914e-05,-4.8616082494845614e-05,0.0,0.0,0.0
1.7659320292295888e-05,-4.872535282629542e-05,0.0,0.0,0.0
1.703277484921273e-05,-4.8637222789693624e-05,0.0,0.0,0.0
1.721603621263057e-05,-4.896161408396438e-05,0.0,0.0,0.0
1.7289088646066375e-05,-4.877635001321323e-05,0.0,0.0,0.0
1.7309124814346433e-05,-4.8637710278853774e-05,0.0,0.0,0.0
1.680587956798263e-05,-4.8264926590491086e-05,0.0,0.0,0.0
1.6833539120852947e-05,-4.814311250811443e-05,0.0,0.0,0.0
1.695379069133196e-05,-4.842261114390567e-05,0.0,0.0,0.0
1.7155007299152203e-05,-4.8079655243782327e-05,0.0,0.0,0.0
1.7100186596508138e-05,-4.8051762860268354e-05,0.0,0.0,0.0
1.7129168554674834e-05,-4.796633584192023e-05,0.0,0.0,0.0
1.696254184935242e-05,-4.835494837607257e-05,0.0,0.0,0.0
1.67740072356537e-05,-4.850561890634708e-05,0.0,0.0,0.0
1.6663783753756434e-05,-4.822103073820472e-05,0.0,0.0,0.0
1.6687950846971944e-05,-4.799624366569333e-05,0.0,0.0,0.0
1.7123853467637673e-05,-4.812699626199901e-05,0.0,0.0,0.0
1.71121191669954e-05,-4.843281567445956e-05,0.0,0.0,0.0
1.7133181245299056e-05,-4.867075404035859e-05,0.0,0.0,0.0
1.7020016457536258e-05,-4.868334508500993e-05,0.0,0.0,0.0
1.6898902686079964e-05,-4.874244405073114e-05,0.0,0.0,0.0
1.7121663404395804e-05,-4.899585837847553e-05,0.0,0.0,0.0
1.753733158693649e-05,-4.9023663450498134e-05,0.0,0.0,0.0
1.769166010490153e-05,-4.896159589407034e-05,0.0,0.0,0.0
1.7510386896901764e-05,-4.8748013796284795e-05,0.0,0.0,0.0
1.7085529179894365e-05,-4.8920435801846907e-05,0.0,0.0,0.0
1.715009602776263e-05,-4.877538594882935e-05,0.0,0.0,0.0
1.7096532246796414e-05,-4.916951365885325e-05,0.0,0.0,0.0
1.7139609553851187e-05,-4.949478534399532e-05,0.0,0.0,0.0
1.7372296497342177e-05,-4.9228383431909606e-05,0.0,0.0,0.0
1.775574855855666e-05,-4.9442201998317614e-05,0.0,0.0,0.0
1.7788754121284e-05,-4.927504778606817e-05,0.0,0.0,0.0
1.7791613572626375e-05,-4.91671307827346e-05,0.0,0.0,0.0
1.757235440891236e-05,-4.917411206406541e-05,0.0,0.0,0.0
1.721594344417099e-05,-4.941152292303741e-05,0.0,0.0,0.0
1.7533424397697672e-05,-4.9101316108135507e-05,0.0,0.0,0.0
1.7810496501624584e-05,-4.902494038105942e-05,0.0,0.0,0.0
1.7960976038011722e-05,-4.901074498775415e-05,0.0,0.0,0.0
1.7971495253732428e-05,-4.9003549065673724e-05,0.0,0.0,0.0
1.7779988411348313e-05,-4.9028189096134156e-05,0.0,0.0,0.0
1.794643139874097e-05,-4.913857992505655e-05,0.0,0.0,0.0
1.7710885003907606e-05,-4.9095924623543397e-05,0.0,0.0,0.0
1.726180562400259e-05,-4.865905430051498e-05,0.0,0.0,0.0
1.7439748262404464e-05,-4.869680560659617e-05,0.0,0.0,0.0
1.736059130053036e-05,-4.865359005634673e-05,0.0,0.0,0.0
1.7130396372522227e-05,-4.8700152547098696e-05,0.0,0.0,0.0
1.7193939129356295e-05,-4.848191747441888e-05,0.0,0.0,0.0
1.7521941117593087e-05,-4.807269942830317e-05,0.0,0.0,0.0
1.777137913450133e-05,-4.794456253875978e-05,0.0,0.0,0.0
1.7705924619804136e-05,-4.805781281902455e-05,0.0,0.0,0.0
1.712246739771217e-05,-4.795916538569145e-05,0.0,0.0,0.0
1.678449370956514e-05,-4.801172690349631e-05,0.0,0.0,0.0
1.67619018611731e-05,-4.7675704990979284e-05,0.0,0.0,0.0
1.649454679863993e-05,-4.766224083141424e-05,0.0,0.0,0.0
1.6696289094397798e-05,-4.79638583783526e-05,0.0,0.0,0.0
1.6861027688719332e-05,-4.803774572792463e-05,0.0,0.0,0.0
1.6720439816708677e-05,-4.851127596339211e-05,0.0,0.0,0.0
1.7093932910938747e-05,-4.8253183194901794e-05,0.0,0.0,0.0
1.75969980773516e-05,-4.836210428038612e-05,0.0,0.0,0.0
1.7388756532454863e-05,-4.883762449026108e-05,0.0,0.0,0.0
1.7019743609125726e-05,-4.832442937185988e-05,0.0,0.0,0.0
1.72017389559187e-05,-4.8631354729877785e-05,0.0,0.0,0.0
1.7057227523764595e-05,-4.8638361477060243e-05,0.0,0.0,0.0
1.7168240447063e-05,-4.869778058491647e-05,0.0,0.0,0.0
1.7267728253500536e-05,-4.866886592935771e-05,0.0,0.0,0.0
1.7485703210695647e-05,-4.86717872263398e-05,0.0,0.0,0.0
1.7438980648876168e-05,-4.9009700887836516e-05,0.0,0.0,0.0
1.7612204828765243e-05,-4.932776573696174e-05,0.0,0.0,0.0
1.7515198123874143e-05,-4.923652522847988e-05,0.0,0.0,0.0
1.725197580526583e-05,-4.9112375563709065e-05,0.0,0.0,0.0
1.7451126041123644e-05,-4.937079575029202e-05,0.0,0.0,0.0
1.7560781998327002e-05,-4.94265477755107e-05,0.0,0.0,0.0
1.7688616935629398e-05,-4.9698512157192454e-05,0.0,0.0,0.0
1.756097117322497e-05,-4.957913188263774e-05,0.0,0.0,0.0
1.7758706235326827e-05,-4.9317186494590715e-05,0.0,0.0,0.0
1.781521314114798e-05,-4.905869718641043e-05,0.0,0.0,0.0
1.777738543751184e-05,-4.9337711971020326e-05,0.0,0.0,0.0
1.775698001438286e-05,-4.9310081521980464e-05,0.0,0.0,0.0
1.7489943274995312e-05,-4.9046189815271646e-05,0.0,0.0,0.0
1.7402115190634504e-05,-4.895898382528685e-05,0.0,0.0,0.0
1.719424471957609e-05,-4.874706064583734e-05,0.0,0.0,0.0
1.7055108401109464e-05,-4.861505294684321e-05,0.0,0.0,0.0
1.7178263078676537e-05,-4.87283687107265e-05,0.0,0.0,0.0
1.707057344901841e-05,-4.863286449108273e-05,0.0,0.0,0.0
1.716340921120718e-05,-4.8711535782786086e-05,0.0,0.0,0.0
1.7084732462535612e-05,-4.864863512921147e-05,0.0,0.0,0.0
1.7150017811218277e-05,-4.869688564212993e-05,0.0,0.0,0.0
1.7097298041335307e-05,-4.821545735467225e-05,0.0,0.0,0.0
1.7138325347332284e-05,-4.797087603947148e-05,0.0,0.0,0.0
1.690602039161604e-05,-4.803690535482019e-05,0.0,0.0,0.0
1.6586825950071216e-05,-4.83575786347501e-05,0.0,0.0,0.0
1.6627151126158424e-05,-4.854627331951633e-05,0.0,0.0,0.0
1.679219349171035e-05,-4.8457830416737124e-05,0.0,0.0,0.0
1.6782203601906076e-05,-4.8407917347503826e-05,0.0,0.0,0.0
1.6634790881653316e-05,-4.810777318198234e-05,0.0,0.0,0.0
1.6732463336666115e-05,-4.851536505157128e-05,0.0,0.0,0.0
1.7100308468798175e-05,-4.8640922614140436e-05,0.0,0.0,0.0
1.714198151603341e-05,-4.870514749200083e-05,0.0,0.0,0.0
1.6992271412163973e-05,-4.86532153445296e-05,0.0,0.0,0.0
1.6918274923227727e-05,-4.8694186261855066e-05,0.0,0.0,0.0
1.715164580673445e-05,-4.866293238592334e-05,0.0,0.0,0.0
1.7483285773778334e-05,-4.868562609772198e-05,0.0,0.0,0.0
1.7494843632448465e-05,-4.867041570832953e-05,0.0,0.0,0.0
1.7733693312038668e-05,-4.867914685746655e-05,0.0,0.0,0.0
1.753355172695592e-05,-4.871850978815928e-05,0.0,0.0,0.0
1.766503555700183e-05,-4.894295852864161e-05,0.0,0.0,0.0
1.7249696611543186e-05,-4.8748399422038347e-05,0.0,0.0,0.0
1.7013337128446437e-05,-4.861349589191377e-05,0.0,0.0,0.0
1.720842374197673e-05,-4.9017584387911484e-05,0.0,0.0,0.0
1.7050144379027188e-05,-4.928333146381192e-05,0.0,0.0,0.0
1.7707545339362696e-05,-4.912423173664138e-05,0.0,0.0,0.0
1.7308655515080318e-05,-4.919710772810504e-05,0.0,0.0,0.0
1.727566632325761e-05,-4.919242928735912e-05,0.0,0.0,0.0
1.7796970496419817e-05,-4.9144709919346496e-05,0.0,0.0,0.0
1.750122828525491e-05,-4.9454411055194214e-05,0.0,0.0,0.0
1.7705784557620063e-05,-4.9262071115663275e-05,0.0,0.0,0.0
1.757630889187567e-05,-4.901032298221253e-05,0.0,0.0,0.0
1.745353984006215e-05,-4.859713226323947e-05,0.0,0.0,0.0
1.7639256839174777e-05,-4.873569560004398e-05,0.0,0.0,0.0
1.745783993101213e-05,-4.863416324951686e-05,0.0,0.0,0.0
1.694713682809379e-05,-4.870337579632178e-05,0.0,0.0,0.0
1.7092188500100747e-05,-4.866208109888248e-05,0.0,0.0,0.0
1.744522523949854e-05,-4.8679550673114136e-05,0.0,0.0,0.0
1.7337273675366305e-05,-4.868212272413075e-05,0.0,0.0,0.0
1.7123109500971623e-05,-4.854601502302103e-05,0.0,0.0,0.0
1.7117134120780975e-05,-4.837182132177986e-05,0.0,0.0,0.0
1.7125003068940714e-05,-4.8306472308468074e-05,0.0,0.0,0.0
1.711546428850852e-05,-4.8206311475951225e-05,0.0,0.0,0.0
1.7126440070569515e-05,-4.7750934754731134e-05,0.0,0.0,0.0
1.7114267393480986e-05,-4.79149202874396e-05,0.0,0.0,0.0
1.712739685899578e-05,-4.7768222430022433e-05,0.0,0.0,0.0
1.707100818748586e-05,-4.7938781790435314e-05,0.0,0.0,0.0
1.6795560441096313e-05,-4.8056201194413006e-05,0.0,0.0,0.0
1.6450567272841e-05,-4.796629582415335e-05,0.0,0.0,0.0
1.6448886526632123e-05,-4.8032623453764245e-05,0.0,0.0,0.0
1.6735868484829552e-05,-4.85605705762282e-05,0.0,0.0,0.0
1.655067717365455e-05,-4.821642505703494e-05,0.0,0.0,0.0
1.6641319234622642e-05,-4.785596684087068e-05,0.0,0.0,0.0
1.713642086542677e-05,-4.8124114982783794e-05,0.0,0.0,0.0
1.707203955447767e-05,-4.840094698010944e-05,0.0,0.0,0.0
1.715947837510612e-05,-4.880225969827734e-05,0.0,0.0,0.0
1.7090455003199168e-05,-4.857931344304234e-05,0.0,0.0,0.0
1.7355781892547384e-05,-4.8747988330433145e-05,0.0,0.0,0.0
1.7660540834185667e-05,-4.862635978497565e-05,0.0,0.0,0.0
1.7610129361855797e-05,-4.870760676567443e-05,0.0,0.0,0.0
1.7621254301047884e-05,-4.866062226938084e-05,0.0,0.0,0.0
1.7469265003455803e-05,-4.867893221671693e-05,0.0,0.0,0.0
1.710073593130801e-05,-4.868421456194483e-05,0.0,0.0,0.0
1.7281639884458855e-05,-4.880882625002414e-05,0.0,0.0,0.0
1.758699909260031e-05,-4.9170954298460856e-05,0.0,0.0,0.0
1.7660899175098166e-05,-4.918912600260228e-05,0.0,0.0,0.0
1.7589638446224853e-05,-4.905430614599027e-05,0.0,0.0,0.0
1.7655154806561768e-05,-4.8969399358611554e-05,0.0,0.0,0.0
1.7502010450698435e-05,-4.905380046693608e-05,0.0,0.0,0.0
1.7498537999927066e-05,-4.897175676887855e-05,0.0,0.0,0.0
1.7809865312301554e-05,-4.8975463869282976e-05,0.0,0.0,0.0
1.783788320608437e-05,-4.866650851909071e-05,0.0,0.0,0.0
1.8116736100637354e-05,-4.8792921006679535e-05,0.0,0.0,0.0
1.8092467144015245e-05,-4.918851482216269e-05,0.0,0.0,0.0
1.7791127902455628e-05,-4.8810594307724386e-05,0.0,0.0,0.0
1.748811519064475e-05,-4.8562542360741645e-05,0.0,0.0,0.0
1.7742495401762426e-05,-4.877097671851516e-05,0.0,0.0,0.0
1.7258462321478873e-05,-4.802480907528661e-05,0.0,0.0,0.0
1.7005457266350277e-05,-4.77074172522407e-05,0.0,0.0,0.0
1.7215505067724735e-05,-4.845094008487649e-05,0.0,0.0,0.0
1.7043787011061795e-05,-4.8277936002705246e-05,0.0,0.0,0.0
1.7181502698804252e-05,-4.760935189551674e-05,0.0,0.0,0.0
1.7073756680474617e-05,-4.776095011038706e-05,0.0,0.0,0.0
1.6931950085563585e-05,-4.7600737161701545e-05,0.0,0.0,0.0
1.6526948456885293e-05,-4.771706881001592e-05,0.0,0.0,0.0
1.666611024120357e-05,-4.763925608131103e-05,0.0,0.0,0.0
1.679238812357653e-05,-4.749218715005554e-05,0.0,0.0,0.0
1.6954358216025867e-05,-4.7682646254543215e-05,0.0,0.0,0.0
1.7142823708127253e-05,-4.8019988753367215e-05,0.0,0.0,0.0
1.6778743884060532e-05,-4.784413977176882e-05,0.0,0.0,0.0
1.6618523659417406e-05,-4.780651579494588e-05,0.0,0.0,0.0
1.6623729607090354e-05,-4.8023302952060476e-05,0.0,0.0,0.0
1.673263977863826e-05,-4.7979352530092e-05,0.0,0.0,0.0
1.707624141999986e-05,-4.803580668522045e-05,0.0,0.0,0.0
1.716115184535738e-05,-4.818282468477264e-05,0.0,0.0,0.0
1.698831511021126e-05,-4.868277392233722e-05,0.0,0.0,0.0
1.683623850112781e-05,-4.8664154746802524e-05,0.0,0.0,0.0
1.681471439951565e-05,-4.8692585551179945e-05,0.0,0.0,0.0
1.7197426132042892e-05,-4.865707524004392e-05,0.0,0.0,0.0
1.7363729057251476e-05,-4.869726035394706e-05,0.0,0.0,0.0
1.727057679090649e-05,-4.8654495913069695e-05,0.0,0.0,0.0
1.7603662854526192e-05,-4.869804615736939e-05,0.0,0.0,0.0
1.7301661500823684e-05,-4.865523078478873e-05,0.0,0.0,0.0
1.6970181604847312e-05,-4.86960489070043e-05,0.0,0.0,0.0
1.7530526747577824e-05,-4.894538869848475e-05,0.0,0.0,0.0
1.7399526768713258e-05,-4.9069007218349725e-05,0.0,0.0,0.0
1.7497666704002768e-05,-4.922993321088143e-05,0.0,0.0,0.0
1.7428561477572657e-05,-4.916618127026595e-05,0.0,0.0,0.0
1.7716856746119447e-05,-4.892090873909183e-05,0.0,0.0,0.0
1.7346123058814555e-05,-4.885123416897841e-05,0.0,0.0,0.0
1.7268999727093615e-05,-4.859477485297248e-05,0.0,0.0,0.0
1.7334443327854387e-05,-4.873906073044054e-05,0.0,0.0,0.0
1.7425061741960235e-05,-4.8630252422299236e-05,0.0,0.0,0.0
1.790902388165705e-05,-4.870745397056453e-05,0.0,0.0,0.0
1.7691174434730783e-05,-4.865814480581321e-05,0.0,0.0,0.0
1.787789551599417e-05,-4.868310134042986e-05,0.0,0.0,0.0
1.7400898286723532e-05,-4.8679139581508934e-05,0.0,0.0,0.0
1.7177555491798557e-05,-4.866527524427511e-05,0.0,0.0,0.0
1.7074356946977787e-05,-4.86939970869571e-05,0.0,0.0,0.0
1.702956433291547e-05,-4.865317896474153e-05,0.0,0.0,0.0
1.6882842828636058e-05,-4.8586560296826065e-05,0.0,0.0,0.0
1.7014572222251445e-05,-4.832231570617296e-05,0.0,0.0,0.0
1.6899984984775074e-05,-4.8171124944929034e-05,0.0,0.0,0.0
1.699603490123991e-05,-4.776700006914325e-05,0.0,0.0,0.0
1.6919258996495046e-05,-4.7977307986002415e-05,0.0,0.0,0.0
1.7040400052792393e-05,-4.7895748139126226e-05,0.0,0.0,0.0
1.7139096598839387e-05,-4.743305180454627e-05,0.0,0.0,0.0
1.671073005127255e-05,-4.76357527077198e-05,0.0,0.0,0.0
1.651348065934144e-05,-4.803793126484379e-05,0.0,0.0,0.0
1.639294896449428e-05,-4.797401197720319e-05,0.0,0.0,0.0
1.6498084733029827e-05,-4.8033249186119065e-05,0.0,0.0,0.0
1.6694375517545268e-05,-4.797927613253705e-05,0.0,0.0,0.0
1.686166251602117e-05,-4.8304067604476586e-05,0.0,0.0,0.0
1.6720783605705947e-05,-4.862457717536017e-05,0.0,0.0,0.0
1.7092870621127076e-05,-4.8695761506678537e-05,0.0,0.0,0.0
1.7353951989207417e-05,-4.8659963795216754e-05,0.0,0.0,0.0
1.7257365470868535e-05,-4.822154005523771e-05,0.0,0.0,0.0
1.7069363821065053e-05,-4.8392430471722037e-05,0.0,0.0,0.0
1.7160446077468805e-05,-4.897922553936951e-05,0.0,0.0,0.0
1.7090942492359318e-05,-4.875493323197588e-05,0.0,0.0,0.0
1.7332809875370003e-05,-4.8512658395338804e-05,0.0,0.0,0.0
1.7635327822063118e-05,-4.849115066463128e-05,0.0,0.0,0.0
1.7626856788410805e-05,-4.8874742788029835e-05,0.0,0.0,0.0
1.7611666407901794e-05,-4.915787576464936e-05,0.0,0.0,0.0
1.7940867110155523e-05,-4.905690730083734e-05,0.0,0.0,0.0
1.7715892681735568e-05,-4.8818877985468134e-05,0.0,0.0,0.0
1.7384973034495488e-05,-4.899631312582642e-05,0.0,0.0,0.0
1.788761255738791e-05,-4.903189983451739e-05,0.0,0.0,0.0
1.8024153177975677e-05,-4.888238254352473e-05,0.0,0.0,0.0
1.771278948581312e-05,-4.88130644953344e-05,0.0,0.0,0.0
1.754264121700544e-05,-4.886765964329243e-05,0.0,0.0,0.0
1.7771964849089272e-05,-4.8753769078757614e-05,0.0,0.0,0.0
1.7806311007007025e-05,-4.860599437961355e-05,0.0,0.0,0.0
1.767624416970648e-05,-4.873951183981262e-05,0.0,0.0,0.0
1.7189917343785055e-05,-4.8619920562487096e-05,0.0,0.0,0.0
1.706431430648081e-05,-4.872598947258666e-05,0.0,0.0,0.0
1.7144231605925597e-05,-4.8632966354489326e-05,0.0,0.0,0.0
1.6791953385109082e-05,-4.871347846346907e-05,0.0,0.0,0.0
1.7062799088307656e-05,-4.807060759048909e-05,0.0,0.0,0.0
1.689607961452566e-05,-4.794864071300253e-05,0.0,0.0,0.0
1.6966785551630892e-05,-4.8318568588001654e-05,0.0,0.0,0.0
1.722730121400673e-05,-4.833467392018065e-05,0.0,0.0,0.0
1.727520975691732e-05,-4.8345635150326416e-05,0.0,0.0,0.0
1.7324900909443386e-05,-4.7868205001577735e-05,0.0,0.0,0.0
1.6565509213251062e-05,-4.762426397064701e-05,0.0,0.0,0.0
1.6494414012413472e-05,-4.7918765631038696e-05,0.0,0.0,0.0
1.64156335813459e-05,-4.7993184125516564e-05,0.0,0.0,0.0
1.6472520655952394e-05,-4.801300019607879e-05,0.0,0.0,0.0
1.6796568161225878e-05,-4.799999442184344e-05,0.0,0.0,0.0
1.7142752767540514e-05,-4.8177051212405786e-05,0.0,0.0,0.0
1.6789204892120324e-05,-4.818614252144471e-05,0.0,0.0,0.0
1.659961162658874e-05,-4.829510726267472e-05,0.0,0.0,0.0
1.6649322787998244e-05,-4.854199505643919e-05,0.0,0.0,0.0
1.6574349501752295e-05,-4.8213802074315026e-05,0.0,0.0,0.0
1.6900556147447787e-05,-4.801384056918323e-05,0.0,0.0,0.0
1.6998519640765153e-05,-4.820885442313738e-05,0.0,0.0,0.0
1.691419311100617e-05,-4.8653997509973124e-05,0.0,0.0,0.0
1.70688745129155e-05,-4.869452095590532e-05,0.0,0.0,0.0
1.7168700651382096e-05,-4.8661637265468016e-05,0.0,0.0,0.0
1.70763651112793e-05,-4.8687743401387706e-05,0.0,0.0,0.0
1.7267311704927124e-05,-4.866760355071165e-05,0.0,0.0,0.0
1.764919034030754e-05,-4.868253745371476e-05,0.0,0.0,0.0
1.7546339222462848e-05,-4.8735906602814794e-05,0.0,0.0,0.0
1.7055375792551786e-05,-4.925163375446573e-05,0.0,0.0,0.0
1.7175114408019e-05,-4.911834912491031e-05,0.0,0.0,0.0
1.7076043150154874e-05,-4.9208658310817555e-05,0.0,0.0,0.0
1.7156127796624787e-05,-4.918819831800647e-05,0.0,0.0,0.0
1.709337084321305e-05,-4.914301462122239e-05,0.0,0.0,0.0
1.7140428099082783e-05,-4.949269714416005e-05,0.0,0.0,0.0
1.7841284716269e-05,-4.923016604152508e-05,0.0,0.0,0.0
1.7984390069614165e-05,-4.897264443570748e-05,0.0,0.0,0.0
1.7696069335215725e-05,-4.8779613280203193e-05,0.0,0.0,0.0
1.7866750567918643e-05,-4.8912890633801e-05,0.0,0.0,0.0
1.7534051949041896e-05,-4.857273233938031e-05,0.0,0.0,0.0
1.748114482325036e-05,-4.856083251070231e-05,0.0,0.0,0.0
1.744337350828573e-05,-4.845824878429994e-05,0.0,0.0,0.0
1.7288972230744548e-05,-4.8724483349360526e-05,0.0,0.0,0.0
1.7121776181738824e-05,-4.8489600885659456e-05,0.0,0.0,0.0
1.7111471606767736e-05,-4.834862920688465e-05,0.0,0.0,0.0
1.7136288079200312e-05,-4.834702849620953e-05,0.0,0.0,0.0
1.7227423086296767e-05,-4.8067035095300525e-05,0.0,0.0,0.0
1.7355356249026954e-05,-4.783138138009235e-05,0.0,0.0,0.0
1.7112697605625726e-05,-4.78362780995667e-05,0.0,0.0,0.0
1.7037360521499068e-05,-4.7844088840065524e-05,0.0,0.0,0.0
1.678774060565047e-05,-4.7909059503581375e-05,0.0,0.0,0.0
1.678725311649032e-05,-4.809490201296285e-05,0.0,0.0,0.0
1.6778576537035406e-05,-4.792128675035201e-05,0.0,0.0,0.0
1.6794292605482042e-05,-4.8081594286486506e-05,0.0,0.0,0.0
1.6773419702076353e-05,-4.797792644239962e-05,0.0,0.0,0.0
1.6797792341094464e-05,-4.833548518945463e-05,0.0,0.0,0.0
1.677136060607154e-05,-4.801879549631849e-05,0.0,0.0,0.0
1.6798614524304867e-05,-4.79942791571375e-05,0.0,0.0,0.0
1.6484442312503234e-05,-4.858735337620601e-05,0.0,0.0,0.0
1.6973754100035876e-05,-4.819889727514237e-05,0.0,0.0,0.0
1.7218906577909365e-05,-4.786626232089475e-05,0.0,0.0,0.0
1.703965426713694e-05,-4.837452797801234e-05,0.0,0.0,0.0
1.718631392577663e-05,-4.852403435506858e-05,0.0,0.0,0.0
1.7068328816094436e-05,-4.875032027484849e-05,0.0,0.0,0.0
1.7384581951773725e-05,-4.862033893004991e-05,0.0,0.0,0.0
1.7446935089537874e-05,-4.8716028686612844e-05,0.0,0.0,0.0
1.725862421153579e-05,-4.8852951294975355e-05,0.0,0.0,0.0
1.7297228623647243e-05,-4.923072629026137e-05,0.0,0.0,0.0
1.765737215464469e-05,-4.9345017032464966e-05,0.0,0.0,0.0
1.7616259356145747e-05,-4.934076059726067e-05,0.0,0.0,0.0
1.7612725059734657e-05,-4.936262121191248e-05,0.0,0.0,0.0
1.779872036422603e-05,-4.9326143198413774e-05,0.0,0.0,0.0
1.7784061128622852e-05,-4.923620508634485e-05,0.0,0.0,0.0
1.7800735804485157e-05,-4.898658880847506e-05,0.0,0.0,0.0
1.778296791599132e-05,-4.8923877329798415e-05,0.0,0.0,0.0
1.7801048670662567e-05,-4.886970782536082e-05,0.0,0.0,0.0
1.7783304429030977e-05,-4.924364839098416e-05,0.0,0.0,0.0
1.7800184650695883e-05,-4.903243825538084e-05,0.0,0.0,0.0
1.771014285623096e-05,-4.892505603493191e-05,0.0,0.0,0.0
1.7552010831423104e-05,-4.877130049862899e-05,0.0,0.0,0.0
1.7736247173161246e-05,-4.8908055759966373e-05,0.0,0.0,0.0
1.779648482624907e-05,-4.874705700785853e-05,0.0,0.0,0.0
1.7420758013031445e-05,-4.862052810494788e-05,0.0,0.0,0.0
1.7160866264021024e-05,-4.87190336571075e-05,0.0,0.0,0.0
1.7088103049900383e-05,-4.864465881837532e-05,0.0,0.0,0.0
1.6571875676163472e-05,-4.869846816291101e-05,0.0,0.0,0.0
1.6900810805964284e-05,-4.810897371498868e-05,0.0,0.0,0.0
1.754430923028849e-05,-4.820303001906723e-05,0.0,0.0,0.0
1.7107347957789898e-05,-4.818025990971364e-05,0.0,0.0,0.0
1.7162446965812705e-05,-4.813630584976636e-05,0.0,0.0,0.0
1.709200478217099e-05,-4.869822441833094e-05,0.0,0.0,0.0
1.6914447769522667e-05,-4.815110514755361e-05,0.0,0.0,0.0
1.6756435798015445e-05,-4.781357347383164e-05,0.0,0.0,0.0
1.6599429727648385e-05,-4.7838308091741055e-05,0.0,0.0,0.0
1.6619716916466132e-05,-4.804352283827029e-05,0.0,0.0,0.0
1.662519935052842e-05,-4.797675137524493e-05,0.0,0.0,0.0
1.643160248931963e-05,-4.8193778638960794e-05,0.0,0.0,0.0
1.677490581641905e-05,-4.8494242946617305e-05,0.0,0.0,0.0
1.7274500351049937e-05,-4.882597204414196e-05,0.0,0.0,0.0
1.7166175894089974e-05,-4.887670002062805e-05,0.0,0.0,0.0
1.706966395431664e-05,-4.867366442340426e-05,0.0,0.0,0.0
1.7406826373189688e-05,-4.8683705244911835e-05,0.0,0.0,0.0
1.7398677300661802e-05,-4.866488234256394e-05,0.0,0.0,0.0
1.7088812455767766e-05,-4.8690872063161805e-05,0.0,0.0,0.0
1.7237547581316903e-05,-4.86592180095613e-05,0.0,0.0,0.0
1.740315383358393e-05,-4.876959792454727e-05,0.0,0.0,0.0
