1.792908187780995e-05,-4.935164542985149e-05,0.0,0.0,0.0
1.8234279195894487e-05,-4.9349007895216346e-05,0.0,0.0,0.0
1.8626367818797007e-05,-4.9342317652190104e-05,0.0,0.0,0.0
1.83334977919003e-05,-4.9611186113907024e-05,0.0,0.0,0.0
1.8564136553322896e-05,-4.994887058273889e-05,0.0,0.0,0.0
1.815435098251328e-05,-5.003229671274312e-05,0.0,0.0,0.0
1.8379383618594147e-05,-5.022873665438965e-05,0.0,0.0,0.0
1.8045902834273875e-05,-5.081483686808497e-05,0.0,0.0,0.0
1.7941520127351396e-05,-5.103144212625921e-05,0.0,0.0,0.0
1.8004331650445238e-05,-5.083134601591155e-05,0.0,0.0,0.0
1.7896234567160718e-05,-5.0681366701610386e-05,0.0,0.0,0.0
1.8376980733592063e-05,-5.086851888336241e-05,0.0,0.0,0.0
1.8236534742754884e-05,-5.118376066093333e-05,0.0,0.0,0.0
1.8336440916755237e-05,-5.106671596877277e-05,0.0,0.0,0.0
1.8407432435196824e-05,-5.055491055827588e-05,0.0,0.0,0.0
1.8513323084334843e-05,-5.022880941396579e-05,0.0,0.0,0.0
1.84195778274443e-05,-5.002779289497994e-05,0.0,0.0,0.0
1.8288577848579735e-05,-5.0009923143079504e-05,0.0,0.0,0.0
1.7886421119328588e-05,-5.0028636906063184e-05,0.0,0.0,0.0
1.8194206859334372e-05,-4.9924059567274526e-05,0.0,0.0,0.0
1.8458633348927833e-05,-4.964116669725627e-05,0.0,0.0,0.0
1.846600935095921e-05,-4.921616709907539e-05,0.0,0.0,0.0
1.846297163865529e-05,-4.868523319601081e-05,0.0,0.0,0.0
1.8461805666447617e-05,-4.836076914216392e-05,0.0,0.0,0.0
1.8435055608279072e-05,-4.8597194108879194e-05,0.0,0.0,0.0
1.8182259736931883e-05,-4.8051650082925335e-05,0.0,0.0,0.0
1.8395727238385007e-05,-4.734261165140197e-05,0.0,0.0,0.0
1.8517925127525814e-05,-4.732405432150699e-05,0.0,0.0,0.0
1.8144262867281213e-05,-4.734305912279524e-05,0.0,0.0,0.0
1.812201298889704e-05,-4.7323937906185165e-05,0.0,0.0,0.0
1.8391781850368716e-05,-4.734287358587608e-05,0.0,0.0,0.0
1.848313149821479e-05,-4.756899579660967e-05,0.0,0.0,0.0
1.8450960851623677e-05,-4.793964035343379e-05,0.0,0.0,0.0
1.8022947188001126e-05,-4.799804446520284e-05,0.0,0.0,0.0
1.7748830941854976e-05,-4.801107570528984e-05,0.0,0.0,0.0
1.7621468941797502e-05,-4.8403504479210824e-05,0.0,0.0,0.0
1.761185922077857e-05,-4.871011333307251e-05,0.0,0.0,0.0
1.800863174139522e-05,-4.864828224526718e-05,0.0,0.0,0.0
1.7771169950719923e-05,-4.869896292802878e-05,0.0,0.0,0.0
1.729538053041324e-05,-4.897745748166926e-05,0.0,0.0,0.0
1.757265636115335e-05,-4.936369805363938e-05,0.0,0.0,0.0
1.811153742892202e-05,-4.9198151828022674e-05,0.0,0.0,0.0
1.8019574781646952e-05,-4.9279697122983634e-05,0.0,0.0,0.0
1.7895888959174044e-05,-4.954074393026531e-05,0.0,0.0,0.0
1.8131449905922636e-05,-4.959205034538172e-05,0.0,0.0,0.0
1.802477527235169e-05,-5.015508577344008e-05,0.0,0.0,0.0
1.790562237147242e-05,-5.0697955884970725e-05,0.0,0.0,0.0
1.8003636796493083e-05,-5.083584619569592e-05,0.0,0.0,0.0
1.7926207874552347e-05,-5.131136276759207e-05,0.0,0.0,0.0
1.8090293451678008e-05,-5.135447281645611e-05,0.0,0.0,0.0
1.8467133486410603e-05,-5.0974354962818325e-05,0.0,0.0,0.0
1.8155411453335546e-05,-5.0735507102217525e-05,0.0,0.0,0.0
1.8427974282531068e-05,-5.062928903498687e-05,0.0,0.0,0.0
1.849414547905326e-05,-5.04317540617194e-05,0.0,0.0,0.0
1.814963798096869e-05,-5.0288774218643084e-05,0.0,0.0,0.0
1.8109732991433702e-05,-5.0134160119341686e-05,0.0,0.0,0.0
1.8141974578611553e-05,-4.99346642754972e-05,0.0,0.0,0.0
1.8116950741386972e-05,-5.0088816351490095e-05,0.0,0.0,0.0
1.837985109887086e-05,-4.947337947669439e-05,0.0,0.0,0.0
1.8486654880689457e-05,-4.910269126412459e-05,0.0,0.0,0.0
1.844215876189992e-05,-4.8999805585481226e-05,0.0,0.0,0.0
1.7632088201935403e-05,-4.8806319682626054e-05,0.0,0.0,0.0
1.7435571862733923e-05,-4.845378498430364e-05,0.0,0.0,0.0
1.8087819626089185e-05,-4.853103746427223e-05,0.0,0.0,0.0
1.8232933143735863e-05,-4.869186886935495e-05,0.0,0.0,0.0
1.8533104594098404e-05,-4.831958358408883e-05,0.0,0.0,0.0
1.8247994375997223e-05,-4.769354927702807e-05,0.0,0.0,0.0
1.8170132534578443e-05,-4.732120578410104e-05,0.0,0.0,0.0
1.795739990484435e-05,-4.7346478822873905e-05,0.0,0.0,0.0
1.7948041204363108e-05,-4.706488107331097e-05,0.0,0.0,0.0
1.809906643757131e-05,-4.704393359133974e-05,0.0,0.0,0.0
1.8041562725557014e-05,-4.771097519551404e-05,0.0,0.0,0.0
1.779447848093696e-05,-4.804658965440467e-05,0.0,0.0,0.0
1.7785534510039724e-05,-4.805313437827863e-05,0.0,0.0,0.0
1.787617838999722e-05,-4.842521229875274e-05,0.0,0.0,0.0
1.8090169760398567e-05,-4.851430276175961e-05,0.0,0.0,0.0
1.8110176824848168e-05,-4.8144727770704776e-05,0.0,0.0,0.0
1.7833028323366307e-05,-4.8277750465786085e-05,0.0,0.0,0.0
1.8032673324341886e-05,-4.8761310608824715e-05,0.0,0.0,0.0
1.755745688569732e-05,-4.895159509032965e-05,0.0,0.0,0.0
1.7373255104757845e-05,-4.93724292027764e-05,0.0,0.0,0.0
1.7523341739433818e-05,-4.904286106466316e-05,0.0,0.0,0.0
1.767996400303673e-05,-4.925882240058854e-05,0.0,0.0,0.0
1.8136108337785117e-05,-4.9413793021813035e-05,0.0,0.0,0.0
1.8100967281498015e-05,-4.979966251994483e-05,0.0,0.0,0.0
1.7656075215199962e-05,-5.013271584175527e-05,0.0,0.0,0.0
1.762491956469603e-05,-5.0624275900190696e-05,0.0,0.0,0.0
1.786602115316782e-05,-5.1180901209590957e-05,0.0,0.0,0.0
1.7735912479110993e-05,-5.068511381978169e-05,0.0,0.0,0.0
1.8034634194918908e-05,-5.097930261399597e-05,0.0,0.0,0.0
1.811507172533311e-05,-5.078067260910757e-05,0.0,0.0,0.0
1.795072967070155e-05,-5.0719747378025204e-05,0.0,0.0,0.0
1.795776370272506e-05,-5.0841259508160874e-05,0.0,0.0,0.0
1.8129341697203927e-05,-5.104153387947008e-05,0.0,0.0,0.0
1.8281863958691247e-05,-5.087021054350771e-05,0.0,0.0,0.0
1.8450602510711178e-05,-5.055434303358197e-05,0.0,0.0,0.0
1.84803666343214e-05,-5.023636549594812e-05,0.0,0.0,0.0
1.8443464796291664e-05,-5.001432145945728e-05,0.0,0.0,0.0
1.8272681700182147e-05,-4.9921945901587605e-05,0.0,0.0,0.0
1.779963895387482e-05,-4.959026409778744e-05,0.0,0.0,0.0
1.778917976480443e-05,-4.9198475608136505e-05,0.0,0.0,0.0
1.786555367289111e-05,-4.8698115278966725e-05,0.0,0.0,0.0
1.810615140129812e-05,-4.866154267801903e-05,0.0,0.0,0.0
1.819662793423049e-05,-4.8631878598826006e-05,0.0,0.0,0.0
1.8377981177764013e-05,-4.832616832572967e-05,0.0,0.0,0.0
1.8165266737923957e-05,-4.804476338904351e-05,0.0,0.0,0.0
1.7795262465369888e-05,-4.827689190278761e-05,0.0,0.0,0.0
1.8098518921760842e-05,-4.807998629985377e-05,0.0,0.0,0.0
1.8442002328811213e-05,-4.736987830256112e-05,0.0,0.0,0.0
1.8203139916295186e-05,-4.7299432480940595e-05,0.0,0.0,0.0
1.7812173609854653e-05,-4.763084871228784e-05,0.0,0.0,0.0
1.7542217392474413e-05,-4.767486825585365e-05,0.0,0.0,0.0
1.766714922268875e-05,-4.7666384489275515e-05,0.0,0.0,0.0
1.7612266674404964e-05,-4.790369712281972e-05,0.0,0.0,0.0
1.7165271856356412e-05,-4.8477195377927274e-05,0.0,0.0,0.0
1.715347752906382e-05,-4.869585609412752e-05,0.0,0.0,0.0
1.7298219972872175e-05,-4.886308670393191e-05,0.0,0.0,0.0
1.7679554730420932e-05,-4.884669033344835e-05,0.0,0.0,0.0
1.7780046619009227e-05,-4.864452421315946e-05,0.0,0.0,0.0
1.7968799511436373e-05,-4.904154047835618e-05,0.0,0.0,0.0
1.8130072930944152e-05,-4.9337726522935554e-05,0.0,0.0,0.0
1.8122755136573687e-05,-4.935454126098193e-05,0.0,0.0,0.0
1.7996395399677567e-05,-4.9343343562213704e-05,0.0,0.0,0.0
1.8044318494503386e-05,-4.947758498019539e-05,0.0,0.0,0.0
1.845044971560128e-05,-4.99079396831803e-05,0.0,0.0,0.0
1.836668343457859e-05,-5.0337719585513696e-05,0.0,0.0,0.0
1.7849088180810213e-05,-5.065758159616962e-05,0.0,0.0,0.0
1.7168093108921312e-05,-5.1291634008521214e-05,0.0,0.0,0.0
1.7081123587558977e-05,-5.142241207067855e-05,0.0,0.0,0.0
1.7344525986118242e-05,-5.124649760546163e-05,0.0,0.0,0.0
1.8068658391712233e-05,-5.1151273510186e-05,0.0,0.0,0.0
1.8440321582602337e-05,-5.1184793846914545e-05,0.0,0.0,0.0
1.781213541107718e-05,-5.083737050881609e-05,0.0,0.0,0.0
1.7793701772461645e-05,-5.0568462029332295e-05,0.0,0.0,0.0
1.8104610717273317e-05,-5.079000038676895e-05,0.0,0.0,0.0
1.8145381545764394e-05,-5.061111005488783e-05,0.0,0.0,0.0
1.756172423483804e-05,-5.019883974455297e-05,0.0,0.0,0.0
1.7655662304605357e-05,-4.989807348465547e-05,0.0,0.0,0.0
1.788385270629078e-05,-4.9603153456700966e-05,0.0,0.0,0.0
1.8203585568699054e-05,-4.896965765510686e-05,0.0,0.0,0.0
1.8583681594463997e-05,-4.932067895424552e-05,0.0,0.0,0.0
1.7694283087621443e-05,-4.887325121671893e-05,0.0,0.0,0.0
1.7685615603113547e-05,-4.864639777224511e-05,0.0,0.0,0.0
1.820364559534937e-05,-4.8509802581975237e-05,0.0,0.0,0.0
1.8099719454767182e-05,-4.8094843805301934e-05,0.0,0.0,0.0
1.7938304154085927e-05,-4.768671715282835e-05,0.0,0.0,0.0
1.8159937098971568e-05,-4.693260052590631e-05,0.0,0.0,0.0
1.7946340449270792e-05,-4.6870423830114305e-05,0.0,0.0,0.0
1.8101423847838305e-05,-4.710037319455296e-05,0.0,0.0,0.0
1.8178378013544716e-05,-4.737619383377023e-05,0.0,0.0,0.0
1.7805068637244403e-05,-4.742046075989492e-05,0.0,0.0,0.0
1.778543992259074e-05,-4.781552706845105e-05,0.0,0.0,0.0
1.7793172446545213e-05,-4.8178015276789665e-05,0.0,0.0,0.0
1.7603906599106267e-05,-4.8681227781344205e-05,0.0,0.0,0.0
1.7236148778465576e-05,-4.867100142291747e-05,0.0,0.0,0.0
1.7412128727301024e-05,-4.8681416956242174e-05,0.0,0.0,0.0
1.749020884744823e-05,-4.860785702476278e-05,0.0,0.0,0.0
1.7484513591625728e-05,-4.84793636132963e-05,0.0,0.0,0.0
1.773488475009799e-05,-4.892098513664678e-05,0.0,0.0,0.0
1.753970173012931e-05,-4.915198587696068e-05,0.0,0.0,0.0
1.7706335711409338e-05,-4.9522332119522616e-05,0.0,0.0,0.0
1.7867367205326445e-05,-4.9505120841786265e-05,0.0,0.0,0.0
1.8300741430721246e-05,-4.979294317308813e-05,0.0,0.0,0.0
1.8325410565012135e-05,-5.020458047511056e-05,0.0,0.0,0.0
1.7973648937186226e-05,-4.987014108337462e-05,0.0,0.0,0.0
1.8255268514622003e-05,-5.064576544100419e-05,0.0,0.0,0.0
1.777960278559476e-05,-5.066553421784192e-05,0.0,0.0,0.0
1.7612106603337452e-05,-5.070021506980993e-05,0.0,0.0,0.0
1.7615831893635914e-05,-5.114033046993427e-05,0.0,0.0,0.0
1.7859858417068608e-05,-5.139015047461726e-05,0.0,0.0,0.0
1.7742895579431206e-05,-5.0945582188433036e-05,0.0,0.0,0.0
1.8207570974482223e-05,-5.046855949331075e-05,0.0,0.0,0.0
1.8828977772500366e-05,-5.056101144873537e-05,0.0,0.0,0.0
1.8627932149684057e-05,-5.066632729722187e-05,0.0,0.0,0.0
1.7960643162950873e-05,-5.072101339465007e-05,0.0,0.0,0.0
1.8085147530655377e-05,-5.065518416813575e-05,0.0,0.0,0.0
1.8334299966227263e-05,-5.045249417889863e-05,0.0,0.0,0.0
1.8244445527670905e-05,-4.9861802835948765e-05,0.0,0.0,0.0
1.84718519449234e-05,-4.960674777976237e-05,0.0,0.0,0.0
1.8448985429131426e-05,-4.9319613026455045e-05,0.0,0.0,0.0
1.8386770534561947e-05,-4.947201523464173e-05,0.0,0.0,0.0
1.803884151740931e-05,-4.946621265844442e-05,0.0,0.0,0.0
1.7897298675961792e-05,-4.909923154627904e-05,0.0,0.0,0.0
1.8134795027435757e-05,-4.880770939053036e-05,0.0,0.0,0.0
1.848752799560316e-05,-4.835789877688512e-05,0.0,0.0,0.0
1.8439299310557544e-05,-4.767043355968781e-05,0.0,0.0,0.0
1.845501537900418e-05,-4.797147266799584e-05,0.0,0.0,0.0
1.81439481821144e-05,-4.771105159306899e-05,0.0,0.0,0.0
1.811582114896737e-05,-4.763138713315129e-05,0.0,0.0,0.0
1.813616108847782e-05,-4.741632437799126e-05,0.0,0.0,0.0
1.7845452020992525e-05,-4.7261179133784026e-05,0.0,0.0,0.0
1.7758004105417058e-05,-4.739636278827675e-05,0.0,0.0,0.0
1.807646003726404e-05,-4.75342822028324e-05,0.0,0.0,0.0
1.837891795730684e-05,-4.823642302653752e-05,0.0,0.0,0.0
1.801737380446866e-05,-4.856401210417971e-05,0.0,0.0,0.0
1.772544055711478e-05,-4.893332516076043e-05,0.0,0.0,0.0
1.763357977324631e-05,-4.8791931476444006e-05,0.0,0.0,0.0
1.7799584384192713e-05,-4.86648095829878e-05,0.0,0.0,0.0
1.839579090301413e-05,-4.868546602665447e-05,0.0,0.0,0.0
1.823419370339252e-05,-4.866922608925961e-05,0.0,0.0,0.0
1.8155104044126347e-05,-4.902168802800588e-05,0.0,0.0,0.0
1.8269985957886092e-05,-4.935348260914907e-05,0.0,0.0,0.0
1.8473081581760198e-05,-4.9342215788783506e-05,0.0,0.0,0.0
1.8323538824915886e-05,-4.9491074605612084e-05,0.0,0.0,0.0
1.8255537725053728e-05,-4.9928363296203315e-05,0.0,0.0,0.0
1.8343807823839597e-05,-5.022969708079472e-05,0.0,0.0,0.0
1.792335206118878e-05,-5.0250469939783216e-05,0.0,0.0,0.0
1.7581307474756613e-05,-5.064400102128275e-05,0.0,0.0,0.0
1.791290196706541e-05,-5.06447977386415e-05,0.0,0.0,0.0
1.8466605979483575e-05,-5.034375499235466e-05,0.0,0.0,0.0
1.8392371202935465e-05,-5.042709017288871e-05,0.0,0.0,0.0
1.8166743757319637e-05,-5.060234616394155e-05,0.0,0.0,0.0
1.8090657249558717e-05,-5.0372920668451115e-05,0.0,0.0,0.0
1.816248732211534e-05,-5.003595651942305e-05,0.0,0.0,0.0
1.8095497580361553e-05,-5.030597822042182e-05,0.0,0.0,0.0
1.8157186786993407e-05,-5.00860478496179e-05,0.0,0.0,0.0
1.838828029576689e-05,-4.9960923206526786e-05,0.0,0.0,0.0
1.8251590518048033e-05,-4.951606024405919e-05,0.0,0.0,0.0
1.7769201804185286e-05,-4.9229660362470895e-05,0.0,0.0,0.0
1.8090087905875407e-05,-4.944632019032724e-05,0.0,0.0,0.0
1.836896626628004e-05,-4.877736500930041e-05,0.0,0.0,0.0
1.8258138879900798e-05,-4.8686004447517917e-05,0.0,0.0,0.0
1.7858164937933907e-05,-4.8671347030904144e-05,0.0,0.0,0.0
1.7806651158025488e-05,-4.8677076847525313e-05,0.0,0.0,0.0
1.7783144357963465e-05,-4.827489101444371e-05,0.0,0.0,0.0
1.7987227693083696e-05,-4.777872527483851e-05,0.0,0.0,0.0
1.81395880645141e-05,-4.7690038627479225e-05,0.0,0.0,0.0
1.794387753761839e-05,-4.7478799388045445e-05,0.0,0.0,0.0
1.7802571164793335e-05,-4.7348366933874786e-05,0.0,0.0,0.0
1.7928310626302846e-05,-4.7616347728762776e-05,0.0,0.0,0.0
1.8001581338467076e-05,-4.801545219379477e-05,0.0,0.0,0.0
1.7784032024792396e-05,-4.7739300498506054e-05,0.0,0.0,0.0
1.7918495359481312e-05,-4.747787897940725e-05,0.0,0.0,0.0
1.7998716430156492e-05,-4.7738874854985625e-05,0.0,0.0,0.0
1.78291265910957e-05,-4.8213227273663506e-05,0.0,0.0,0.0
1.775818964233622e-05,-4.845379589824006e-05,0.0,0.0,0.0
1.7822618247009814e-05,-4.824274219572544e-05,0.0,0.0,0.0
1.7892207324621268e-05,-4.854998041992076e-05,0.0,0.0,0.0
1.837731178966351e-05,-4.8782840167405084e-05,0.0,0.0,0.0
1.8144437490263954e-05,-4.863021240453236e-05,0.0,0.0,0.0
1.7777825632947497e-05,-4.904906018055044e-05,0.0,0.0,0.0
1.784540290827863e-05,-4.89841440867167e-05,0.0,0.0,0.0
1.8371583792031743e-05,-4.903162334812805e-05,0.0,0.0,0.0
1.854002221080009e-05,-4.957380588166416e-05,0.0,0.0,0.0
1.8123924746760167e-05,-5.032475746702403e-05,0.0,0.0,0.0
1.8140832253266126e-05,-5.0626702432055026e-05,0.0,0.0,0.0
1.786381471902132e-05,-5.071459963801317e-05,0.0,0.0,0.0
1.80104161700001e-05,-5.067550591775216e-05,0.0,0.0,0.0
1.7945676518138498e-05,-5.093153959023766e-05,0.0,0.0,0.0
1.7722421034704894e-05,-5.105019954498857e-05,0.0,0.0,0.0
1.806379805202596e-05,-5.078805406810716e-05,0.0,0.0,0.0
1.789408088370692e-05,-5.069882172392681e-05,0.0,0.0,0.0
1.818617238313891e-05,-5.048738239565864e-05,0.0,0.0,0.0
1.8296437701792456e-05,-5.053853601566516e-05,0.0,0.0,0.0
1.8277749404660426e-05,-5.0521390221547335e-05,0.0,0.0,0.0
1.8325708879274316e-05,-5.019408854423091e-05,0.0,0.0,0.0
1.8108175936504267e-05,-5.001445970265195e-05,0.0,0.0,0.0
1.8143709894502535e-05,-5.002683974453248e-05,0.0,0.0,0.0
1.8242459191242233e-05,-4.975369665771723e-05,0.0,0.0,0.0
1.846485429268796e-05,-4.937693302053958e-05,0.0,0.0,0.0
1.8356846339884214e-05,-4.931963121634908e-05,0.0,0.0,0.0
1.804660314519424e-05,-4.92784492962528e-05,0.0,0.0,0.0
1.788414374459535e-05,-4.892092329100706e-05,0.0,0.0,0.0
1.8024367818725295e-05,-4.8704932851251215e-05,0.0,0.0,0.0
1.7970365661312826e-05,-4.852298661717214e-05,0.0,0.0,0.0
1.8415652448311448e-05,-4.797846850124188e-05,0.0,0.0,0.0
1.8810431356541812e-05,-4.728656494989991e-05,0.0,0.0,0.0
1.84218861249974e-05,-4.70682316517923e-05,0.0,0.0,0.0
1.815192445064895e-05,-4.72416213597171e-05,0.0,0.0,0.0
1.7796799511415884e-05,-4.7098339564399794e-05,0.0,0.0,0.0
1.778616388037335e-05,-4.7488869313383475e-05,0.0,0.0,0.0
1.779874764906708e-05,-4.809530946658924e-05,0.0,0.0,0.0
1.7784610463422723e-05,-4.765491030411795e-05,0.0,0.0,0.0
1.805516512831673e-05,-4.795540007762611e-05,0.0,0.0,0.0
1.7905991626321338e-05,-4.801592149306089e-05,0.0,0.0,0.0
1.7746717276168056e-05,-4.8457477532792836e-05,0.0,0.0,0.0
1.782793515303638e-05,-4.874407022725791e-05,0.0,0.0,0.0
1.7764414224075153e-05,-4.86140233988408e-05,0.0,0.0,0.0
1.8014385204878636e-05,-4.8935187805909663e-05,0.0,0.0,0.0
1.8128288502339274e-05,-4.859206819674e-05,0.0,0.0,0.0
1.830502151278779e-05,-4.8895057261688635e-05,0.0,0.0,0.0
1.847715066105593e-05,-4.9527974624652416e-05,0.0,0.0,0.0
1.8449327399139293e-05,-4.98427361890208e-05,0.0,0.0,0.0
1.8477563571650535e-05,-5.016582508687861e-05,0.0,0.0,0.0
1.844947473728098e-05,-5.04963390994817e-05,0.0,0.0,0.0
1.860454722191207e-05,-5.055150541011244e-05,0.0,0.0,0.0
1.8543538317317143e-05,-5.049320316174999e-05,0.0,0.0,0.0
1.8171484043705277e-05,-5.076361048850231e-05,0.0,0.0,0.0
1.8089240256813355e-05,-5.113741644890979e-05,0.0,0.0,0.0
1.8246260879095644e-05,-5.1242859626654536e-05,0.0,0.0,0.0
1.8412676581647247e-05,-5.1078779506497085e-05,0.0,0.0,0.0
1.8570292013464496e-05,-5.0916336476802826e-05,0.0,0.0,0.0
1.868131585069932e-05,-5.070569386589341e-05,0.0,0.0,0.0
1.854920446930919e-05,-5.0286020268686116e-05,0.0,0.0,0.0
1.839229116740171e-05,-5.0107828428735957e-05,0.0,0.0,0.0
1.852126843004953e-05,-5.024774873163551e-05,0.0,0.0,0.0
1.8417513274471276e-05,-5.01319627801422e-05,0.0,0.0,0.0
1.8498643839848228e-05,-4.9926034989766777e-05,0.0,0.0,0.0
1.816115400288254e-05,-4.98176523251459e-05,0.0,0.0,0.0
1.837325908127241e-05,-4.905491732642986e-05,0.0,0.0,0.0
1.8519187506171875e-05,-4.927440750179812e-05,0.0,0.0,0.0
1.841277116909623e-05,-4.913392695016228e-05,0.0,0.0,0.0
1.8275173715665005e-05,-4.871864803135395e-05,0.0,0.0,0.0
1.8062230083160102e-05,-4.870676275459118e-05,0.0,0.0,0.0
1.8397258827462792e-05,-4.82206123706419e-05,0.0,0.0,0.0
1.802830047381576e-05,-4.779685696121305e-05,0.0,0.0,0.0
1.798107950889971e-05,-4.727247142000124e-05,0.0,0.0,0.0
1.8320999515708536e-05,-4.6991099225124344e-05,0.0,0.0,0.0
1.8291522792424075e-05,-4.6999128244351596e-05,0.0,0.0,0.0
1.796441756596323e-05,-4.716038893093355e-05,0.0,0.0,0.0
1.8092092432198115e-05,-4.732807428808883e-05,0.0,0.0,0.0
1.8456848920322955e-05,-4.7203888243529946e-05,0.0,0.0,0.0
1.821456680772826e-05,-4.724727477878332e-05,0.0,0.0,0.0
1.78033733391203e-05,-4.765992343891412e-05,0.0,0.0,0.0
1.7782544091460295e-05,-4.788707883562893e-05,0.0,0.0,0.0
1.7799877241486683e-05,-4.8212263209279627e-05,0.0,0.0,0.0
1.7785539967007935e-05,-4.81342249258887e-05,0.0,0.0,0.0
1.7797332475311123e-05,-4.828307282878086e-05,0.0,0.0,0.0
1.791530303307809e-05,-4.84510455862619e-05,0.0,0.0,0.0
1.8356491636950523e-05,-4.861049455939792e-05,0.0,0.0,0.0
1.8162932974519208e-05,-4.8814574256539345e-05,0.0,0.0,0.0
1.77616675500758e-05,-4.926684414385818e-05,0.0,0.0,0.0
1.781670107448008e-05,-4.973716931999661e-05,0.0,0.0,0.0
1.7772457795217633e-05,-4.9641730583971366e-05,0.0,0.0,0.0
1.7806989490054548e-05,-5.0001603085547686e-05,0.0,0.0,0.0
1.8057638953905553e-05,-5.0314654799876735e-05,0.0,0.0,0.0
1.7906888388097286e-05,-5.010662425775081e-05,0.0,0.0,0.0
1.772193172655534e-05,-5.0484024541219696e-05,0.0,0.0,0.0
1.7848036804934964e-05,-5.1031569455517456e-05,0.0,0.0,0.0
1.7748518075677566e-05,-5.0509632274042815e-05,0.0,0.0,0.0
1.7824466340243816e-05,-5.034144487581216e-05,0.0,0.0,0.0
1.7769247278920375e-05,-5.037097434978932e-05,0.0,0.0,0.0
1.8008464394370094e-05,-5.033653724240139e-05,0.0,0.0,0.0
1.8326471035834402e-05,-4.999144221073948e-05,0.0,0.0,0.0
1.8282977180206217e-05,-4.9460013542557135e-05,0.0,0.0,0.0
1.8294422261533327e-05,-4.937839548802003e-05,0.0,0.0,0.0
1.8466056644683704e-05,-4.9479003791930154e-05,0.0,0.0,0.0
1.8466138499206863e-05,-4.956124030286446e-05,0.0,0.0,0.0
1.8456339603289962e-05,-4.904972229269333e-05,0.0,0.0,0.0
1.8473936506779864e-05,-4.870540215051733e-05,0.0,0.0,0.0
1.8450276911607943e-05,-4.841748159378767e-05,0.0,0.0,0.0
1.8478440324543044e-05,-4.804968921234831e-05,0.0,0.0,0.0
1.8255737813888118e-05,-4.796730718226172e-05,0.0,0.0,0.0
1.801643884391524e-05,-4.795068161911331e-05,0.0,0.0,0.0
1.837045419961214e-05,-4.759203511639498e-05,0.0,0.0,0.0
1.8544640624895692e-05,-4.735913171316497e-05,0.0,0.0,0.0
1.8499582438380457e-05,-4.7260593419196084e-05,0.0,0.0,0.0
1.9045670342165977e-05,-4.700158388004638e-05,0.0,0.0,0.0
1.8506068954593502e-05,-4.672443901654333e-05,0.0,0.0,0.0
1.810238063626457e-05,-4.7233246732503176e-05,0.0,0.0,0.0
1.8149450625060126e-05,-4.710965367848985e-05,0.0,0.0,0.0
1.810909634514246e-05,-4.7187852032948285e-05,0.0,0.0,0.0
1.8143662600778043e-05,-4.7734585677972063e-05,0.0,0.0,0.0
1.8379936591372825e-05,-4.786740828421898e-05,0.0,0.0,0.0
1.8509557776269503e-05,-4.835104482481256e-05,0.0,0.0,0.0
1.8424656445859e-05,-4.829659155802801e-05,0.0,0.0,0.0
1.826165316742845e-05,-4.8141562729142606e-05,0.0,0.0,0.0
1.830016481108032e-05,-4.7953515604604036e-05,0.0,0.0,0.0
1.8526221538195387e-05,-4.847037052968517e-05,0.0,0.0,0.0
1.8210348571301438e-05,-4.8883925046538934e-05,0.0,0.0,0.0
1.8345170246902853e-05,-4.88268633489497e-05,0.0,0.0,0.0
1.8636046661413275e-05,-4.8663441702956334e-05,0.0,0.0,0.0
1.8641263523022644e-05,-4.885330417891964e-05,0.0,0.0,0.0
1.8451171854394488e-05,-4.917429032502696e-05,0.0,0.0,0.0
1.8470786017132923e-05,-4.9789487093221396e-05,0.0,0.0,0.0
1.846016130002681e-05,-5.021824472351e-05,0.0,0.0,0.0
1.846325358201284e-05,-5.014764246880077e-05,0.0,0.0,0.0
1.8466369510861114e-05,-5.0347876822343096e-05,0.0,0.0,0.0
1.8458245904184878e-05,-5.046464139013551e-05,0.0,0.0,0.0
1.8374585124547593e-05,-5.067437086836435e-05,0.0,0.0,0.0
1.8138256564270705e-05,-5.0702121370704845e-05,0.0,0.0,0.0
1.8195203665527515e-05,-5.053370477980934e-05,0.0,0.0,0.0
1.8505879779695533e-05,-5.013823101762682e-05,0.0,0.0,0.0
1.873731889645569e-05,-5.022777622798458e-05,0.0,0.0,0.0
1.8458615159033798e-05,-5.011156099499203e-05,0.0,0.0,0.0
1.8132443074136972e-05,-4.9911301175598055e-05,0.0,0.0,0.0
1.8143331544706598e-05,-4.9761794798541814e-05,0.0,0.0,0.0
1.8427763279760256e-05,-4.930884824716486e-05,0.0,0.0,0.0
1.8492321032681502e-05,-4.9663274694466963e-05,0.0,0.0,0.0
1.844043072196655e-05,-4.942844316246919e-05,0.0,0.0,0.0
1.8481257939129137e-05,-4.9021597078535706e-05,0.0,0.0,0.0
1.8450020434102044e-05,-4.903183798887767e-05,0.0,0.0,0.0
1.8228411136078648e-05,-4.87475554109551e-05,0.0,0.0,0.0
1.8093534890795127e-05,-4.866788367507979e-05,0.0,0.0,0.0
1.8377882952336222e-05,-4.8234080168185756e-05,0.0,0.0,0.0
1.8464155800757e-05,-4.774860281031579e-05,0.0,0.0,0.0
1.8460743376635946e-05,-4.748309584101662e-05,0.0,0.0,0.0
1.84675936907297e-05,-4.730838190880604e-05,0.0,0.0,0.0
1.845812403189484e-05,-4.735153925139457e-05,0.0,0.0,0.0
1.81291743501788e-05,-4.749159052153118e-05,0.0,0.0,0.0
1.7935861251316965e-05,-4.75212509627454e-05,0.0,0.0,0.0
1.829181746870745e-05,-4.74746739200782e-05,0.0,0.0,0.0
1.8448276023264043e-05,-4.753188477479853e-05,0.0,0.0,0.0
1.834879003581591e-05,-4.746927515952848e-05,0.0,0.0,0.0
1.8008520783041604e-05,-4.776696005137637e-05,0.0,0.0,0.0
1.7805457900976762e-05,-4.811892722500488e-05,0.0,0.0,0.0
1.787675137165934e-05,-4.8411533498438075e-05,0.0,0.0,0.0
1.811774382076692e-05,-4.868131873081438e-05,0.0,0.0,0.0
1.8137056031264365e-05,-4.866985182161443e-05,0.0,0.0,0.0
1.8182767234975472e-05,-4.868362520937808e-05,0.0,0.0,0.0
1.8443002772983164e-05,-4.8668429371900856e-05,0.0,0.0,0.0
1.848002284532413e-05,-4.8684290959499776e-05,0.0,0.0,0.0
1.8450251445756294e-05,-4.873221041634679e-05,0.0,0.0,0.0
1.8452232325216755e-05,-4.932052979711443e-05,0.0,0.0,0.0
1.816228723328095e-05,-4.9993697757599875e-05,0.0,0.0,0.0
1.8384300346951932e-05,-5.004159174859524e-05,0.0,0.0,0.0
1.8254822862218134e-05,-5.055237852502614e-05,0.0,0.0,0.0
1.8298143913852982e-05,-5.078296089777723e-05,0.0,0.0,0.0
1.857775350799784e-05,-5.086834789835848e-05,0.0,0.0,0.0
1.8368855307926424e-05,-5.112087455927394e-05,0.0,0.0,0.0
1.854019137681462e-05,-5.094912921776995e-05,0.0,0.0,0.0
1.840255208662711e-05,-5.108731784275733e-05,0.0,0.0,0.0
1.8297452697879635e-05,-5.076652087154798e-05,0.0,0.0,0.0
1.8277665731147863e-05,-5.070699262432754e-05,0.0,0.0,0.0
1.851608067227062e-05,-5.0490492867538705e-05,0.0,0.0,0.0
1.8425505913910456e-05,-4.998368603992276e-05,0.0,0.0,0.0
1.848849751695525e-05,-4.951071605319157e-05,0.0,0.0,0.0
1.8289856598130427e-05,-4.933963282383047e-05,0.0,0.0,0.0
1.8280017684446648e-05,-4.921081199427135e-05,0.0,0.0,0.0
1.8603590433485806e-05,-4.886064198217355e-05,0.0,0.0,0.0
1.8530410670791753e-05,-4.869721669820137e-05,0.0,0.0,0.0
1.827992127800826e-05,-4.86541903228499e-05,0.0,0.0,0.0
1.8415190425002947e-05,-4.8486250307178125e-05,0.0,0.0,0.0
1.8414461010252126e-05,-4.791715036844835e-05,0.0,0.0,0.0
1.818671080400236e-05,-4.759882722282782e-05,0.0,0.0,0.0
1.8467797417542897e-05,-4.7340236051240936e-05,0.0,0.0,0.0
1.8456088582752272e-05,-4.720245851785876e-05,0.0,0.0,0.0
1.8472888768883422e-05,-4.67201134597417e-05,0.0,0.0,0.0
1.8452510630595498e-05,-4.665727828978561e-05,0.0,0.0,0.0
1.8411337805446237e-05,-4.703240847447887e-05,0.0,0.0,0.0
1.78571863216348e-05,-4.729493957711384e-05,0.0,0.0,0.0
1.773849180608522e-05,-4.7363992052851245e-05,0.0,0.0,0.0
1.812250957300421e-05,-4.7309928049799055e-05,0.0,0.0,0.0
1.8410793927614577e-05,-4.735110269393772e-05,0.0,0.0,0.0
1.7962025594897568e-05,-4.785265264217742e-05,0.0,0.0,0.0
1.7444195691496134e-05,-4.8337366024497896e-05,0.0,0.0,0.0
1.7745289369486272e-05,-4.8064772272482514e-05,0.0,0.0,0.0
1.8019309209194034e-05,-4.800035821972415e-05,0.0,0.0,0.0
1.7931673937710002e-05,-4.8011534090619534e-05,0.0,0.0,0.0
1.7963502614293247e-05,-4.820938556804322e-05,0.0,0.0,0.0
1.837908712332137e-05,-4.856971645494923e-05,0.0,0.0,0.0
1.844010694185272e-05,-4.8857644287636504e-05,0.0,0.0,0.0
1.8479355276213028e-05,-4.9033245886676013e-05,0.0,0.0,0.0
1.8453694792697206e-05,-4.950349102728069e-05,0.0,0.0,0.0
1.8308452126802877e-05,-5.0208909669891e-05,0.0,0.0,0.0
1.8275026377523318e-05,-5.033092384110205e-05,0.0,0.0,0.0
1.8182598068960942e-05,-5.051246262155473e-05,0.0,0.0,0.0
1.793766386981588e-05,-5.041448093834333e-05,0.0,0.0,0.0
1.8216996977571398e-05,-5.028685700381175e-05,0.0,0.0,0.0
1.8371994883636944e-05,-5.06388460053131e-05,0.0,0.0,0.0
1.8127602743334137e-05,-5.0733044190565124e-05,0.0,0.0,0.0
1.8215196178061888e-05,-5.065610457677394e-05,0.0,0.0,0.0
1.8362869013799354e-05,-5.064299330115318e-05,0.0,0.0,0.0
1.824089304136578e-05,-5.035973299527541e-05,0.0,0.0,0.0
1.839138894865755e-05,-5.0294551328988746e-05,0.0,0.0,0.0
1.8525415725889616e-05,-4.9974711146205664e-05,0.0,0.0,0.0
1.8410768461762927e-05,-4.938098936690949e-05,0.0,0.0,0.0
1.8464863387634978e-05,-4.927920235786587e-05,0.0,0.0,0.0
1.78398477146402e-05,-4.877954052062705e-05,0.0,0.0,0.0
1.8036878827842884e-05,-4.9165828386321664e-05,0.0,0.0,0.0
1.792954935808666e-05,-4.9498004955239594e-05,0.0,0.0,0.0
1.7687241779640317e-05,-4.895973688689992e-05,0.0,0.0,0.0
1.788032750482671e-05,-4.881917993770912e-05,0.0,0.0,0.0
1.74739325302653e-05,-4.8110090574482456e-05,0.0,0.0,0.0
1.7722693883115426e-05,-4.777268986799754e-05,0.0,0.0,0.0
1.8237926269648597e-05,-4.7650697524659336e-05,0.0,0.0,0.0
1.8504357285564765e-05,-4.746449485537596e-05,0.0,0.0,0.0
1.8229364286526106e-05,-4.7114350309129804e-05,0.0,0.0,0.0
1.8328755686525255e-05,-4.679861740441993e-05,0.0,0.0,0.0
1.8288506907992996e-05,-4.7026209358591586e-05,0.0,0.0,0.0
1.794220406736713e-05,-4.734001777251251e-05,0.0,0.0,0.0
1.7642978491494432e-05,-4.749477011500858e-05,0.0,0.0,0.0
1.7593029042473063e-05,-4.76619643450249e-05,0.0,0.0,0.0
1.7663607650320046e-05,-4.7543871914967895e-05,0.0,0.0,0.0
1.7579852283233777e-05,-4.7449189878534526e-05,0.0,0.0,0.0
1.7904490960063413e-05,-4.779316077474505e-05,0.0,0.0,0.0
1.8012733562500216e-05,-4.808836820302531e-05,0.0,0.0,0.0
1.7815231331042014e-05,-4.8444908316014335e-05,0.0,0.0,0.0
1.7686754290480167e-05,-4.8561392759438604e-05,0.0,0.0,0.0
1.7570089767104946e-05,-4.8465761210536584e-05,0.0,0.0,0.0
1.779712511051912e-05,-4.860505214310251e-05,0.0,0.0,0.0
1.820171564759221e-05,-4.8738795157987624e-05,0.0,0.0,0.0
1.84147556865355e-05,-4.866470044362359e-05,0.0,0.0,0.0
1.8471606381353922e-05,-4.9054695409722626e-05,0.0,0.0,0.0
1.8133963749278337e-05,-4.934305252390914e-05,0.0,0.0,0.0
1.812041227822192e-05,-4.99742163810879e-05,0.0,0.0,0.0
1.8135871869162656e-05,-5.034585410612635e-05,0.0,0.0,0.0
1.8395418010186404e-05,-5.063731441623531e-05,0.0,0.0,0.0
1.851044908107724e-05,-5.072492058388889e-05,0.0,0.0,0.0
1.8167105736210942e-05,-5.0404480134602636e-05,0.0,0.0,0.0
1.8132168406737037e-05,-5.0351107347523794e-05,0.0,0.0,0.0
1.812314076232724e-05,-5.059014438302256e-05,0.0,0.0,0.0
1.8355660358793102e-05,-5.0492268201196566e-05,0.0,0.0,0.0
1.8480021026334725e-05,-5.031077307648957e-05,0.0,0.0,0.0
1.8450296920491382e-05,-5.019099262426607e-05,0.0,0.0,0.0
1.8282053133589216e-05,-4.978002471034415e-05,0.0,0.0,0.0
1.828990389185492e-05,-4.97125402034726e-05,0.0,0.0,0.0
1.848558895289898e-05,-4.948856440023519e-05,0.0,0.0,0.0
1.828698441386223e-05,-4.9363708967575803e-05,0.0,0.0,0.0
1.828768290579319e-05,-4.93343140988145e-05,0.0,0.0,0.0
1.8315531633561477e-05,-4.908214395982213e-05,0.0,0.0,0.0
1.8139657186111435e-05,-4.867823372478597e-05,0.0,0.0,0.0
1.8235998140880838e-05,-4.867365714744665e-05,0.0,0.0,0.0
1.856366725405678e-05,-4.867943425779231e-05,0.0,0.0,0.0
1.8694803657126613e-05,-4.8481284466106445e-05,0.0,0.0,0.0
1.8488084606360644e-05,-4.7875961172394454e-05,0.0,0.0,0.0
1.8443670342094265e-05,-4.7341487515950575e-05,0.0,0.0,0.0
1.847886414907407e-05,-4.7199548134813085e-05,0.0,0.0,0.0
1.8504873878555372e-05,-4.677737524616532e-05,0.0,0.0,0.0
1.8733131582848728e-05,-4.6956174628576264e-05,0.0,0.0,0.0
1.848811916715931e-05,-4.736856499221176e-05,0.0,0.0,0.0
1.811717993405182e-05,-4.7305486077675596e-05,0.0,0.0,0.0
1.8137203369406052e-05,-4.7355199058074504e-05,0.0,0.0,0.0
1.811930997064337e-05,-4.7891608119243756e-05,0.0,0.0,0.0
1.7858528735814616e-05,-4.7545334382448345e-05,0.0,0.0,0.0
1.7482152543379925e-05,-4.771401290781796e-05,0.0,0.0,0.0
1.7713802662910894e-05,-4.8196641728281975e-05,0.0,0.0,0.0
1.80664355866611e-05,-4.8339061322622e-05,0.0,0.0,0.0
1.8130021999240853e-05,-4.862020432483405e-05,0.0,0.0,0.0
1.8126202121493407e-05,-4.839984467253089e-05,0.0,0.0,0.0
1.8341193936066702e-05,-4.8823530960362405e-05,0.0,0.0,0.0
1.807703301892616e-05,-4.856602390646003e-05,0.0,0.0,0.0
1.81305586011149e-05,-4.913705197395757e-05,0.0,0.0,0.0
1.8522805476095527e-05,-4.950094808009453e-05,0.0,0.0,0.0
1.841466291807592e-05,-4.9869031499838457e-05,0.0,0.0,0.0
1.8343138435739093e-05,-5.002622856409289e-05,0.0,0.0,0.0
1.8095684936270118e-05,-5.0295766413910314e-05,0.0,0.0,0.0
1.82900985237211e-05,-5.071851774118841e-05,0.0,0.0,0.0
1.8440809071762487e-05,-5.052604683442041e-05,0.0,0.0,0.0
1.8479411664884537e-05,-5.040677933720872e-05,0.0,0.0,0.0
1.8240445569972508e-05,-5.029944077250548e-05,0.0,0.0,0.0
1.792383409338072e-05,-5.041173426434398e-05,0.0,0.0,0.0
1.808146043913439e-05,-5.0382728659315035e-05,0.0,0.0,0.0
1.8238262782688253e-05,-5.0575603381730616e-05,0.0,0.0,0.0
1.8410899428999983e-05,-5.00345959153492e-05,0.0,0.0,0.0
1.8610768165672198e-05,-4.990468005416915e-05,0.0,0.0,0.0
1.8954906408907846e-05,-4.9413829401601106e-05,0.0,0.0,0.0
1.8610360712045804e-05,-4.926363180857152e-05,0.0,0.0,0.0
1.830098517530132e-05,-4.904833258478902e-05,0.0,0.0,0.0
1.797166987671517e-05,-4.836131847696379e-05,0.0,0.0,0.0
1.8220780475530773e-05,-4.8606310883769765e-05,0.0,0.0,0.0
1.8384267605142668e-05,-4.8185571358771995e-05,0.0,0.0,0.0
1.793291448848322e-05,-4.787472789757885e-05,0.0,0.0,0.0
1.802538099582307e-05,-4.811496546608396e-05,0.0,0.0,0.0
1.8134127458324656e-05,-4.766885103890672e-05,0.0,0.0,0.0
1.816071198845748e-05,-4.748163337353617e-05,0.0,0.0,0.0
1.7619786376599222e-05,-4.682703365688212e-05,0.0,0.0,0.0
1.8132141121895984e-05,-4.687797627411783e-05,0.0,0.0,0.0
1.805707324820105e-05,-4.7220164560712874e-05,0.0,0.0,0.0
1.8167947928304784e-05,-4.7325753257609904e-05,0.0,0.0,0.0
1.8113179976353422e-05,-4.734538742923178e-05,0.0,0.0,0.0
1.7950736946659163e-05,-4.748818537336774e-05,0.0,0.0,0.0
1.7811686120694503e-05,-4.7851692215772346e-05,0.0,0.0,0.0
1.7757567547960207e-05,-4.813060877495445e-05,0.0,0.0,0.0
1.7976166418520734e-05,-4.850133336731233e-05,0.0,0.0,0.0
1.8195598386228085e-05,-4.839212851948105e-05,0.0,0.0,0.0
1.840262302721385e-05,-4.8285168304573745e-05,0.0,0.0,0.0
1.8079554138239473e-05,-4.8608573706587777e-05,0.0,0.0,0.0
1.8083756003761664e-05,-4.8833524488145486e-05,0.0,0.0,0.0
1.775730197550729e-05,-4.8937774408841506e-05,0.0,0.0,0.0
1.782943945727311e-05,-4.900319254375063e-05,0.0,0.0,0.0
1.788116423995234e-05,-4.883546716882847e-05,0.0,0.0,0.0
1.8444274246576242e-05,-4.967901259078644e-05,0.0,0.0,0.0
1.8432901924825273e-05,-5.007801519241184e-05,0.0,0.0,0.0
1.8156359146814793e-05,-5.03063783980906e-05,0.0,0.0,0.0
1.8058008208754472e-05,-5.039504321757704e-05,0.0,0.0,0.0
1.756508027028758e-05,-5.032164335716516e-05,0.0,0.0,0.0
1.7650389054324478e-05,-5.0381651817588136e-05,0.0,0.0,0.0
1.818775308493059e-05,-5.116283136885613e-05,0.0,0.0,0.0
1.833297937992029e-05,-5.1226073992438614e-05,0.0,0.0,0.0
1.8545440980233252e-05,-5.062913987785578e-05,0.0,0.0,0.0
1.8154554709326476e-05,-5.0530557928141207e-05,0.0,0.0,0.0
1.814799543353729e-05,-5.049415631219745e-05,0.0,0.0,0.0
1.834071008488536e-05,-5.078912727185525e-05,0.0,0.0,0.0
1.8486069166101515e-05,-5.040116229793057e-05,0.0,0.0,0.0
1.825008075684309e-05,-5.0192153139505535e-05,0.0,0.0,0.0
1.8305943740415387e-05,-4.97873843414709e-05,0.0,0.0,0.0
1.849384898378048e-05,-4.9698210204951465e-05,0.0,0.0,0.0
1.8259876014781184e-05,-4.967860149918124e-05,0.0,0.0,0.0
1.831822191888932e-05,-4.967982749803923e-05,0.0,0.0,0.0
1.8431290300213732e-05,-4.939587597618811e-05,0.0,0.0,0.0
1.8221067875856534e-05,-4.8862308176467195e-05,0.0,0.0,0.0
1.7767424651538022e-05,-4.869727490586229e-05,0.0,0.0,0.0
1.7935337382368743e-05,-4.841887857764959e-05,0.0,0.0,0.0
1.819469252950512e-05,-4.794752749148756e-05,0.0,0.0,0.0
1.8486103726900183e-05,-4.7638241085223854e-05,0.0,0.0,0.0
1.8440305211697705e-05,-4.761413219966926e-05,0.0,0.0,0.0
1.8486387489247136e-05,-4.7326902858912945e-05,0.0,0.0,0.0
1.8313463442609645e-05,-4.7469078708672896e-05,0.0,0.0,0.0
1.7976926756091416e-05,-4.7832527343416587e-05,0.0,0.0,0.0
1.8288423234480433e-05,-4.754009933094494e-05,0.0,0.0,0.0
1.8244361854158342e-05,-4.789431841345504e-05,0.0,0.0,0.0
1.7683916667010635e-05,-4.8703768698032945e-05,0.0,0.0,0.0
1.756975325406529e-05,-4.803177580470219e-05,0.0,0.0,0.0
1.7076181393349543e-05,-4.855315273744054e-05,0.0,0.0,0.0
1.770699782355223e-05,-4.8783662350615487e-05,0.0,0.0,0.0
1.7844142348621972e-05,-4.8849062295630574e-05,0.0,0.0,0.0
1.7998747352976352e-05,-4.912656368105672e-05,0.0,0.0,0.0
1.7959315300686285e-05,-4.915940007776953e-05,0.0,0.0,0.0
1.793044611986261e-05,-4.969094879925251e-05,0.0,0.0,0.0
1.8235272364108823e-05,-5.006392893847078e-05,0.0,0.0,0.0
1.7822987501858734e-05,-5.0237900723004714e-05,0.0,0.0,0.0
1.8256245311931707e-05,-4.99237903568428e-05,0.0,0.0,0.0
1.7867732822196558e-05,-5.0094946345780045e-05,0.0,0.0,0.0
1.7802118236431852e-05,-5.014116322854534e-05,0.0,0.0,0.0
1.7986238162848167e-05,-5.091674393042922e-05,0.0,0.0,0.0
1.776437056832947e-05,-5.149821299710311e-05,0.0,0.0,0.0
1.7962584024644457e-05,-5.171222073840909e-05,0.0,0.0,0.0
1.810926005418878e-05,-5.1691633416339755e-05,0.0,0.0,0.0
1.8269047359353863e-05,-5.15685896971263e-05,0.0,0.0,0.0
1.8445141904521734e-05,-5.149492062628269e-05,0.0,0.0,0.0
1.8264256141264923e-05,-5.155944381840527e-05,0.0,0.0,0.0
1.7813323211157694e-05,-5.150573997525498e-05,0.0,0.0,0.0
1.7856638805824332e-05,-5.1547554903663695e-05,0.0,0.0,0.0
1.812518894439563e-05,-5.1294846343807876e-05,0.0,0.0,0.0
1.81919131136965e-05,-5.060385592514649e-05,0.0,0.0,0.0
1.8436139725963585e-05,-5.040559699409641e-05,0.0,0.0,0.0
1.8484997781342827e-05,-5.030926695326343e-05,0.0,0.0,0.0
1.844681173679419e-05,-5.036311995354481e-05,0.0,0.0,0.0
1.847571365942713e-05,-4.995873314328492e-05,0.0,0.0,0.0
1.8454813471180387e-05,-4.913519660476595e-05,0.0,0.0,0.0
1.8468894268153235e-05,-4.91945756948553e-05,0.0,0.0,0.0
1.7907539586303756e-05,-4.919962884741835e-05,0.0,0.0,0.0
1.7983091311180033e-05,-4.860235276282765e-05,0.0,0.0,0.0
1.8481416191207245e-05,-4.8758982302388176e-05,0.0,0.0,0.0
1.8411727069178596e-05,-4.7878023906378075e-05,0.0,0.0,0.0
1.8506045307731256e-05,-4.763394463225268e-05,0.0,0.0,0.0
1.820569195842836e-05,-4.7034853196237236e-05,0.0,0.0,0.0
1.8133510820916854e-05,-4.656290548155084e-05,0.0,0.0,0.0
1.8327045836485922e-05,-4.695217648986727e-05,0.0,0.0,0.0
1.8477989215170965e-05,-4.712611553259194e-05,0.0,0.0,0.0
1.8453723896527663e-05,-4.740065924124792e-05,0.0,0.0,0.0
1.8468837879481725e-05,-4.727503255708143e-05,0.0,0.0,0.0
1.8142651242669672e-05,-4.7543384425807744e-05,0.0,0.0,0.0
1.808587330742739e-05,-4.777640424435958e-05,0.0,0.0,0.0
1.8464950699126348e-05,-4.803804768016562e-05,0.0,0.0,0.0
1.8460297724232078e-05,-4.797754081664607e-05,0.0,0.0,0.0
1.8467811969458126e-05,-4.802691546501592e-05,0.0,0.0,0.0
1.8458034901414067e-05,-4.820036701858044e-05,0.0,0.0,0.0
1.8469529095455073e-05,-4.8658435844117776e-05,0.0,0.0,0.0
1.8456812540534884e-05,-4.8778692871565e-05,0.0,0.0,0.0
1.8470303984940983e-05,-4.904764864477329e-05,0.0,0.0,0.0
1.8456434190738946e-05,-4.922965308651328e-05,0.0,0.0,0.0
1.8576683942228556e-05,-4.8883310228120536e-05,0.0,0.0,0.0
1.8936565538751893e-05,-4.9548678362043574e-05,0.0,0.0,0.0
1.829418215493206e-05,-4.9827667680801824e-05,0.0,0.0,0.0
1.7965279766940512e-05,-4.9909474910236895e-05,0.0,0.0,0.0
1.7952072084881365e-05,-5.0419781473465264e-05,0.0,0.0,0.0
1.8233535229228437e-05,-5.0591905164765194e-05,0.0,0.0,0.0
1.8653725419426337e-05,-5.04918243677821e-05,0.0,0.0,0.0
1.830874680308625e-05,-5.052336200606078e-05,0.0,0.0,0.0
1.8586188161862083e-05,-5.1055063522653654e-05,0.0,0.0,0.0
1.8613609427120537e-05,-5.048411912866868e-05,0.0,0.0,0.0
1.8662331058294512e-05,-5.010094173485413e-05,0.0,0.0,0.0
1.8368311430094764e-05,-5.001985846320167e-05,0.0,0.0,0.0
1.853122557804454e-05,-4.979732693755068e-05,0.0,0.0,0.0
1.84193213499384e-05,-4.947922207065858e-05,0.0,0.0,0.0
1.8678569176699966e-05,-4.9135465815197676e-05,0.0,0.0,0.0
1.8623071809997782e-05,-4.902575892629102e-05,0.0,0.0,0.0
1.8608559912536293e-05,-4.882300709141418e-05,0.0,0.0,0.0
1.8677639673114754e-05,-4.869429540121928e-05,0.0,0.0,0.0
1.8418662875774316e-05,-4.85057826153934e-05,0.0,0.0,0.0
1.851147499110084e-05,-4.8228503146674484e-05,0.0,0.0,0.0
1.841352968767751e-05,-4.7855071898084134e-05,0.0,0.0,0.0
1.8513843315304257e-05,-4.7584286221535876e-05,0.0,0.0,0.0
1.8413567886454985e-05,-4.710149733000435e-05,0.0,0.0,0.0
1.8511735106585547e-05,-4.6712433686479926e-05,0.0,0.0,0.0
1.8417425962979905e-05,-4.6616416511824355e-05,0.0,0.0,0.0
1.8506430933484808e-05,-4.670296038966626e-05,0.0,0.0,0.0
1.8423896108288318e-05,-4.6626060793641955e-05,0.0,0.0,0.0
1.8499058569432236e-05,-4.679964331444353e-05,0.0,0.0,0.0
1.8346849174122326e-05,-4.7200563130900264e-05,0.0,0.0,0.0
1.792164948710706e-05,-4.7141082177404314e-05,0.0,0.0,0.0
1.80065180757083e-05,-4.720205470221117e-05,0.0,0.0,0.0
1.8228907720185816e-05,-4.74420448881574e-05,0.0,0.0,0.0
1.8044958778773434e-05,-4.753285611514002e-05,0.0,0.0,0.0
1.791710928955581e-05,-4.805578282685019e-05,0.0,0.0,0.0
1.770367452991195e-05,-4.822201663046144e-05,0.0,0.0,0.0
1.8370790712651797e-05,-4.840895053348504e-05,0.0,0.0,0.0
1.8230708519695327e-05,-4.853554492001422e-05,0.0,0.0,0.0
1.808247179724276e-05,-4.873725993093103e-05,0.0,0.0,0.0
1.817294287320692e-05,-4.885760790784843e-05,0.0,0.0,0.0
1.8082910173689015e-05,-4.9271340685663745e-05,0.0,0.0,0.0
1.8373790226178244e-05,-4.9538695748196915e-05,0.0,0.0,0.0
1.824365244829096e-05,-4.988820001017302e-05,0.0,0.0,0.0
1.832672205637209e-05,-5.02103466715198e-05,0.0,0.0,0.0
1.8280379663337953e-05,-5.034366040490568e-05,0.0,0.0,0.0
1.7979846234084107e-05,-5.053364657214843e-05,0.0,0.0,0.0
1.7924523490364663e-05,-5.0814764108508825e-05,0.0,0.0,0.0
1.8144222849514335e-05,-5.0915761676151305e-05,0.0,0.0,0.0
1.8109638403984718e-05,-5.0664104492170736e-05,0.0,0.0,0.0
1.8263724996359088e-05,-5.060305920778774e-05,0.0,0.0,0.0
1.8431968783261254e-05,-5.033523848396726e-05,0.0,0.0,0.0
1.8493095922167413e-05,-5.056833106209524e-05,0.0,0.0,0.0
1.8435786842019297e-05,-5.0794988055713475e-05,0.0,0.0,0.0
1.841433549998328e-05,-5.030606553191319e-05,0.0,0.0,0.0
1.8193910364061594e-05,-4.9645470426185057e-05,0.0,0.0,0.0
1.8433636796544306e-05,-4.961124068358913e-05,0.0,0.0,0.0
1.8488055502530187e-05,-4.9003057938534766e-05,0.0,0.0,0.0
1.841127232182771e-05,-4.8683556087780744e-05,0.0,0.0,0.0
1.8182825442636386e-05,-4.866969902650453e-05,0.0,0.0,0.0
1.808163506211713e-05,-4.8681828047847375e-05,0.0,0.0,0.0
1.787871224223636e-05,-4.8384878027718514e-05,0.0,0.0,0.0
1.7719763491186313e-05,-4.8025794967543334e-05,0.0,0.0,0.0
1.838318712543696e-05,-4.800019451067783e-05,0.0,0.0,0.0
1.8484217434888706e-05,-4.749734216602519e-05,0.0,0.0,0.0
1.8444095985614695e-05,-4.702548176283017e-05,0.0,0.0,0.0
1.8481117876945063e-05,-4.7021258069435135e-05,0.0,0.0,0.0
1.8224105588160455e-05,-4.720401193480939e-05,0.0,0.0,0.0
1.8120752429240383e-05,-4.715330578619614e-05,0.0,0.0,0.0
1.833494388847612e-05,-4.7360303142340854e-05,0.0,0.0,0.0
1.8474220269126818e-05,-4.7920391807565466e-05,0.0,0.0,0.0
1.8454033124726266e-05,-4.7971043386496603e-05,0.0,0.0,0.0
1.8641534552443773e-05,-4.8027719458332285e-05,0.0,0.0,0.0
1.8478076526662335e-05,-4.815116699319333e-05,0.0,0.0,0.0
1.827571941248607e-05,-4.849568722420372e-05,0.0,0.0,0.0
1.8047026969725266e-05,-4.867543975706212e-05,0.0,0.0,0.0
1.7857208149507642e-05,-4.867080497206189e-05,0.0,0.0,0.0
1.830401197366882e-05,-4.8803929530549794e-05,0.0,0.0,0.0
1.8283360986970365e-05,-4.9091475375462323e-05,0.0,0.0,0.0
1.8309565348317847e-05,-4.9456411943538114e-05,0.0,0.0,0.0
1.819628778321203e-05,-4.956359043717384e-05,0.0,0.0,0.0
1.8069460566039197e-05,-4.9552716518519446e-05,0.0,0.0,0.0
1.8240356439491734e-05,-4.9980400945059955e-05,0.0,0.0,0.0
1.83413467311766e-05,-5.046978549216874e-05,0.0,0.0,0.0
1.8173976059188135e-05,-5.068882819614373e-05,0.0,0.0,0.0
1.7754206055542454e-05,-5.136635809321888e-05,0.0,0.0,0.0
1.784234154911246e-05,-5.135760147823021e-05,0.0,0.0,0.0
1.806450200092513e-05,-5.136565596330911e-05,0.0,0.0,0.0
1.8464847016730346e-05,-5.135877290740609e-05,0.0,0.0,0.0
1.8189735783380456e-05,-5.081110430182889e-05,0.0,0.0,0.0
1.8083583199768327e-05,-5.141127257957123e-05,0.0,0.0,0.0
1.8423730580252595e-05,-5.160893852007575e-05,0.0,0.0,0.0
1.8457110854797065e-05,-5.070443148724735e-05,0.0,0.0,0.0
1.8237633412354626e-05,-5.12391998199746e-05,0.0,0.0,0.0
1.831697409215849e-05,-5.112596045364626e-05,0.0,0.0,0.0
1.8515509509597905e-05,-5.058337774244137e-05,0.0,0.0,0.0
1.8215978343505412e-05,-5.013839472667314e-05,0.0,0.0,0.0
1.8343707779422402e-05,-4.962667662766762e-05,0.0,0.0,0.0
1.8634164007380605e-05,-4.9159436457557604e-05,0.0,0.0,0.0
1.88159137906041e-05,-4.900310523225926e-05,0.0,0.0,0.0
1.862545650510583e-05,-4.886690658167936e-05,0.0,0.0,0.0
1.8176018784288317e-05,-4.8656122089596465e-05,0.0,0.0,0.0
1.8064225514535792e-05,-4.856119630858302e-05,0.0,0.0,0.0
1.8582895791041665e-05,-4.8320667701773345e-05,0.0,0.0,0.0
1.8681837900658138e-05,-4.8011519538704306e-05,0.0,0.0,0.0
1.8580725736683235e-05,-4.734648246085271e-05,0.0,0.0,0.0
1.867997707449831e-05,-4.732608067570254e-05,0.0,0.0,0.0
1.8415646991343237e-05,-4.7336310672108084e-05,0.0,0.0,0.0
1.8193886717199348e-05,-4.733433888759464e-05,0.0,0.0,0.0
1.844329926825594e-05,-4.739358337246813e-05,0.0,0.0,0.0
1.837609670474194e-05,-4.769957376993261e-05,0.0,0.0,0.0
1.7838014173321426e-05,-4.7947363782441244e-05,0.0,0.0,0.0
1.7786480384529568e-05,-4.771946260007098e-05,0.0,0.0,0.0
1.8097647625836544e-05,-4.764593541040085e-05,0.0,0.0,0.0
1.7843631212599576e-05,-4.8001889808801934e-05,0.0,0.0,0.0
1.7746195226209238e-05,-4.886827809968963e-05,0.0,0.0,0.0
1.7832417142926715e-05,-4.885739690507762e-05,0.0,0.0,0.0
1.8022567019215785e-05,-4.8536574468016624e-05,0.0,0.0,0.0
1.7937518350663595e-05,-4.904673915007152e-05,0.0,0.0,0.0
1.770597191352863e-05,-4.895005258731544e-05,0.0,0.0,0.0
1.786366010492202e-05,-4.929310307488777e-05,0.0,0.0,0.0
1.795674324966967e-05,-4.956148404744454e-05,0.0,0.0,0.0
1.8408458345220424e-05,-4.99192756251432e-05,0.0,0.0,0.0
1.842730307544116e-05,-4.982168320566416e-05,0.0,0.0,0.0
1.8490063666831702e-05,-4.9850008508656174e-05,0.0,0.0,0.0
1.8445090972818434e-05,-5.005715138395317e-05,0.0,0.0,0.0
1.847449857450556e-05,-5.032189437770285e-05,0.0,0.0,0.0
1.8458571503288113e-05,-5.073612555861473e-05,0.0,0.0,0.0
1.846296618168708e-05,-5.0796938012354076e-05,0.0,0.0,0.0
1.846829218266066e-05,-5.092495121061802e-05,0.0,0.0,0.0
1.8454920791555196e-05,-5.066209996584803e-05,0.0,0.0,0.0
1.8474798707757145e-05,-5.0599195674294606e-05,0.0,0.0,0.0
1.8449822164257057e-05,-5.0343776820227504e-05,0.0,0.0,0.0
1.8670049030333757e-05,-5.026904909755103e-05,0.0,0.0,0.0
1.8996110156876966e-05,-4.994379196432419e-05,0.0,0.0,0.0
1.8944314433610998e-05,-4.977155549568124e-05,0.0,0.0,0.0
1.8982987967319787e-05,-4.985441410099156e-05,0.0,0.0,0.0
1.8851153072318994e-05,-4.9383059376850724e-05,0.0,0.0,0.0
1.8405158698442392e-05,-4.892680954071693e-05,0.0,0.0,0.0
1.851267006713897e-05,-4.874625301454216e-05,0.0,0.0,0.0
1.840122240537312e-05,-4.8576352128293365e-05,0.0,0.0,0.0
1.8202905266662128e-05,-4.813471241504885e-05,0.0,0.0,0.0
1.806594264053274e-05,-4.789814192918129e-05,0.0,0.0,0.0
1.8453838492860086e-05,-4.809083475265652e-05,0.0,0.0,0.0
1.8994263882632367e-05,-4.740579970530234e-05,0.0,0.0,0.0
1.9201039322069846e-05,-4.731542139779776e-05,0.0,0.0,0.0
1.8593884306028485e-05,-4.711007568403147e-05,0.0,0.0,0.0
1.8680606444831938e-05,-4.694638846558519e-05,0.0,0.0,0.0
1.8619091861182824e-05,-4.704625462181866e-05,0.0,0.0,0.0
1.840154072851874e-05,-4.7165085561573505e-05,0.0,0.0,0.0
1.851903107308317e-05,-4.739354699268006e-05,0.0,0.0,0.0
1.803089071472641e-05,-4.7279769205488265e-05,0.0,0.0,0.0
1.817525117076002e-05,-4.7561923565808684e-05,0.0,0.0,0.0
1.8288628780283034e-05,-4.763521792483516e-05,0.0,0.0,0.0
1.812942537071649e-05,-4.7858673497103155e-05,0.0,0.0,0.0
1.7974914953811094e-05,-4.79800182802137e-05,0.0,0.0,0.0
1.7938002201844938e-05,-4.802650073543191e-05,0.0,0.0,0.0
1.8240983990835957e-05,-4.798639565706253e-05,0.0,0.0,0.0
1.8469268979970366e-05,-4.802038529305719e-05,0.0,0.0,0.0
1.845650876930449e-05,-4.8204910854110494e-05,0.0,0.0,0.0
1.8375310901319608e-05,-4.86555763927754e-05,0.0,0.0,0.0
1.8223479855805635e-05,-4.878014442510903e-05,0.0,0.0,0.0
1.835913280956447e-05,-4.8972913646139205e-05,0.0,0.0,0.0
1.824106766434852e-05,-4.917386468150653e-05,0.0,0.0,0.0
1.839391370594967e-05,-4.975570482201874e-05,0.0,0.0,0.0
1.8435866877553053e-05,-5.0669234042288736e-05,0.0,0.0,0.0
1.781569153536111e-05,-5.070857150712982e-05,0.0,0.0,0.0
1.779094418452587e-05,-5.0653998187044635e-05,0.0,0.0,0.0
1.8106660718331113e-05,-5.0409220420988277e-05,0.0,0.0,0.0
1.843109930632636e-05,-5.0596321671037003e-05,0.0,0.0,0.0
1.849239197326824e-05,-5.076910383650102e-05,0.0,0.0,0.0
1.8437709513818845e-05,-5.009411324863322e-05,0.0,0.0,0.0
1.8230719433631748e-05,-5.000220699002966e-05,0.0,0.0,0.0
1.8321705283597112e-05,-5.0035741878673434e-05,0.0,0.0,0.0
1.853373396443203e-05,-5.000274904887192e-05,0.0,0.0,0.0
1.8405196897219867e-05,-5.003491241950542e-05,0.0,0.0,0.0
1.8297960195923224e-05,-4.957844066666439e-05,0.0,0.0,0.0
1.8274600734002888e-05,-4.952858580509201e-05,0.0,0.0,0.0
1.8521168385632336e-05,-4.9522259359946474e-05,0.0,0.0,0.0
1.841887024056632e-05,-4.8951798817142844e-05,0.0,0.0,0.0
1.8496255506761372e-05,-4.868647738476284e-05,0.0,0.0,0.0
1.8121825632988475e-05,-4.835131767322309e-05,0.0,0.0,0.0
1.8100901797879487e-05,-4.785581768373959e-05,0.0,0.0,0.0
1.8454975361237302e-05,-4.725879989564419e-05,0.0,0.0,0.0
1.846591658249963e-05,-4.641708801500499e-05,0.0,0.0,0.0
1.8465900211595e-05,-4.600091779138893e-05,0.0,0.0,0.0
1.845683618739713e-05,-4.6192915760912e-05,0.0,0.0,0.0
1.847328348958399e-05,-4.6641835069749504e-05,0.0,0.0,0.0
1.8451006326358765e-05,-4.6678174840053543e-05,0.0,0.0,0.0
1.8477703633834608e-05,-4.672403520089574e-05,0.0,0.0,0.0
1.8447855836711824e-05,-4.70457089249976e-05,0.0,0.0,0.0
1.8426548194838688e-05,-4.73195432277862e-05,0.0,0.0,0.0
1.8143093257094733e-05,-4.738694042316638e-05,0.0,0.0,0.0
1.8117048966814764e-05,-4.7657478717155755e-05,0.0,0.0,0.0
1.8091932361130603e-05,-4.804490163223818e-05,0.0,0.0,0.0
1.7536602172185667e-05,-4.859574619331397e-05,0.0,0.0,0.0
1.79606049641734e-05,-4.8743448132881895e-05,0.0,0.0,0.0
1.8270218788529746e-05,-4.862106652581133e-05,0.0,0.0,0.0
1.800778954930138e-05,-4.898673796560615e-05,0.0,0.0,0.0
1.8482278392184526e-05,-4.875598460785113e-05,0.0,0.0,0.0
1.8413915313431062e-05,-4.913259908789769e-05,0.0,0.0,0.0
1.826727566367481e-05,-4.943297972204164e-05,0.0,0.0,0.0
1.8075841580866836e-05,-4.949815047439188e-05,0.0,0.0,0.0
1.8166214431403205e-05,-4.9978651077253744e-05,0.0,0.0,0.0
1.8101049136021174e-05,-5.017045987187885e-05,0.0,0.0,0.0
1.8144026398658752e-05,-5.0601724069565535e-05,0.0,0.0,0.0
1.8120379536412656e-05,-5.047662489232607e-05,0.0,0.0,0.0
1.812738810258452e-05,-5.071218765806407e-05,0.0,0.0,0.0
1.7974973161472008e-05,-5.118338231113739e-05,0.0,0.0,0.0
1.7927572116605006e-05,-5.1362396334297955e-05,0.0,0.0,0.0
1.814280403777957e-05,-5.122610309626907e-05,0.0,0.0,0.0
1.8109614757122472e-05,-5.08989323861897e-05,0.0,0.0,0.0
1.8148028175346553e-05,-5.070150291430764e-05,0.0,0.0,0.0
1.7999578631133772e-05,-5.057199450675398e-05,0.0,0.0,0.0
1.7925709471455775e-05,-5.0287297199247405e-05,0.0,0.0,0.0
1.8158083548769355e-05,-5.001125828130171e-05,0.0,0.0,0.0
1.8416712919133715e-05,-4.987889769836329e-05,0.0,0.0,0.0
1.8190823539043777e-05,-4.938900383422151e-05,0.0,0.0,0.0
1.8330949387745932e-05,-4.9261059757554904e-05,0.0,0.0,0.0
1.7876462152344175e-05,-4.902788714389317e-05,0.0,0.0,0.0
1.775388591340743e-05,-4.8632129619363695e-05,0.0,0.0,0.0
1.812515256460756e-05,-4.840838664676994e-05,0.0,0.0,0.0
1.7820530047174543e-05,-4.8597354179946706e-05,0.0,0.0,0.0
1.8339791495236568e-05,-4.8166133638005704e-05,0.0,0.0,0.0
1.801688631530851e-05,-4.787169746123254e-05,0.0,0.0,0.0
1.8157641534344293e-05,-4.758123031933792e-05,0.0,0.0,0.0
1.8671284124138765e-05,-4.692358925240114e-05,0.0,0.0,0.0
1.8291677406523377e-05,-4.709019049187191e-05,0.0,0.0,0.0
1.8368549717706628e-05,-4.7161720431176946e-05,0.0,0.0,0.0
1.7770109479897656e-05,-4.740846634376794e-05,0.0,0.0,0.0
1.766216882970184e-05,-4.770494706463069e-05,0.0,0.0,0.0
1.7580929124960676e-05,-4.807631194125861e-05,0.0,0.0,0.0
1.805198371584993e-05,-4.795517088496126e-05,0.0,0.0,0.0
1.8093354810844176e-05,-4.803594129043631e-05,0.0,0.0,0.0
1.8144222849514335e-05,-4.832997728954069e-05,0.0,0.0,0.0
1.7966871382668614e-05,-4.884690133621916e-05,0.0,0.0,0.0
1.792829243640881e-05,-4.901493593933992e-05,0.0,0.0,0.0
1.8148217350244522e-05,-4.9137270252685994e-05,0.0,0.0,0.0
1.8226830434286967e-05,-4.9235539336223155e-05,0.0,0.0,0.0
1.8372375052422285e-05,-4.911554424325004e-05,0.0,0.0,0.0
1.821454134187661e-05,-4.9567828682484105e-05,0.0,0.0,0.0
1.8473285308573395e-05,-5.007048093830235e-05,0.0,0.0,0.0
1.827705455070827e-05,-5.029548628954217e-05,0.0,0.0,0.0
1.7931419279193506e-05,-5.008781954529695e-05,0.0,0.0,0.0
1.7976793969864957e-05,-5.0403032219037414e-05,0.0,0.0,0.0
1.7953358110389672e-05,-5.077709283796139e-05,0.0,0.0,0.0
1.7957125237444416e-05,-5.1361144869588315e-05,0.0,0.0,0.0
1.7970682165469043e-05,-5.166387927602045e-05,0.0,0.0,0.0
1.7963438949664123e-05,-5.140506254974753e-05,0.0,0.0,0.0
1.826642983360216e-05,-5.132267688168213e-05,0.0,0.0,0.0
1.8012604414252564e-05,-5.139682616572827e-05,0.0,0.0,0.0
1.849768523243256e-05,-5.10547797603067e-05,0.0,0.0,0.0
1.842745223257225e-05,-5.074869477539323e-05,0.0,0.0,0.0
1.848776992119383e-05,-5.066577432444319e-05,0.0,0.0,0.0
1.8449462004355155e-05,-5.071078339824453e-05,0.0,0.0,0.0
1.8468161215423606e-05,-5.0440434279153123e-05,0.0,0.0,0.0
1.846673148975242e-05,-5.0118975195800886e-05,0.0,0.0,0.0
1.7815067621995695e-05,-5.0010061386274174e-05,0.0,0.0,0.0
1.7823058442445472e-05,-4.9418460548622534e-05,0.0,0.0,0.0
1.8371465557720512e-05,-4.896601240034215e-05,0.0,0.0,0.0
1.843962490966078e-05,-4.886660462943837e-05,0.0,0.0,0.0
1.8474209355190396e-05,-4.8812598834047094e-05,0.0,0.0,0.0
1.8304153854842298e-05,-4.888095281785354e-05,0.0,0.0,0.0
1.826586594688706e-05,-4.82095820188988e-05,0.0,0.0,0.0
1.8479193386156112e-05,-4.782479663845152e-05,0.0,0.0,0.0
1.844192411226686e-05,-4.786245699506253e-05,0.0,0.0,0.0
1.837229501688853e-05,-4.733433524961583e-05,0.0,0.0,0.0
1.821709520299919e-05,-4.700861609308049e-05,0.0,0.0,0.0
1.8373042621533386e-05,-4.759429793921299e-05,0.0,0.0,0.0
1.8051166989607736e-05,-4.782327596331015e-05,0.0,0.0,0.0
1.7811840734793805e-05,-4.791972241946496e-05,0.0,0.0,0.0
1.7770395061234012e-05,-4.8144815082196146e-05,0.0,0.0,0.0
1.7867752831079997e-05,-4.8297650209860876e-05,0.0,0.0,0.0
1.8030474166153e-05,-4.8727873945608735e-05,0.0,0.0,0.0
1.784480809874367e-05,-4.8631580284563825e-05,0.0,0.0,0.0
1.739969775371719e-05,-4.8756995965959504e-05,0.0,0.0,0.0
1.71935316757299e-05,-4.923180676996708e-05,0.0,0.0,0.0
1.7632795788813382e-05,-4.973210161551833e-05,0.0,0.0,0.0
1.7926131476997398e-05,-4.936764526064508e-05,0.0,0.0,0.0
1.768094443832524e-05,-4.934048774885014e-05,0.0,0.0,0.0
1.7882079191622324e-05,-4.935643664794043e-05,0.0,0.0,0.0
1.821021032810677e-05,-4.982674363418482e-05,0.0,0.0,0.0
1.8572893168311566e-05,-5.0085989641956985e-05,0.0,0.0,0.0
1.8155240468331613e-05,-5.0630507757887244e-05,0.0,0.0,0.0
1.7531367120682262e-05,-5.114058876642957e-05,0.0,0.0,0.0
1.7041131286532618e-05,-5.113158840686083e-05,0.0,0.0,0.0
1.7751446648617275e-05,-5.126555697643198e-05,0.0,0.0,0.0
1.794405216060113e-05,-5.11176222062204e-05,0.0,0.0,0.0
1.7945891158888116e-05,-5.1441878895275295e-05,0.0,0.0,0.0
1.831595909607131e-05,-5.129866985953413e-05,0.0,0.0,0.0
1.8430646377964877e-05,-5.141019573784433e-05,0.0,0.0,0.0
1.8362305127084255e-05,-5.118834815220907e-05,0.0,0.0,0.0
1.8220518541056663e-05,-5.0927857955684885e-05,0.0,0.0,0.0
1.8725999325397424e-05,-5.056329973740503e-05,0.0,0.0,0.0
1.8866850950871594e-05,-5.026288636145182e-05,0.0,0.0,0.0
1.8451866708346643e-05,-5.021953256800771e-05,0.0,0.0,0.0
1.8069089492200874e-05,-5.0554390327306464e-05,0.0,0.0,0.0
1.818206874304451e-05,-5.042591146775521e-05,0.0,0.0,0.0
1.814175811887253e-05,-5.016155046178028e-05,0.0,0.0,0.0
1.8479749996913597e-05,-4.97474757139571e-05,0.0,0.0,0.0
1.8362623450229876e-05,-4.9276583013124764e-05,0.0,0.0,0.0
1.790912756405305e-05,-4.9378319090465084e-05,0.0,0.0,0.0
1.8016071408055723e-05,-4.8974903620546684e-05,0.0,0.0,0.0
1.8222033759229816e-05,-4.873218495049514e-05,0.0,0.0,0.0
1.776229328243062e-05,-4.8054425860755146e-05,0.0,0.0,0.0
1.781448008841835e-05,-4.7962508688215166e-05,0.0,0.0,0.0
1.7776248569134623e-05,-4.777505819220096e-05,0.0,0.0,0.0
1.8312164684175514e-05,-4.7604266001144424e-05,0.0,0.0,0.0
1.852148852776736e-05,-4.7968114813556895e-05,0.0,0.0,0.0
1.8176862795371562e-05,-4.77537905680947e-05,0.0,0.0,0.0
1.8150773030356504e-05,-4.788153091794811e-05,0.0,0.0,0.0
1.8105183698935434e-05,-4.8248672101181e-05,0.0,0.0,0.0
1.7947610103874467e-05,-4.853414066019468e-05,0.0,0.0,0.0
1.7756192391971126e-05,-4.869795520789921e-05,0.0,0.0,0.0
1.8005361198447645e-05,-4.86585013277363e-05,0.0,0.0,0.0
1.793598676158581e-05,-4.8860620154300705e-05,0.0,0.0,0.0
1.7807604308472946e-05,-4.9165177188115194e-05,0.0,0.0,0.0
1.7925780412042513e-05,-4.935321703669615e-05,0.0,0.0,0.0
1.8001943317358382e-05,-4.948266359861009e-05,0.0,0.0,0.0
1.791313843568787e-05,-4.9679219955578446e-05,0.0,0.0,0.0
1.824243190640118e-05,-4.96886859764345e-05,0.0,0.0,0.0
1.845267070166301e-05,-4.978345168638043e-05,0.0,0.0,0.0
1.83775646291906e-05,-5.0010748964268714e-05,0.0,0.0,0.0
1.8137450751964934e-05,-5.01096983498428e-05,0.0,0.0,0.0
1.811977017496247e-05,-5.0404079956933856e-05,0.0,0.0,0.0
1.813413473428227e-05,-5.0621161790331826e-05,0.0,0.0,0.0
1.817576958274003e-05,-5.054934445070103e-05,0.0,0.0,0.0
1.8350418031332083e-05,-5.127711847308092e-05,0.0,0.0,0.0
1.7886552086565644e-05,-5.1739705668296665e-05,0.0,0.0,0.0
1.7711885448079556e-05,-5.129497003508732e-05,0.0,0.0,0.0
1.785902350093238e-05,-5.079443144495599e-05,0.0,0.0,0.0
1.8024069504463114e-05,-5.060320836491883e-05,0.0,0.0,0.0
1.821314072003588e-05,-5.1039089157711715e-05,0.0,0.0,0.0
1.8058708519674838e-05,-5.10054815094918e-05,0.0,0.0,0.0
1.8437272956361994e-05,-5.104085721541196e-05,0.0,0.0,0.0
1.8453280063113198e-05,-5.052755295764655e-05,0.0,0.0,0.0
1.8233262380817905e-05,-4.983605685993098e-05,0.0,0.0,0.0
1.788147710612975e-05,-4.9679812946124e-05,0.0,0.0,0.0
1.778511614247691e-05,-4.9896414566319436e-05,0.0,0.0,0.0
1.800480458769016e-05,-5.003928527003154e-05,0.0,0.0,0.0
1.7937039956450462e-05,-4.942541636410169e-05,0.0,0.0,0.0
1.7965754523174837e-05,-4.8816000344231725e-05,0.0,0.0,0.0
1.796647848095745e-05,-4.8678564780857414e-05,0.0,0.0,0.0
1.778501973603852e-05,-4.851727862842381e-05,0.0,0.0,0.0
1.809044806577731e-05,-4.803873525816016e-05,0.0,0.0,0.0
1.832557791203726e-05,-4.754057226818986e-05,0.0,0.0,0.0
1.8128326701116748e-05,-4.732836168841459e-05,0.0,0.0,0.0
1.824817263695877e-05,-4.7456760512432083e-05,0.0,0.0,0.0
1.8444687157170847e-05,-4.754368637804873e-05,0.0,0.0,0.0
1.838721254898701e-05,-4.74625667266082e-05,0.0,0.0,0.0
1.812664959288668e-05,-4.770567829837091e-05,0.0,0.0,0.0
1.8131278920918703e-05,-4.802538751391694e-05,0.0,0.0,0.0
1.8122302208212204e-05,-4.811445978702977e-05,0.0,0.0,0.0
1.8134423953597434e-05,-4.852831261814572e-05,0.0,0.0,0.0
1.8120208551408723e-05,-4.8189172957791016e-05,0.0,0.0,0.0
1.8135608115699142e-05,-4.8553734814049676e-05,0.0,0.0,0.0
1.809852801670786e-05,-4.908204573439434e-05,0.0,0.0,0.0
1.7841588487499394e-05,-4.864305446972139e-05,0.0,0.0,0.0
1.8323660697205923e-05,-4.927576446789317e-05,0.0,0.0,0.0
1.8581700715003535e-05,-4.96881220897194e-05,0.0,0.0,0.0
1.836478077166248e-05,-4.966472624801099e-05,0.0,0.0,0.0
1.8544176782597788e-05,-4.9956423026742414e-05,0.0,0.0,0.0
1.8398828615318052e-05,-5.003338446840644e-05,0.0,0.0,0.0
1.8513479517423548e-05,-5.047675222158432e-05,0.0,0.0,0.0
1.8426309907226823e-05,-5.0969571020687e-05,0.0,0.0,0.0
1.8063677998725325e-05,-5.121542199049145e-05,0.0,0.0,0.0
1.7942771592061035e-05,-5.119487104821019e-05,0.0,0.0,0.0
1.817870361264795e-05,-5.079358379589394e-05,0.0,0.0,0.0
1.827303276513703e-05,-5.071055420557968e-05,0.0,0.0,0.0
1.832314046623651e-05,-5.0676939281402156e-05,0.0,0.0,0.0
1.8265867765876465e-05,-5.0857946916949004e-05,0.0,0.0,0.0
1.862280987552367e-05,-5.0875245506176725e-05,0.0,0.0,0.0
1.8658931367099285e-05,-5.0691163778537884e-05,0.0,0.0,0.0
1.8461823856341653e-05,-5.05649768456351e-05,0.0,0.0,0.0
1.8472890587872826e-05,-5.012517431168817e-05,0.0,0.0,0.0
1.844761754909996e-05,-4.9705904530128464e-05,0.0,0.0,0.0
1.8388414900982752e-05,-4.966192864230834e-05,0.0,0.0,0.0
1.820712350308895e-05,-4.970351801603101e-05,0.0,0.0,0.0
1.845232145569753e-05,-4.959026045980863e-05,0.0,0.0,0.0
1.8467282643541694e-05,-4.9390062486054376e-05,0.0,0.0,0.0
1.846537270466797e-05,-4.925758912577294e-05,0.0,0.0,0.0
1.8371825717622414e-05,-4.9033129471354187e-05,0.0,0.0,0.0
1.7936328731593676e-05,-4.859377077082172e-05,0.0,0.0,0.0
1.8292745153303258e-05,-4.8054662329377607e-05,0.0,0.0,0.0
1.8299084331374615e-05,-4.7340112359961495e-05,0.0,0.0,0.0
1.7981430573854595e-05,-4.7900241042952985e-05,0.0,0.0,0.0
1.8250822904519737e-05,-4.8095356760313734e-05,0.0,0.0,0.0
1.8025921235675924e-05,-4.7661429562140256e-05,0.0,0.0,0.0
1.8210042981081642e-05,-4.795587665284984e-05,0.0,0.0,0.0
1.8307669961359352e-05,-4.800938404514454e-05,0.0,0.0,0.0
1.8539936718298122e-05,-4.800124224857427e-05,0.0,0.0,0.0
1.773580879671499e-05,-4.823104609386064e-05,0.0,0.0,0.0
1.7433632820029743e-05,-4.835966683458537e-05,0.0,0.0,0.0
1.7483000192441978e-05,-4.852647543884814e-05,0.0,0.0,0.0
1.7617889170651324e-05,-4.870434713666327e-05,0.0,0.0,0.0
1.8197077224613167e-05,-4.865311711910181e-05,0.0,0.0,0.0
1.826588049880229e-05,-4.886521492153406e-05,0.0,0.0,0.0
1.7993223082157783e-05,-4.916118996334262e-05,0.0,0.0,0.0
1.806107502488885e-05,-4.920785431750119e-05,0.0,0.0,0.0
1.8489212379790843e-05,-4.900760541204363e-05,0.0,0.0,0.0
1.8436863683746196e-05,-4.9141784984385595e-05,0.0,0.0,0.0
1.837318268371746e-05,-4.945560795022175e-05,0.0,0.0,0.0
1.8219658159068786e-05,-4.989039007341489e-05,0.0,0.0,0.0
1.8271972294314764e-05,-5.0330389058217406e-05,0.0,0.0,0.0
1.7826778275775723e-05,-5.05444550071843e-05,0.0,0.0,0.0
1.7839125575846992e-05,-5.104138108436018e-05,0.0,0.0,0.0
1.818718374124728e-05,-5.138551568961702e-05,0.0,0.0,0.0
1.8440734493196942e-05,-5.134362800163217e-05,0.0,0.0,0.0
1.8480708604329266e-05,-5.1375369366724044e-05,0.0,0.0,0.0
1.8450657080393285e-05,-5.1320577767910436e-05,0.0,0.0,0.0
1.8451148207532242e-05,-5.1091887144139037e-05,0.0,0.0,0.0
1.8163700588047504e-05,-5.128440534463152e-05,0.0,0.0,0.0
1.8382848793407902e-05,-5.142504960531369e-05,0.0,0.0,0.0
1.8532591639086604e-05,-5.103490184410475e-05,0.0,0.0,0.0
1.840484401327558e-05,-5.0761751481331885e-05,0.0,0.0,0.0
1.8512180758989416e-05,-5.014772614231333e-05,0.0,0.0,0.0
1.8423672372591682e-05,-4.99804227729328e-05,0.0,0.0,0.0
1.8260952856508084e-05,-4.95869098813273e-05,0.0,0.0,0.0
1.830253859225195e-05,-4.926587644149549e-05,0.0,0.0,0.0
1.8309528968529776e-05,-4.9418245907872915e-05,0.0,0.0,0.0
1.8064396499539725e-05,-4.928750786348246e-05,0.0,0.0,0.0
1.83675092557678e-05,-4.901540887658484e-05,0.0,0.0,0.0
1.8439510313328356e-05,-4.8250491090584546e-05,0.0,0.0,0.0
1.847770545282401e-05,-4.8211426474153996e-05,0.0,0.0,0.0
1.8297912902198732e-05,-4.7997596993809566e-05,0.0,0.0,0.0
1.827426785894204e-05,-4.76845380035229e-05,0.0,0.0,0.0
1.846916347858496e-05,-4.752013410325162e-05,0.0,0.0,0.0
1.8580722098704427e-05,-4.7218036343110725e-05,0.0,0.0,0.0
1.8804357750923373e-05,-4.711546716862358e-05,0.0,0.0,0.0
1.857722418208141e-05,-4.7318269935203716e-05,0.0,0.0,0.0
1.817072188714519e-05,-4.754054680233821e-05,0.0,0.0,0.0
1.8001710486714728e-05,-4.795171116711572e-05,0.0,0.0,0.0
1.7927006410900503e-05,-4.79036862088833e-05,0.0,0.0,0.0
1.804774183256086e-05,-4.74692351417616e-05,0.0,0.0,0.0
1.825130129873287e-05,-4.804849959327839e-05,0.0,0.0,0.0
1.832758789532818e-05,-4.8706744564697146e-05,0.0,0.0,0.0
1.8210972484666854e-05,-4.8956924729282036e-05,0.0,0.0,0.0
1.7754529835656285e-05,-4.873281068284996e-05,0.0,0.0,0.0
1.8134107449441217e-05,-4.8630190576659516e-05,0.0,0.0,0.0
1.84116270247614e-05,-4.900024214293808e-05,0.0,0.0,0.0
1.8504833860788494e-05,-4.930091381538659e-05,0.0,0.0,0.0
1.843140307755675e-05,-4.9372636567568406e-05,0.0,0.0,0.0
1.8486971384845674e-05,-4.958428689860739e-05,0.0,0.0,0.0
1.8202807041234337e-05,-4.997225187253207e-05,0.0,0.0,0.0
1.8109256416209973e-05,-5.0246431783307344e-05,0.0,0.0,0.0
1.7924006897374056e-05,-5.082856660010293e-05,0.0,0.0,0.0
1.7963111531571485e-05,-5.083606447442435e-05,0.0,0.0,0.0
1.8184055079473183e-05,-5.0650894991122186e-05,0.0,0.0,0.0
1.8268930944032036e-05,-5.072587009635754e-05,0.0,0.0,0.0
1.8519085642765276e-05,-5.083991345600225e-05,0.0,0.0,0.0
1.8415152226225473e-05,-5.0721173465717584e-05,0.0,0.0,0.0
1.850484659371432e-05,-5.063461867393926e-05,0.0,0.0,0.0
1.842827805376146e-05,-5.076323577668518e-05,0.0,0.0,0.0
1.8492793969926424e-05,-5.019298623665236e-05,0.0,0.0,0.0
1.843929749156814e-05,-5.0041693612001836e-05,0.0,0.0,0.0
1.848276770033408e-05,-5.000269811716862e-05,0.0,0.0,0.0
1.8342021576245315e-05,-4.992354297428392e-05,0.0,0.0,0.0
1.8154265490011312e-05,-4.988423461327329e-05,0.0,0.0,0.0
1.819187673390843e-05,-5.005068669561297e-05,0.0,0.0,0.0
1.8382866983301938e-05,-4.945872206008062e-05,0.0,0.0,0.0
1.8096539861289784e-05,-4.912246367894113e-05,0.0,0.0,0.0
1.7897193174576387e-05,-4.881869244854897e-05,0.0,0.0,0.0
1.835974762798287e-05,-4.846890442422591e-05,0.0,0.0,0.0
1.824502214731183e-05,-4.814742715097964e-05,0.0,0.0,0.0
1.833337410062086e-05,-4.7539557272102684e-05,0.0,0.0,0.0
1.8258875570609234e-05,-4.746472404804081e-05,0.0,0.0,0.0
1.8020469724433497e-05,-4.72258216177579e-05,0.0,0.0,0.0
1.849009277066216e-05,-4.714346505352296e-05,0.0,0.0,0.0
1.8168431779486127e-05,-4.715832255897112e-05,0.0,0.0,0.0
1.7856655176728964e-05,-4.7450252168346196e-05,0.0,0.0,0.0
1.7780013877199963e-05,-4.724282553070225e-05,0.0,0.0,0.0
1.7562389984959736e-05,-4.740108852274716e-05,0.0,0.0,0.0
1.7657252101344056e-05,-4.7509420255664736e-05,0.0,0.0,0.0
1.782617619028315e-05,-4.814560816157609e-05,0.0,0.0,0.0
1.7971478882827796e-05,-4.814182102563791e-05,0.0,0.0,0.0
1.8154989447793923e-05,-4.7977246140362695e-05,0.0,0.0,0.0
1.8111284589394927e-05,-4.821872425964102e-05,0.0,0.0,0.0
1.8135007849195972e-05,-4.848159369430505e-05,0.0,0.0,0.0
1.8128015653928742e-05,-4.903322769678198e-05,0.0,0.0,0.0
1.8270131477038376e-05,-4.9161448259837925e-05,0.0,0.0,0.0
1.8196204109699465e-05,-4.905314926872961e-05,0.0,0.0,0.0
1.8044927855953574e-05,-4.8970174248097464e-05,0.0,0.0,0.0
1.845235237851739e-05,-4.917048499919474e-05,0.0,0.0,0.0
1.8575488866190426e-05,-4.950786751578562e-05,0.0,0.0,0.0
1.8495178665034473e-05,-5.0228904001414776e-05,0.0,0.0,0.0
1.802946462703403e-05,-5.0634098442969844e-05,0.0,0.0,0.0
1.836483170336578e-05,-5.0666869356064126e-05,0.0,0.0,0.0
1.854444417404011e-05,-5.0398663006490096e-05,0.0,0.0,0.0
1.8397853636997752e-05,-5.067991514806636e-05,0.0,0.0,0.0
1.8515449482947588e-05,-5.065627919975668e-05,0.0,0.0,0.0
1.8455044482834637e-05,-5.041521217208356e-05,0.0,0.0,0.0
1.876940041256603e-05,-5.0606315198820084e-05,0.0,0.0,0.0
1.851652814366389e-05,-5.044950739829801e-05,0.0,0.0,0.0
1.8414784790365957e-05,-5.027583392802626e-05,0.0,0.0,0.0
1.8507471395423636e-05,-5.041920667281374e-05,0.0,0.0,0.0
1.8423976143822074e-05,-5.003768455935642e-05,0.0,0.0,0.0
1.84982709470205e-05,-4.9768648750614375e-05,0.0,0.0,0.0
1.8433072909829207e-05,-4.916325633530505e-05,0.0,0.0,0.0
1.848937972681597e-05,-4.8977704864228144e-05,0.0,0.0,0.0
1.7995005691773258e-05,-4.9045389459934086e-05,0.0,0.0,0.0
1.7980128177441657e-05,-4.8979582061292604e-05,0.0,0.0,0.0
1.816670919652097e-05,-4.8437028453918174e-05,0.0,0.0,0.0
1.8286204067408107e-05,-4.773995897267014e-05,0.0,0.0,0.0
1.8321443349123e-05,-4.754159817821346e-05,0.0,0.0,0.0
1.8087710486724973e-05,-4.727880150312558e-05,0.0,0.0,0.0
1.8160337276640348e-05,-4.7221175918821245e-05,0.0,0.0,0.0
1.8250479115522467e-05,-4.695622919825837e-05,0.0,0.0,0.0
1.8481794541003183e-05,-4.689429988502525e-05,0.0,0.0,0.0
1.8322254618396983e-05,-4.6638921048725024e-05,0.0,0.0,0.0
1.826282277761493e-05,-4.6797220420558006e-05,0.0,0.0,0.0
1.8331560568185523e-05,-4.697211625170894e-05,0.0,0.0,0.0
1.8067212295136414e-05,-4.711345900432207e-05,0.0,0.0,0.0
1.77825986611424e-05,-4.729996362584643e-05,0.0,0.0,0.0
1.794682066247333e-05,-4.7434190491912887e-05,0.0,0.0,0.0
1.8346001525060274e-05,-4.7687899495940655e-05,0.0,0.0,0.0
1.8199967598775402e-05,-4.8118174163391814e-05,0.0,0.0,0.0
1.811116271710489e-05,-4.860958142671734e-05,0.0,0.0,0.0
1.8443637600285e-05,-4.8697838792577386e-05,0.0,0.0,0.0
1.8201688362751156e-05,-4.831623664358631e-05,0.0,0.0,0.0
1.868555773398839e-05,-4.804535274161026e-05,0.0,0.0,0.0
1.86108209163649e-05,-4.8548907216172665e-05,0.0,0.0,0.0
1.833712485677097e-05,-4.933277887175791e-05,0.0,0.0,0.0
1.8570352040114813e-05,-4.9606871471041813e-05,0.0,0.0,0.0
1.837414674810134e-05,-4.997337600798346e-05,0.0,0.0,0.0
1.8536653442424722e-05,-5.051563857705332e-05,0.0,0.0,0.0
1.84046493814094e-05,-5.0968399591511115e-05,0.0,0.0,0.0
1.8509213987272233e-05,-5.1019385864492506e-05,0.0,0.0,0.0
1.842916572059039e-05,-5.123884693603031e-05,0.0,0.0,0.0
1.8487480701878667e-05,-5.098120163893327e-05,0.0,0.0,0.0
1.8448263290338218e-05,-5.063655407866463e-05,0.0,0.0,0.0
1.8470869690645486e-05,-5.074000364402309e-05,0.0,0.0,0.0
1.8292379536433145e-05,-5.047523518442176e-05,0.0,0.0,0.0
1.8278036804986186e-05,-5.039080133428797e-05,0.0,0.0,0.0
1.8477441699360497e-05,-5.017334478907287e-05,0.0,0.0,0.0
1.8447044567437842e-05,-4.9911901442101225e-05,0.0,0.0,0.0
1.8609098333399743e-05,-4.953368625137955e-05,0.0,0.0,0.0
1.877123759186361e-05,-4.9375503294868395e-05,0.0,0.0,0.0
1.8720073057920672e-05,-4.9217564082937315e-05,0.0,0.0,0.0
1.8452412405167706e-05,-4.904719753540121e-05,0.0,0.0,0.0
1.847536077548284e-05,-4.8897582018980756e-05,0.0,0.0,0.0
1.8376545995124616e-05,-4.872210411122069e-05,0.0,0.0,0.0
1.82293606485473e-05,-4.857497333432548e-05,0.0,0.0,0.0
1.8454149540048093e-05,-4.829276440432295e-05,0.0,0.0,0.0
1.8736243873718195e-05,-4.772831380250864e-05,0.0,0.0,0.0
1.821091427700594e-05,-4.7888770495774224e-05,0.0,0.0,0.0
1.8381371774012223e-05,-4.743663521367125e-05,0.0,0.0,0.0
1.853262983786408e-05,-4.693181472248398e-05,0.0,0.0,0.0
1.8405657101538964e-05,-4.7055058530531824e-05,0.0,0.0,0.0
1.851100751082413e-05,-4.722497396869585e-05,0.0,0.0,0.0
1.8424809240968898e-05,-4.7413315769517794e-05,0.0,0.0,0.0
1.8494143660063855e-05,-4.7266497858799994e-05,0.0,0.0,0.0
1.843956306402106e-05,-4.738887582789175e-05,0.0,0.0,0.0
1.8481328879715875e-05,-4.7522495151497424e-05,0.0,0.0,0.0
1.7557269529788755e-05,-4.795263521373272e-05,0.0,0.0,0.0
1.7257179933949374e-05,-4.819104287889786e-05,0.0,0.0,0.0
1.794359923223965e-05,-4.8579604481346905e-05,0.0,0.0,0.0
1.827812593546696e-05,-4.8280540795531124e-05,0.0,0.0,0.0
1.8508764696889557e-05,-4.8351139412261546e-05,0.0,0.0,0.0
1.808609340514522e-05,-4.9048590881284326e-05,0.0,0.0,0.0
1.8131377146346495e-05,-4.932726369588636e-05,0.0,0.0,0.0
1.845048063842114e-05,-4.936756522511132e-05,0.0,0.0,0.0
1.8472845113137737e-05,-4.932852243655361e-05,0.0,0.0,0.0
1.84571290446911e-05,-4.962116145179607e-05,0.0,0.0,0.0
1.8466924302629195e-05,-4.998443546355702e-05,0.0,0.0,0.0
1.8355995052843355e-05,-5.026295912102796e-05,0.0,0.0,0.0
1.8142047338187695e-05,-5.063191201770678e-05,0.0,0.0,0.0
1.820244506234303e-05,-5.082647840026766e-05,0.0,0.0,0.0
1.844828511821106e-05,-5.0885904784081504e-05,0.0,0.0,0.0
1.8478311176295392e-05,-5.077176683698781e-05,0.0,0.0,0.0
1.839572905737441e-05,-5.062199124949984e-05,0.0,0.0,0.0
1.8173677744925953e-05,-5.0747254135785624e-05,0.0,0.0,0.0
1.811912443372421e-05,-5.064428842160851e-05,0.0,0.0,0.0
1.8460203136783093e-05,-5.0705824833130464e-05,0.0,0.0,0.0
1.8465509128873236e-05,-5.036862057750113e-05,0.0,0.0,0.0
1.846223858592566e-05,-5.033974230173044e-05,0.0,0.0,0.0
1.8463872038410045e-05,-5.009416418033652e-05,0.0,0.0,0.0
1.846351551648695e-05,-4.99648303957656e-05,0.0,0.0,0.0
1.8207678294857033e-05,-4.930167051497847e-05,0.0,0.0,0.0
1.834197246353142e-05,-4.863127469434403e-05,0.0,0.0,0.0
1.851621527748648e-05,-4.8997757403412834e-05,0.0,0.0,0.0
1.819669341784902e-05,-4.8739846533862874e-05,0.0,0.0,0.0
1.8141570762963966e-05,-4.826977601624094e-05,0.0,0.0,0.0
1.8117663785233162e-05,-4.7954592446330935e-05,0.0,0.0,0.0
1.832593625294976e-05,-4.766233905684203e-05,0.0,0.0,0.0
1.8651386199053377e-05,-4.70989070890937e-05,0.0,0.0,0.0
1.8629376427270472e-05,-4.7372035623993725e-05,0.0,0.0,0.0
1.8619544789544307e-05,-4.74939624837134e-05,0.0,0.0,0.0
1.8652641301741824e-05,-4.734190588351339e-05,0.0,0.0,0.0
1.8327084035263397e-05,-4.7329831431852654e-05,0.0,0.0,0.0
1.8129449017578736e-05,-4.7333105612779036e-05,0.0,0.0,0.0
1.812795380828902e-05,-4.745422484120354e-05,0.0,0.0,0.0
1.8019556591752917e-05,-4.7756988351466134e-05,0.0,0.0,0.0
1.79061262315372e-05,-4.810430982615799e-05,0.0,0.0,0.0
1.80919305421412e-05,-4.831584374187514e-05,0.0,0.0,0.0
1.8159411411033943e-05,-4.843887290917337e-05,0.0,0.0,0.0
1.8036116671282798e-05,-4.850061668548733e-05,0.0,0.0,0.0
1.7844748072093353e-05,-4.810511745745316e-05,0.0,0.0,0.0
1.7789629055187106e-05,-4.800323586096056e-05,0.0,0.0,0.0
1.816209260141477e-05,-4.867994721280411e-05,0.0,0.0,0.0
1.8423561414238065e-05,-4.867340248893015e-05,0.0,0.0,0.0
1.849625914474018e-05,-4.867833558819257e-05,0.0,0.0,0.0
1.8149799871025607e-05,-4.924934546579607e-05,0.0,0.0,0.0
1.8383874703431502e-05,-4.970672671333887e-05,0.0,0.0,0.0
1.8519891455071047e-05,-4.965295738657005e-05,0.0,0.0,0.0
1.815950236050412e-05,-5.021751348976977e-05,0.0,0.0,0.0
1.8382777852821164e-05,-5.039939787820913e-05,0.0,0.0,0.0
1.84820091817528e-05,-5.0549111620057374e-05,0.0,0.0,0.0
1.844835060182959e-05,-5.074996442999691e-05,0.0,0.0,0.0
1.847532439569477e-05,-5.042666452936828e-05,0.0,0.0,0.0
1.845432234404143e-05,-5.017834700993262e-05,0.0,0.0,0.0
1.8470029317541048e-05,-4.998274744139053e-05,0.0,0.0,0.0
1.8458973499946296e-05,-5.0410959374858066e-05,0.0,0.0,0.0
1.8806302250595763e-05,-5.051119296695106e-05,0.0,0.0,0.0
1.8823919162969105e-05,-5.0197944801766425e-05,0.0,0.0,0.0
1.8602269847178832e-05,-5.001580939278938e-05,0.0,0.0,0.0
1.8529062799643725e-05,-4.9883055908139795e-05,0.0,0.0,0.0
1.8260989236296155e-05,-4.94321902806405e-05,0.0,0.0,0.0
1.8449072740622796e-05,-4.91421997139696e-05,0.0,0.0,0.0
1.8476566765457392e-05,-4.921840809402056e-05,0.0,0.0,0.0
1.835568036767654e-05,-4.904648085357621e-05,0.0,0.0,0.0
1.824243736336939e-05,-4.89830672449898e-05,0.0,0.0,0.0
1.834105933085084e-05,-4.8961403081193566e-05,0.0,0.0,0.0
1.8258084310218692e-05,-4.855463339481503e-05,0.0,0.0,0.0
1.8324919437873177e-05,-4.800276656169444e-05,0.0,0.0,0.0
1.818918281060178e-05,-4.76588356832508e-05,0.0,0.0,0.0
1.7772057617548853e-05,-4.7676516260253266e-05,0.0,0.0,0.0
1.810986032069195e-05,-4.766447455040179e-05,0.0,0.0,0.0
1.783343032002449e-05,-4.767164864460938e-05,0.0,0.0,0.0
1.8041711882688105e-05,-4.738148709293455e-05,0.0,0.0,0.0
1.8202463252237067e-05,-4.7291377995861694e-05,0.0,0.0,0.0
1.8063345123664476e-05,-4.763599281432107e-05,0.0,0.0,0.0
1.818257078411989e-05,-4.792730396729894e-05,0.0,0.0,0.0
1.8081560483551584e-05,-4.803415868082084e-05,0.0,0.0,0.0
1.7931999536813237e-05,-4.7979949158616364e-05,0.0,0.0,0.0
1.7513111743028276e-05,-4.80258277093526e-05,0.0,0.0,0.0
1.769286609487608e-05,-4.8200283345067874e-05,0.0,0.0,0.0
1.7791870050132275e-05,-4.837239976041019e-05,0.0,0.0,0.0
1.7981501514441334e-05,-4.812341649085283e-05,0.0,0.0,0.0
1.814262395782862e-05,-4.8375546612078324e-05,0.0,0.0,0.0
1.828354288591072e-05,-4.8855967179406434e-05,0.0,0.0,0.0
1.848165993578732e-05,-4.900751082459465e-05,0.0,0.0,0.0
1.874463850981556e-05,-4.916579200653359e-05,0.0,0.0,0.0
1.8869068298954517e-05,-4.9478589062346146e-05,0.0,0.0,0.0
1.8464857930666767e-05,-4.968545908923261e-05,0.0,0.0,0.0
1.8344893760513514e-05,-4.9680646043270826e-05,0.0,0.0,0.0
1.8247748812427744e-05,-5.000565215595998e-05,0.0,0.0,0.0
1.834022805269342e-05,-5.054507710156031e-05,0.0,0.0,0.0
1.8255324903293513e-05,-5.041678741690703e-05,0.0,0.0,0.0
1.8404914953862317e-05,-5.022689947509207e-05,0.0,0.0,0.0
1.851319393608719e-05,-5.015374335926026e-05,0.0,0.0,0.0
1.8421549611957744e-05,-5.021308606956154e-05,0.0,0.0,0.0
1.8498150893719867e-05,-5.0125243433285505e-05,0.0,0.0,0.0
1.843508471210953e-05,-4.989878652850166e-05,0.0,0.0,0.0
1.8464768800185993e-05,-4.9773025239119306e-05,0.0,0.0,0.0
1.8152075426769443e-05,-4.9298974772682413e-05,0.0,0.0,0.0
1.839247124735266e-05,-4.967174754710868e-05,0.0,0.0,0.0
1.85249464266235e-05,-4.9144888180308044e-05,0.0,0.0,0.0
1.841056473494973e-05,-4.865377559326589e-05,0.0,0.0,0.0
1.8253069356433116e-05,-4.87233919557184e-05,0.0,0.0,0.0
1.8303582692169584e-05,-4.863351205131039e-05,0.0,0.0,0.0
1.8548151274444535e-05,-4.91827740916051e-05,0.0,0.0,0.0
1.8394002836430445e-05,-4.8915473598754033e-05,0.0,0.0,0.0
1.8519069271860644e-05,-4.819848254555836e-05,0.0,0.0,0.0
1.8217984688817523e-05,-4.780859671882354e-05,0.0,0.0,0.0
1.833711030485574e-05,-4.765235280501656e-05,0.0,0.0,0.0
1.846366467361804e-05,-4.7861401981208473e-05,0.0,0.0,0.0
1.845916085585486e-05,-4.7665620513726026e-05,0.0,0.0,0.0
1.8470980648999102e-05,-4.7320962039520964e-05,0.0,0.0,0.0
1.8602080672280863e-05,-4.734590766020119e-05,0.0,0.0,0.0
1.853282628871966e-05,-4.7459674533456564e-05,0.0,0.0,0.0
1.825429717428051e-05,-4.780291055794805e-05,0.0,0.0,0.0
1.845810766099021e-05,-4.8224137572105974e-05,0.0,0.0,0.0
1.8253027519676834e-05,-4.866548260906711e-05,0.0,0.0,0.0
1.7822876543505117e-05,-4.8685218644095585e-05,0.0,0.0,0.0
1.7763608411769383e-05,-4.866889139520936e-05,0.0,0.0,0.0
1.79668131750077e-05,-4.883128349320032e-05,0.0,0.0,0.0
1.8389409888186492e-05,-4.922815423924476e-05,0.0,0.0,0.0
1.852733112173155e-05,-4.9141108320327476e-05,0.0,0.0,0.0
1.8408878531772643e-05,-4.925159737467766e-05,0.0,0.0,0.0
1.850929402280599e-05,-4.9460188165539876e-05,0.0,0.0,0.0
1.842550227593165e-05,-4.955679105478339e-05,0.0,0.0,0.0
1.849405816756189e-05,-4.9476599087938666e-05,0.0,0.0,0.0
1.8726521375356242e-05,-4.981582969776355e-05,0.0,0.0,0.0
1.8581773474579677e-05,-5.0463484512874857e-05,0.0,0.0,0.0
1.8112719772034325e-05,-4.9990419938694686e-05,0.0,0.0,0.0
1.816102485463489e-05,-5.031639011576772e-05,0.0,0.0,0.0
1.8103937691194005e-05,-5.0602011469891295e-05,0.0,0.0,0.0
1.8377106243860908e-05,-5.04751515109092e-05,0.0,0.0,0.0
1.8479733626008965e-05,-5.009824235457927e-05,0.0,0.0,0.0
1.823232014430687e-05,-5.023132325732149e-05,0.0,0.0,0.0
1.8331867977394722e-05,-4.977386925020255e-05,0.0,0.0,0.0
1.84717482625274e-05,-4.965912376064807e-05,0.0,0.0,0.0
1.846097075031139e-05,-5.010685708839446e-05,0.0,0.0,0.0
1.8460947103449143e-05,-4.994139089831151e-05,0.0,0.0,0.0
1.846991290221922e-05,-4.9927577492780983e-05,0.0,0.0,0.0
1.8453711163601838e-05,-4.9474387196823955e-05,0.0,0.0,0.0
1.8475595425115898e-05,-4.940075086778961e-05,0.0,0.0,0.0
1.8449436538503505e-05,-4.917557453154586e-05,0.0,0.0,0.0
1.847860767156817e-05,-4.8940200940705836e-05,0.0,0.0,0.0
1.8234846720588394e-05,-4.865164009970613e-05,0.0,0.0,0.0
1.7838830899563618e-05,-4.86947683384642e-05,0.0,0.0,0.0
1.7749778635334224e-05,-4.866338349529542e-05,0.0,0.0,0.0
1.7904183550854214e-05,-4.838636232307181e-05,0.0,0.0,0.0
1.81329196493607e-05,-4.7431389248231426e-05,0.0,0.0,0.0
1.8485299733583815e-05,-4.719358912552707e-05,0.0,0.0,0.0
1.8444810848450288e-05,-4.710615030489862e-05,0.0,0.0,0.0
1.8478862330084667e-05,-4.693566734204069e-05,0.0,0.0,0.0
1.8408449250273407e-05,-4.7375786380143836e-05,0.0,0.0,0.0
1.7885429770103656e-05,-4.729727152152918e-05,0.0,0.0,0.0
1.8001261196332052e-05,-4.765130870509893e-05,0.0,0.0,0.0
1.8232578440802172e-05,-4.7684610763099045e-05,0.0,0.0,0.0
1.8042404917650856e-05,-4.7921868826961145e-05,0.0,0.0,0.0
1.819544195313938e-05,-4.856095620198175e-05,0.0,0.0,0.0
1.807570515666157e-05,-4.8700465413276106e-05,0.0,0.0,0.0
1.793183218978811e-05,-4.842173075303435e-05,0.0,0.0,0.0
1.8188366084359586e-05,-4.878005347563885e-05,0.0,0.0,0.0
1.832856833061669e-05,-4.884765803581104e-05,0.0,0.0,0.0
1.8254193491884507e-05,-4.902240834780969e-05,0.0,0.0,0.0
1.872427856142167e-05,-4.942425584886223e-05,0.0,0.0,0.0
1.8580654796096496e-05,-4.9285550630884245e-05,0.0,0.0,0.0
1.847741259553004e-05,-4.9567079258849844e-05,0.0,0.0,0.0
1.8461367290001363e-05,-4.9969141400652006e-05,0.0,0.0,0.0
1.860442353063263e-05,-5.0381488108541816e-05,0.0,0.0,0.0
1.8674751117941923e-05,-5.047504237154499e-05,0.0,0.0,0.0
1.8448441551299766e-05,-5.082315328763798e-05,0.0,0.0,0.0
1.8600958355818875e-05,-5.113513907417655e-05,0.0,0.0,0.0
1.8655997337191366e-05,-5.1351940783206373e-05,0.0,0.0,0.0
1.8516791897127405e-05,-5.137502739671618e-05,0.0,0.0,0.0
1.8411963537801057e-05,-5.134626553626731e-05,0.0,0.0,0.0
1.8512308088247664e-05,-5.1304778025951236e-05,0.0,0.0,0.0
1.8481427105143666e-05,-5.096920358482748e-05,0.0,0.0,0.0
1.8865943275159225e-05,-5.0663442380027846e-05,0.0,0.0,0.0
1.9003635316039436e-05,-5.031882756156847e-05,0.0,0.0,0.0
1.8575105059426278e-05,-5.005146158509888e-05,0.0,0.0,0.0
1.8367492884863168e-05,-4.992526373825967e-05,0.0,0.0,0.0
1.854458787420299e-05,-4.9165180826094e-05,0.0,0.0,0.0
1.839597462094389e-05,-4.888069452135824e-05,0.0,0.0,0.0
1.851816887210589e-05,-4.8846573918126523e-05,0.0,0.0,0.0
1.8420312699163333e-05,-4.9077651055995375e-05,0.0,0.0,0.0
1.8495913536753505e-05,-4.9013353418558836e-05,0.0,0.0,0.0
1.7951297195395455e-05,-4.84702322864905e-05,0.0,0.0,0.0
1.7984728401643224e-05,-4.884284135187045e-05,0.0,0.0,0.0
1.819171302486211e-05,-4.8545090976404026e-05,0.0,0.0,0.0
1.8069629732053727e-05,-4.835061190533452e-05,0.0,0.0,0.0
1.83823340194067e-05,-4.749311847263016e-05,0.0,0.0,0.0
1.8430573618388735e-05,-4.757307033287361e-05,0.0,0.0,0.0
1.8674740204005502e-05,-4.7834470024099573e-05,0.0,0.0,0.0
1.8438422557665035e-05,-4.8011970648076385e-05,0.0,0.0,0.0
1.829775828809943e-05,-4.801290560862981e-05,0.0,0.0,0.0
1.8453058146405965e-05,-4.813327905139886e-05,0.0,0.0,0.0
1.833671922213398e-05,-4.836903826799244e-05,0.0,0.0,0.0
1.8248345440952107e-05,-4.8176589189097285e-05,0.0,0.0,0.0
1.846280792960897e-05,-4.817288208869286e-05,0.0,0.0,0.0
1.846210943767801e-05,-4.8380887164967135e-05,0.0,0.0,0.0
1.8466242181602865e-05,-4.8822490498423576e-05,0.0,0.0,0.0
1.84594373422442e-05,-4.8941965360427275e-05,0.0,0.0,0.0
1.8468223061063327e-05,-4.907890979666263e-05,0.0,0.0,0.0
1.8458074919180945e-05,-4.894891026197001e-05,0.0,0.0,0.0
1.846903978730552e-05,-4.9123733333544806e-05,0.0,0.0,0.0
1.845773476816248e-05,-4.926211477140896e-05,0.0,0.0,0.0
1.8468970665708184e-05,-4.942307714372873e-05,0.0,0.0,0.0
1.8436883692629635e-05,-4.9282221880275756e-05,0.0,0.0,0.0
1.817448173824232e-05,-4.940349026583135e-05,0.0,0.0,0.0
1.8375036233919673e-05,-4.958825957146473e-05,0.0,0.0,0.0
1.7984888472710736e-05,-5.031522232457064e-05,0.0,0.0,0.0
1.7654698240221478e-05,-5.0898273912025616e-05,0.0,0.0,0.0
1.8415803424431942e-05,-5.1081944548059255e-05,0.0,0.0,0.0
1.81893992703408e-05,-5.098319525131956e-05,0.0,0.0,0.0
1.812031041481532e-05,-5.105752279632725e-05,0.0,0.0,0.0
1.8138374798581935e-05,-5.078193862573244e-05,0.0,0.0,0.0
1.8114391423296183e-05,-5.046819933340885e-05,0.0,0.0,0.0
1.8143166016670875e-05,-5.055315341451205e-05,0.0,0.0,0.0
1.8302078387932852e-05,-5.070171755505726e-05,0.0,0.0,0.0
1.8492839444661513e-05,-5.050692561781034e-05,0.0,0.0,0.0
1.8605451259645633e-05,-5.017219882574864e-05,0.0,0.0,0.0
1.851128035923466e-05,-5.003155820304528e-05,0.0,0.0,0.0
1.824550054152496e-05,-5.000190867576748e-05,0.0,0.0,0.0
1.8350710888626054e-05,-5.003994738217443e-05,0.0,0.0,0.0
1.823845195758622e-05,-4.986776548321359e-05,0.0,0.0,0.0
1.8469085262040608e-05,-4.971777889295481e-05,0.0,0.0,0.0
1.8458984413882717e-05,-4.943616295349784e-05,0.0,0.0,0.0
1.82752228283789e-05,-4.907674519927241e-05,0.0,0.0,0.0
1.7997450413531624e-05,-4.8867499572224915e-05,0.0,0.0,0.0
1.8314067347091623e-05,-4.875227023148909e-05,0.0,0.0,0.0
1.8281298252986744e-05,-4.860894841840491e-05,0.0,0.0,0.0
1.8358261513640173e-05,-4.8628953663865104e-05,0.0,0.0,0.0
1.8552274923422374e-05,-4.80602502648253e-05,0.0,0.0,0.0
1.8357361113885418e-05,-4.832653212361038e-05,0.0,0.0,0.0
1.8205992091679946e-05,-4.865531445830129e-05,0.0,0.0,0.0
1.7752076018950902e-05,-4.838245513383299e-05,0.0,0.0,0.0
1.7822572772274725e-05,-4.830513717024587e-05,0.0,0.0,0.0
1.7769689293345436e-05,-4.809347592527047e-05,0.0,0.0,0.0
1.7807209587772377e-05,-4.794336928171106e-05,0.0,0.0,0.0
1.8038199414149858e-05,-4.8565394536126405e-05,0.0,0.0,0.0
1.7673482943791896e-05,-4.894352605333552e-05,0.0,0.0,0.0
1.7609265341889113e-05,-4.9252063035964966e-05,0.0,0.0,0.0
1.7879936422104947e-05,-4.936979166814126e-05,0.0,0.0,0.0
1.8149099560105242e-05,-4.932638330501504e-05,0.0,0.0,0.0
1.8348137018620037e-05,-4.9368136387784034e-05,0.0,0.0,0.0
1.8238988559460267e-05,-4.95195017720107e-05,0.0,0.0,0.0
1.8352970073465258e-05,-4.989408262190409e-05,0.0,0.0,0.0
1.8580238247523084e-05,-4.999998418497853e-05,0.0,0.0,0.0
1.8868404367822222e-05,-5.0036891479976475e-05,0.0,0.0,0.0
1.842748315539211e-05,-5.0002516218228266e-05,0.0,0.0,0.0
1.8205617379862815e-05,-5.0310878577874973e-05,0.0,0.0,0.0
1.7926222426467575e-05,-5.0538001232780516e-05,0.0,0.0,0.0
1.8218635887023993e-05,-5.073683132650331e-05,0.0,0.0,0.0
1.8484864995116368e-05,-5.129814599058591e-05,0.0,0.0,0.0
1.833905844250694e-05,-5.141727888258174e-05,0.0,0.0,0.0
1.818040072976146e-05,-5.122906804899685e-05,0.0,0.0,0.0
1.8148479284718633e-05,-5.101436545373872e-05,0.0,0.0,0.0
1.8491582522983663e-05,-5.066289668320678e-05,0.0,0.0,0.0
1.8432701835990883e-05,-5.071293344371952e-05,0.0,0.0,0.0
1.8495471522328444e-05,-5.067263191449456e-05,0.0,0.0,0.0
1.839916512835771e-05,-5.0704136810963973e-05,0.0,0.0,0.0
1.8219339835923165e-05,-5.061671618022956e-05,0.0,0.0,0.0
1.8358374290983193e-05,-4.981576421414502e-05,0.0,0.0,0.0
1.8554759662947617e-05,-4.986029307474382e-05,0.0,0.0,0.0
1.8385133444098756e-05,-5.015038186684251e-05,0.0,0.0,0.0
1.8529348380980082e-05,-4.964659456163645e-05,0.0,0.0,0.0
1.8409085896564648e-05,-4.947822162648663e-05,0.0,0.0,0.0
1.8506938431528397e-05,-4.903575609205291e-05,0.0,0.0,0.0
1.842988422140479e-05,-4.9268150178249925e-05,0.0,0.0,0.0
1.8264468963025138e-05,-4.89137637487147e-05,0.0,0.0,0.0
1.809047353162896e-05,-4.861642810283229e-05,0.0,0.0,0.0
1.81538998731412e-05,-4.8732654249761254e-05,0.0,0.0,0.0
1.8111395547748543e-05,-4.8623598559061065e-05,0.0,0.0,0.0
1.8316140995011665e-05,-4.872510180575773e-05,0.0,0.0,0.0
1.8471233488526195e-05,-4.8631431127432734e-05,0.0,0.0,0.0
1.8291088053956628e-05,-4.8717090976424515e-05,0.0,0.0,0.0
1.814340430428274e-05,-4.863952563027851e-05,0.0,0.0,0.0
1.7970027329283766e-05,-4.870900011155754e-05,0.0,0.0,0.0
1.794740092009306e-05,-4.890276977675967e-05,0.0,0.0,0.0
1.808968409022782e-05,-4.9238125939155e-05,0.0,0.0,0.0
1.816550320654642e-05,-4.9018046411219984e-05,0.0,0.0,0.0
1.7899254089570604e-05,-4.900609201285988e-05,0.0,0.0,0.0
1.7784755982575007e-05,-4.901782449451275e-05,0.0,0.0,0.0
1.8182367057306692e-05,-4.8931622586678714e-05,0.0,0.0,0.0
1.8021997675532475e-05,-4.8707646783441305e-05,0.0,0.0,0.0
1.8009193809120916e-05,-4.8754856834420934e-05,0.0,0.0,0.0
1.8577504306449555e-05,-4.9350848712492734e-05,0.0,0.0,0.0
1.836803312471602e-05,-4.971258749719709e-05,0.0,0.0,0.0
1.849916225182824e-05,-5.000525925424881e-05,0.0,0.0,0.0
1.7813117665355094e-05,-5.034130299463868e-05,0.0,0.0,0.0
1.8056856788462028e-05,-5.0654951337492093e-05,0.0,0.0,0.0
1.8468565031071194e-05,-5.099546615383588e-05,0.0,0.0,0.0
1.844290818553418e-05,-5.1307619287399575e-05,0.0,0.0,0.0
1.8484524844097905e-05,-5.1381372031755745e-05,0.0,0.0,0.0
1.8197331883129664e-05,-5.1102797442581505e-05,0.0,0.0,0.0
1.835552575357724e-05,-5.100841372041032e-05,0.0,0.0,0.0
1.848944157245569e-05,-5.0596445362316445e-05,0.0,0.0,0.0
1.823278762458358e-05,-5.050909749115817e-05,0.0,0.0,0.0
1.8322811229154468e-05,-5.096056338516064e-05,0.0,0.0,0.0
1.8487909983377904e-05,-5.079182665213011e-05,0.0,0.0,0.0
1.8439075574860908e-05,-5.0353508413536474e-05,0.0,0.0,0.0
1.848731335485354e-05,-5.0153252232121304e-05,0.0,0.0,0.0
1.8440226995153353e-05,-5.006926949135959e-05,0.0,0.0,0.0
1.8485674445400946e-05,-4.965460175299086e-05,0.0,0.0,0.0
1.8442289729136974e-05,-4.970479858457111e-05,0.0,0.0,0.0
1.8355634892941453e-05,-4.9796057282947004e-05,0.0,0.0,0.0
1.811802212614566e-05,-4.966866981703788e-05,0.0,0.0,0.0
1.8243377780891024e-05,-4.915766476187855e-05,0.0,0.0,0.0
1.8343582269153558e-05,-4.9294845666736364e-05,0.0,0.0,0.0
1.8252714653499424e-05,-4.9226146074943244e-05,0.0,0.0,0.0
1.8407021343591623e-05,-4.867577808909118e-05,0.0,0.0,0.0
1.8575201465864666e-05,-4.855163206229918e-05,0.0,0.0,0.0
1.8730273950495757e-05,-4.816354703507386e-05,0.0,0.0,0.0
1.8771437680698e-05,-4.848514072364196e-05,0.0,0.0,0.0
1.811938636819832e-05,-4.8226651415461674e-05,0.0,0.0,0.0
1.7829612261266448e-05,-4.846851516049355e-05,0.0,0.0,0.0
1.8074117178912275e-05,-4.884774534730241e-05,0.0,0.0,0.0
1.8170769180869684e-05,-4.853731661569327e-05,0.0,0.0,0.0
1.8094124243361875e-05,-4.850982440984808e-05,0.0,0.0,0.0
1.7887019566842355e-05,-4.848419484915212e-05,0.0,0.0,0.0
1.799507299438119e-05,-4.880432607023977e-05,0.0,0.0,0.0
1.8443402950651944e-05,-4.882365828962065e-05,0.0,0.0,0.0
1.8436105165164918e-05,-4.911005453323014e-05,0.0,0.0,0.0
1.8257964256918058e-05,-4.871857527177781e-05,0.0,0.0,0.0
1.8309512597625144e-05,-4.9126385420095176e-05,0.0,0.0,0.0
1.8501623344491236e-05,-4.91736427647993e-05,0.0,0.0,0.0
1.8437351172906347e-05,-4.89614212710876e-05,0.0,0.0,0.0
1.8659824490896426e-05,-4.924676250084303e-05,0.0,0.0,0.0
1.8800270481733605e-05,-4.9299673264613375e-05,0.0,0.0,0.0
1.8632492356118746e-05,-4.971675662091002e-05,0.0,0.0,0.0
1.84740565600805e-05,-5.011971006751992e-05,0.0,0.0,0.0
1.83103620656766e-05,-5.053962013334967e-05,0.0,0.0,0.0
1.8151069525629282e-05,-5.051144398748875e-05,0.0,0.0,0.0
1.8219720004708506e-05,-5.041276745032519e-05,0.0,0.0,0.0
1.8370876205153763e-05,-5.0300768634770066e-05,0.0,0.0,0.0
1.812739901652094e-05,-5.030857937526889e-05,0.0,0.0,0.0
1.8216462194686756e-05,-4.999306474928744e-05,0.0,0.0,0.0
1.8584116332931444e-05,-4.9968293751589954e-05,0.0,0.0,0.0
1.9110917492071167e-05,-4.968774737790227e-05,0.0,0.0,0.0
1.915293250931427e-05,-4.973297836841084e-05,0.0,0.0,0.0
1.9121518562315032e-05,-5.003293335903436e-05,0.0,0.0,0.0
1.9080331185250543e-05,-5.031131149735302e-05,0.0,0.0,0.0
1.8534496120992117e-05,-5.0047412514686584e-05,0.0,0.0,0.0
1.8401586203253828e-05,-4.968181747244671e-05,0.0,0.0,0.0
1.8229367924504913e-05,-4.939885184285231e-05,0.0,0.0,0.0
1.8318258298677392e-05,-4.9026326450984925e-05,0.0,0.0,0.0
1.857271126937121e-05,-4.9279333325102925e-05,0.0,0.0,0.0
1.837357740441803e-05,-4.937933772453107e-05,0.0,0.0,0.0
1.8535620256443508e-05,-4.8833786422619596e-05,0.0,0.0,0.0
1.8641065253177658e-05,-4.817109220311977e-05,0.0,0.0,0.0
1.864238402049523e-05,-4.7766217903699726e-05,0.0,0.0,0.0
1.8392382116871886e-05,-4.744571560877375e-05,0.0,0.0,0.0
1.8516062482376583e-05,-4.732719753519632e-05,0.0,0.0,0.0
1.861838245531544e-05,-4.733610330731608e-05,0.0,0.0,0.0
1.865188460214995e-05,-4.75148408440873e-05,0.0,0.0,0.0
1.84361470019212e-05,-4.7503643145319074e-05,0.0,0.0,0.0
1.8317532521905378e-05,-4.764710320159793e-05,0.0,0.0,0.0
1.8571077816886827e-05,-4.8008667363319546e-05,0.0,0.0,0.0
1.870701089501381e-05,-4.786720091942698e-05,0.0,0.0,0.0
1.8292610548087396e-05,-4.792563049704768e-05,0.0,0.0,0.0
1.841291850723792e-05,-4.8208512453129515e-05,0.0,0.0,0.0
1.851587148848921e-05,-4.823952986043878e-05,0.0,0.0,0.0
1.8314463886781596e-05,-4.862966306973249e-05,0.0,0.0,0.0
1.8199389160145074e-05,-4.871332930633798e-05,0.0,0.0,0.0
1.81343548320001e-05,-4.857315798290074e-05,0.0,0.0,0.0
1.8501516024116427e-05,-4.8451125621795654e-05,0.0,0.0,0.0
1.847950989031233e-05,-4.866410017712042e-05,0.0,0.0,0.0
1.8717493730946444e-05,-4.898979386780411e-05,0.0,0.0,0.0
1.8192182324128225e-05,-4.876162711298093e-05,0.0,0.0,0.0
1.809701461752411e-05,-4.9269990995526314e-05,0.0,0.0,0.0
1.8462727894075215e-05,-4.9728405429050326e-05,0.0,0.0,0.0
1.81797040568199e-05,-4.993034963263199e-05,0.0,0.0,0.0
1.7804793969844468e-05,-5.009557571611367e-05,0.0,0.0,0.0
1.832683483371511e-05,-4.9953931011259556e-05,0.0,0.0,0.0
1.8783737687044777e-05,-5.007370054954663e-05,0.0,0.0,0.0
1.8532227841205895e-05,-5.021871402277611e-05,0.0,0.0,0.0
1.892088221211452e-05,-5.041868644184433e-05,0.0,0.0,0.0
1.9193657863070257e-05,-5.008021980756894e-05,0.0,0.0,0.0
1.865974445536267e-05,-5.003768455935642e-05,0.0,0.0,0.0
1.8468834241502918e-05,-4.9805024900706485e-05,0.0,0.0,0.0
1.8459797502146102e-05,-4.948357673129067e-05,0.0,0.0,0.0
1.846524355642032e-05,-4.9528163799550384e-05,0.0,0.0,0.0
1.8463335436536e-05,-4.951731170876883e-05,0.0,0.0,0.0
1.8461834770278074e-05,-4.902491855318658e-05,0.0,0.0,0.0
1.8466551409801468e-05,-4.882124994765036e-05,0.0,0.0,0.0
1.8320610251976177e-05,-4.9017256969818845e-05,0.0,0.0,0.0
1.826655716286041e-05,-4.887620889348909e-05,0.0,0.0,0.0
1.8325999917578883e-05,-4.86954340885859e-05,0.0,0.0,0.0
1.8265760445501655e-05,-4.855018050875515e-05,0.0,0.0,0.0
1.8323136828257702e-05,-4.8280176997650415e-05,0.0,0.0,0.0
1.818637792894151e-05,-4.782045289175585e-05,0.0,0.0,0.0
1.8076083506457508e-05,-4.746645572595298e-05,0.0,0.0,0.0
1.8236649339087307e-05,-4.759192597703077e-05,0.0,0.0,0.0
1.8342503608437255e-05,-4.768321377923712e-05,0.0,0.0,0.0
1.8260092474520206e-05,-4.7350167733384296e-05,0.0,0.0,0.0
1.8320253730053082e-05,-4.768778308061883e-05,0.0,0.0,0.0
1.82383391802432e-05,-4.795663699042052e-05,0.0,0.0,0.0
1.7724212739267386e-05,-4.773360342369415e-05,0.0,0.0,0.0
1.755909397616051e-05,-4.732821980724111e-05,0.0,0.0,0.0
1.7926176951732486e-05,-4.8442580009577796e-05,0.0,0.0,0.0
1.8002976503339596e-05,-4.882626672042534e-05,0.0,0.0,0.0
1.764453736541327e-05,-4.8549471102887765e-05,0.0,0.0,0.0
1.8153363271267153e-05,-4.90267739223782e-05,0.0,0.0,0.0
1.7832084267865866e-05,-4.871870260103606e-05,0.0,0.0,0.0
1.7809850760386325e-05,-4.8699002945795655e-05,0.0,0.0,0.0
1.799951132852584e-05,-4.8872803745325655e-05,0.0,0.0,0.0
1.7938073142431676e-05,-4.904035813524388e-05,0.0,0.0,0.0
1.796837204892654e-05,-4.880004780716263e-05,0.0,0.0,0.0
1.814157803892158e-05,-4.9221165681956336e-05,0.0,0.0,0.0
1.8126200302504003e-05,-4.9878439313033596e-05,0.0,0.0,0.0
1.795950265659485e-05,-5.015967690269463e-05,0.0,0.0,0.0
1.810550929803867e-05,-5.052320193499327e-05,0.0,0.0,0.0
1.8298356735613197e-05,-5.053187851444818e-05,0.0,0.0,0.0
1.7909795133164153e-05,-5.02513867104426e-05,0.0,0.0,0.0
1.7784395822673105e-05,-5.000577220926061e-05,0.0,0.0,0.0
1.8347824152442627e-05,-5.003127080271952e-05,0.0,0.0,0.0
1.8144628484151326e-05,-5.000806413590908e-05,0.0,0.0,0.0
1.8119111700798385e-05,-5.002883335691877e-05,0.0,0.0,0.0
1.805517968023196e-05,-5.001059253118001e-05,0.0,0.0,0.0
1.7948315871763043e-05,-5.002626494388096e-05,0.0,0.0,0.0
1.8483600797480904e-05,-4.995997733203694e-05,0.0,0.0,0.0
1.9062807041336782e-05,-4.967747372575104e-05,0.0,0.0,0.0
1.8488346540834755e-05,-4.938424899592064e-05,0.0,0.0,0.0
1.809892819437664e-05,-4.959741636412218e-05,0.0,0.0,0.0
1.7838174244388938e-05,-4.913348675472662e-05,0.0,0.0,0.0
1.7754729924490675e-05,-4.9195659812539816e-05,0.0,0.0,0.0
1.8098269720212556e-05,-4.9199352361029014e-05,0.0,0.0,0.0
1.8407970856060274e-05,-4.886756869382225e-05,0.0,0.0,0.0
1.7973939975490794e-05,-4.887555041932501e-05,0.0,0.0,0.0
1.7713249690132216e-05,-4.830468606087379e-05,0.0,0.0,0.0
1.8090699086315e-05,-4.864813308813609e-05,0.0,0.0,0.0
1.8099812223226763e-05,-4.842191265197471e-05,0.0,0.0,0.0
1.8361710317549296e-05,-4.770067607751116e-05,0.0,0.0,0.0
1.8263477613800205e-05,-4.7692305088276044e-05,0.0,0.0,0.0
1.8300926967640407e-05,-4.8064772272482514e-05,0.0,0.0,0.0
1.849134969234001e-05,-4.796254143002443e-05,0.0,0.0,0.0
1.8098855434800498e-05,-4.803207048098557e-05,0.0,0.0,0.0
1.7963076970772818e-05,-4.830968828173354e-05,0.0,0.0,0.0
1.797004915715661e-05,-4.883098881691694e-05,0.0,0.0,0.0
1.7940010366146453e-05,-4.887573595624417e-05,0.0,0.0,0.0
1.811385664041154e-05,-4.867149255005643e-05,0.0,0.0,0.0
1.8022663425654173e-05,-4.880518827121705e-05,0.0,0.0,0.0
1.7794023733586073e-05,-4.898241240880452e-05,0.0,0.0,0.0
1.7694139387458563e-05,-4.89483900310006e-05,0.0,0.0,0.0
1.773262192727998e-05,-4.866136077907868e-05,0.0,0.0,0.0
1.8378832464804873e-05,-4.876889943261631e-05,0.0,0.0,0.0
1.8536024072091095e-05,-4.890248237643391e-05,0.0,0.0,0.0
1.8348500816500746e-05,-4.8801266530063e-05,0.0,0.0,0.0
1.8211598217021674e-05,-4.8958027036860585e-05,0.0,0.0,0.0
1.8057511624647304e-05,-4.9428726924816146e-05,0.0,0.0,0.0
1.8164346329285763e-05,-4.962303501088172e-05,0.0,0.0,0.0
1.77870606421493e-05,-5.004685226595029e-05,0.0,0.0,0.0
1.8367869415669702e-05,-5.0283193559153005e-05,0.0,0.0,0.0
1.8270362488692626e-05,-5.0414262659614906e-05,0.0,0.0,0.0
1.828355925681535e-05,-5.030645843362436e-05,0.0,0.0,0.0
1.8336100765736774e-05,-5.013757981942035e-05,0.0,0.0,0.0
1.823407546908129e-05,-4.995926428819075e-05,0.0,0.0,0.0
1.8605447621666826e-05,-5.006523133488372e-05,0.0,0.0,0.0
1.834767135733273e-05,-5.0208491302328184e-05,0.0,0.0,0.0
1.876831811387092e-05,-5.018625597585924e-05,0.0,0.0,0.0
1.8543636542744935e-05,-4.9768186727305874e-05,0.0,0.0,0.0
1.8486898625269532e-05,-4.9894428229890764e-05,0.0,0.0,0.0
1.8450802599545568e-05,-4.984014231013134e-05,0.0,0.0,0.0
1.8466766050551087e-05,-4.949668436893262e-05,0.0,0.0,0.0
1.8308326616534032e-05,-4.904472370981239e-05,0.0,0.0,0.0
1.8264523532707244e-05,-4.8653546400601044e-05,0.0,0.0,0.0
1.8478129277355038e-05,-4.8701331252232194e-05,0.0,0.0,0.0
1.8444998204358853e-05,-4.8649679229129106e-05,0.0,0.0,0.0
1.8484570318832994e-05,-4.858675674768165e-05,0.0,0.0,0.0
1.8334054402657785e-05,-4.832491322304122e-05,0.0,0.0,0.0
1.826289008022286e-05,-4.8261914344038814e-05,0.0,0.0,0.0
1.832199086493347e-05,-4.800575698027387e-05,0.0,0.0,0.0
1.827559754019603e-05,-4.800696115125902e-05,0.0,0.0,0.0
1.8436709069646895e-05,-4.806437937077135e-05,0.0,0.0,0.0
1.868973959062714e-05,-4.8371042794315144e-05,0.0,0.0,0.0
1.788703775673639e-05,-4.866166636929847e-05,0.0,0.0,0.0
1.80161114258226e-05,-4.8690548283047974e-05,0.0,0.0,0.0
1.787663859431632e-05,-4.862015339313075e-05,0.0,0.0,0.0
1.7409240172128193e-05,-4.8101348511409014e-05,0.0,0.0,0.0
1.7207641576533206e-05,-4.8496720410184935e-05,0.0,0.0,0.0
1.7601596482563764e-05,-4.9104408390121534e-05,0.0,0.0,0.0
1.766044442774728e-05,-4.892363358521834e-05,0.0,0.0,0.0
1.782223080226686e-05,-4.9083391786552966e-05,0.0,0.0,0.0
1.855192385846749e-05,-4.871125565841794e-05,0.0,0.0,0.0
1.8346121578360908e-05,-4.8924852308118716e-05,0.0,0.0,0.0
1.8554768757894635e-05,-4.9029389629140496e-05,0.0,0.0,0.0
1.8394825019640848e-05,-4.89921476400923e-05,0.0,0.0,0.0
1.8310145605937578e-05,-4.94378327857703e-05,0.0,0.0,0.0
1.80814658961026e-05,-4.9689278966980055e-05,0.0,0.0,0.0
1.8337676010560244e-05,-4.986432031728327e-05,0.0,0.0,0.0
1.828647691581864e-05,-5.0021692004520446e-05,0.0,0.0,0.0
1.795977914298419e-05,-5.034121932112612e-05,0.0,0.0,0.0
1.8104636183124967e-05,-5.068510654382408e-05,0.0,0.0,0.0
1.8161505067837425e-05,-5.0700557039817795e-05,0.0,0.0,0.0
1.8088112483383156e-05,-5.0421367632225156e-05,0.0,0.0,0.0
1.8403119611321017e-05,-5.017026705900207e-05,0.0,0.0,0.0
1.8522265236242674e-05,-5.020232856622897e-05,0.0,0.0,0.0
1.8406846720608883e-05,-5.007817890145816e-05,0.0,0.0,0.0
1.851702472777106e-05,-5.004989725421183e-05,0.0,0.0,0.0
1.8413325960864313e-05,-5.030768443248235e-05,0.0,0.0,0.0
1.850956141424831e-05,-4.9891063099494204e-05,0.0,0.0,0.0
1.8474711396265775e-05,-4.935405377182178e-05,0.0,0.0,0.0
1.876201895356644e-05,-4.899166015093215e-05,0.0,0.0,0.0
1.8461107174516656e-05,-4.899827763438225e-05,0.0,0.0,0.0
1.8141843611374497e-05,-4.8698879254516214e-05,0.0,0.0,0.0
1.8115242710337043e-05,-4.865731534664519e-05,0.0,0.0,0.0
1.8425460439175367e-05,-4.897930921288207e-05,0.0,0.0,0.0
1.8219407138531096e-05,-4.9316258809994906e-05,0.0,0.0,0.0
1.832801353884861e-05,-4.883055225946009e-05,0.0,0.0,0.0
1.855318623711355e-05,-4.859468754148111e-05,0.0,0.0,0.0
1.838840398704633e-05,-4.8255635192617774e-05,0.0,0.0,0.0
1.8759308659355156e-05,-4.7658391849836335e-05,0.0,0.0,0.0
1.832655652833637e-05,-4.7737561544636264e-05,0.0,0.0,0.0
1.831799090723507e-05,-4.782690302818082e-05,0.0,0.0,0.0
1.8299515431863256e-05,-4.806588913197629e-05,0.0,0.0,0.0
1.827171945478767e-05,-4.795731001649983e-05,0.0,0.0,0.0
1.8514518160372972e-05,-4.804069612873718e-05,0.0,0.0,0.0
1.8251139408675954e-05,-4.831960177398287e-05,0.0,0.0,0.0
1.7997552276938222e-05,-4.838316817767918e-05,0.0,0.0,0.0
1.7916769138537347e-05,-4.813476698473096e-05,0.0,0.0,0.0
1.8281769371242262e-05,-4.834863284486346e-05,0.0,0.0,0.0
1.8575328795122914e-05,-4.846752199227922e-05,0.0,0.0,0.0
1.868368599389214e-05,-4.8662175686331466e-05,0.0,0.0,0.0
1.8371163605479524e-05,-4.8694124416215345e-05,0.0,0.0,0.0
1.812759910535533e-05,-4.875138620263897e-05,0.0,0.0,0.0
1.8216112948721275e-05,-4.8930720367934555e-05,0.0,0.0,0.0
1.8584343706606887e-05,-4.869060285273008e-05,0.0,0.0,0.0
1.911102117446717e-05,-4.87319593958091e-05,0.0,0.0,0.0
1.9045992303290404e-05,-4.903955777990632e-05,0.0,0.0,0.0
1.8515227566240355e-05,-4.934109529131092e-05,0.0,0.0,0.0
1.8384742361376993e-05,-4.935012839268893e-05,0.0,0.0,0.0
1.8208213077741675e-05,-4.939103382639587e-05,0.0,0.0,0.0
1.8057804481941275e-05,-4.9931903049582615e-05,0.0,0.0,0.0
1.7900651073432527e-05,-4.980810626875609e-05,0.0,0.0,0.0
1.7976479284698144e-05,-4.9576497985981405e-05,0.0,0.0,0.0
1.8508226276026107e-05,-4.950786387780681e-05,0.0,0.0,0.0
1.8658511180547066e-05,-4.974854164174758e-05,0.0,0.0,0.0
1.8633372746990062e-05,-4.9926700739888474e-05,0.0,0.0,0.0
1.8373077182332054e-05,-4.929755596094765e-05,0.0,0.0,0.0
1.8534505215939134e-05,-4.9445003241999075e-05,0.0,0.0,0.0
1.84094715223182e-05,-4.927311965730041e-05,0.0,0.0,0.0
1.8502218154026195e-05,-4.9402035074308515e-05,0.0,0.0,0.0
1.8629305486683734e-05,-4.892822471447289e-05,0.0,0.0,0.0
1.9005157810170203e-05,-4.8855814384296536e-05,0.0,0.0,0.0
1.8959148292196915e-05,-4.9030353693524376e-05,0.0,0.0,0.0
1.863192483142484e-05,-4.898746556136757e-05,0.0,0.0,0.0
1.847602288762573e-05,-4.904130400973372e-05,0.0,0.0,0.0
1.8445429304847494e-05,-4.884079680778086e-05,0.0,0.0,0.0
1.8613218344398774e-05,-4.8717105528339744e-05,0.0,0.0,0.0
1.8882081349147484e-05,-4.840059409616515e-05,0.0,0.0,0.0
1.894510023703333e-05,-4.807073491974734e-05,0.0,0.0,0.0
1.8469247152097523e-05,-4.794305641553365e-05,0.0,0.0,0.0
1.8463068045093678e-05,-4.806233846466057e-05,0.0,0.0,0.0
1.8459390048519708e-05,-4.780317976837978e-05,0.0,0.0,0.0
1.8534639821154997e-05,-4.755973714054562e-05,0.0,0.0,0.0
1.8813734641298652e-05,-4.791464743902907e-05,0.0,0.0,0.0
1.9053750293096527e-05,-4.838903259951621e-05,0.0,0.0,0.0
1.852798231993802e-05,-4.799522503162734e-05,0.0,0.0,0.0
1.8368364180787466e-05,-4.835705112782307e-05,0.0,0.0,0.0
1.7917875084094703e-05,-4.864051879849285e-05,0.0,0.0,0.0
1.711379263724666e-05,-4.87042598251719e-05,0.0,0.0,0.0
1.7676005882094614e-05,-4.865544906351715e-05,0.0,0.0,0.0
1.8400454791844822e-05,-4.8690599214751273e-05,0.0,0.0,0.0
1.8210137568530627e-05,-4.8667832743376493e-05,0.0,0.0,0.0
1.8096829080604948e-05,-4.892408833256923e-05,0.0,0.0,0.0
1.815180803532712e-05,-4.9041187594411895e-05,0.0,0.0,0.0
1.833273927331902e-05,-4.876009188592434e-05,0.0,0.0,0.0
1.849802356446162e-05,-4.868289397563785e-05,0.0,0.0,0.0
1.8436463506077416e-05,-4.907108086626977e-05,0.0,0.0,0.0
1.8292383174411952e-05,-4.977111893822439e-05,0.0,0.0,0.0
1.828248605306726e-05,-4.964264007867314e-05,0.0,0.0,0.0
1.8490620277589187e-05,-4.968788562109694e-05,0.0,0.0,0.0
1.8124355847248808e-05,-5.002482430427335e-05,0.0,0.0,0.0
1.8101214664056897e-05,-4.972034730599262e-05,0.0,0.0,0.0
1.8313841792405583e-05,-4.948702553519979e-05,0.0,0.0,0.0
1.8268390704179183e-05,-4.955271288054064e-05,0.0,0.0,0.0
1.8445261957822368e-05,-4.9473012040834874e-05,0.0,0.0,0.0
1.84774435183499e-05,-4.977324715582654e-05,0.0,0.0,0.0
1.8452868971507996e-05,-5.001528552384116e-05,0.0,0.0,0.0
1.8641227143234573e-05,-4.993972834199667e-05,0.0,0.0,0.0
1.893665648822207e-05,-4.962374805472791e-05,0.0,0.0,0.0
1.8554892449174076e-05,-4.9298621888738126e-05,0.0,0.0,0.0
1.8386945157544687e-05,-4.897290273220278e-05,0.0,0.0,0.0
1.8526488929637708e-05,-4.8740494094090536e-05,0.0,0.0,0.0
1.838034950196743e-05,-4.898857878288254e-05,0.0,0.0,0.0
1.820695797505323e-05,-4.9314709031023085e-05,0.0,0.0,0.0
1.806360342015978e-05,-4.875137165072374e-05,0.0,0.0,0.0
1.7891301467898302e-05,-4.890022682957351e-05,0.0,0.0,0.0
1.7988490071729757e-05,-4.882913708570413e-05,0.0,0.0,0.0
1.8228467524750158e-05,-4.802930197911337e-05,0.0,0.0,0.0
1.804820931283757e-05,-4.77753346785903e-05,0.0,0.0,0.0
1.8433112927596085e-05,-4.76193345093634e-05,0.0,0.0,0.0
1.821281693992205e-05,-4.770788655150682e-05,0.0,0.0,0.0
1.8110360542777926e-05,-4.76402128697373e-05,0.0,0.0,0.0
1.7936188669409603e-05,-4.7689751227153465e-05,0.0,0.0,0.0
1.795227399270516e-05,-4.785788041772321e-05,0.0,0.0,0.0
1.8374284991296008e-05,-4.802668627235107e-05,0.0,0.0,0.0
1.824291393859312e-05,-4.8352292651543394e-05,0.0,0.0,0.0
1.815719951991923e-05,-4.869977419730276e-05,0.0,0.0,0.0
1.793985029507894e-05,-4.8661149776307866e-05,0.0,0.0,0.0
1.8115380953531712e-05,-4.868434552918188e-05,0.0,0.0,0.0
1.8296801499673165e-05,-4.881235145148821e-05,0.0,0.0,0.0
1.828725180530455e-05,-4.887633622274734e-05,0.0,0.0,0.0
1.830850487749558e-05,-4.869624899583869e-05,0.0,0.0,0.0
1.8067350538331084e-05,-4.865505616180599e-05,0.0,0.0,0.0
1.7767037206795067e-05,-4.869812255492434e-05,0.0,0.0,0.0
1.7983918951358646e-05,-4.873945363215171e-05,0.0,0.0,0.0
1.840087497839704e-05,-4.901147622149438e-05,0.0,0.0,0.0
1.851634260674473e-05,-4.894622543361038e-05,0.0,0.0,0.0
1.8419399566482753e-05,-4.8815036279847845e-05,0.0,0.0,0.0
1.845669794420246e-05,-4.933945820084773e-05,0.0,0.0,0.0
1.8102762624039315e-05,-4.996523421141319e-05,0.0,0.0,0.0
1.7822238078224473e-05,-4.943734165863134e-05,0.0,0.0,0.0
1.776893623173237e-05,-4.958355566486716e-05,0.0,0.0,0.0
1.8095848645316437e-05,-5.0054590246872976e-05,0.0,0.0,0.0
1.8434293451718986e-05,-4.971363887307234e-05,0.0,0.0,0.0
1.8472901501809247e-05,-4.9668815336190164e-05,0.0,0.0,0.0
1.8203159925178625e-05,-4.969663132214919e-05,0.0,0.0,0.0
1.8097762222168967e-05,-4.9916117859538645e-05,0.0,0.0,0.0
1.8623688447405584e-05,-4.958934005117044e-05,0.0,0.0,0.0
1.8598655515233986e-05,-4.926665860693902e-05,0.0,0.0,0.0
1.8638391338754445e-05,-4.9414742534281686e-05,0.0,0.0,0.0
1.8643529983819462e-05,-4.8889141908148304e-05,0.0,0.0,0.0
1.8413446014164947e-05,-4.9073096306528896e-05,0.0,0.0,0.0
1.868197796284221e-05,-4.918042759527452e-05,0.0,0.0,0.0
1.860972770373337e-05,-4.881997301708907e-05,0.0,0.0,0.0
1.831084955483675e-05,-4.8851838073460385e-05,0.0,0.0,0.0
1.8273973182658665e-05,-4.8848585720406845e-05,0.0,0.0,0.0
1.832068846852053e-05,-4.869289477937855e-05,0.0,0.0,0.0
1.8269201973453164e-05,-4.8532270739087835e-05,0.0,0.0,0.0
1.855530899774749e-05,-4.824832285521552e-05,0.0,0.0,0.0
1.8706443370319903e-05,-4.799387534148991e-05,0.0,0.0,0.0
1.8463375454302877e-05,-4.811156395589933e-05,0.0,0.0,0.0
1.829658867791295e-05,-4.822607297683135e-05,0.0,0.0,0.0
1.7904594642459415e-05,-4.7978785005398095e-05,0.0,0.0,0.0
1.8072641978506e-05,-4.771619205712341e-05,0.0,0.0,0.0
1.8171815099776722e-05,-4.804420314030722e-05,0.0,0.0,0.0
1.8093174730893224e-05,-4.83626572531648e-05,0.0,0.0,0.0
1.8122103938367218e-05,-4.865866867476143e-05,0.0,0.0,0.0
1.7811384168453515e-05,-4.869116310146637e-05,0.0,0.0,0.0
1.7772576029528864e-05,-4.866378731094301e-05,0.0,0.0,0.0
1.7811102225095965e-05,-4.8973826778819785e-05,0.0,0.0,0.0
1.7773660147213377e-05,-4.8767953558126464e-05,0.0,0.0,0.0
1.7543479771120474e-05,-4.861126217292622e-05,0.0,0.0,0.0
1.7916287106345408e-05,-4.8730264097684994e-05,0.0,0.0,0.0
1.8233293303637765e-05,-4.8632293328410015e-05,0.0,0.0,0.0
1.780530328687746e-05,-4.894523590337485e-05,0.0,0.0,0.0
1.80636652657995e-05,-4.900951898889616e-05,0.0,0.0,0.0
1.811064430512488e-05,-4.901143256574869e-05,0.0,0.0,0.0
1.8139293388230726e-05,-4.921714935335331e-05,0.0,0.0,0.0
1.8121052562491968e-05,-4.935694596497342e-05,0.0,0.0,0.0
1.7949249013327062e-05,-4.970430018147454e-05,0.0,0.0,0.0
1.8125914721167646e-05,-4.986595376976766e-05,0.0,0.0,0.0
1.815516225178726e-05,-4.98273984703701e-05,0.0,0.0,0.0
1.8082544556818902e-05,-4.988070941180922e-05,0.0,0.0,0.0
1.8460455976310186e-05,-4.968067878508009e-05,0.0,0.0,0.0
1.8471340808901004e-05,-4.955368422088213e-05,0.0,0.0,0.0
1.8451406504027545e-05,-4.9479378503747284e-05,0.0,0.0,0.0
1.858505311247427e-05,-4.954824544256553e-05,0.0,0.0,0.0
1.867022911028471e-05,-4.93915613333229e-05,0.0,0.0,0.0
1.8514914700062945e-05,-4.930664363200776e-05,0.0,0.0,0.0
1.84154232556466e-05,-4.9385711463401094e-05,0.0,0.0,0.0
1.850778062362224e-05,-4.918513150187209e-05,0.0,0.0,0.0
1.847593921411317e-05,-4.8818488721735775e-05,0.0,0.0,0.0
1.8761515093501657e-05,-4.8902798880590126e-05,0.0,0.0,0.0
1.8460774299455807e-05,-4.910531060886569e-05,0.0,0.0,0.0
1.812181290006265e-05,-4.8933245125226676e-05,0.0,0.0,0.0
1.781929131539073e-05,-4.907732363790274e-05,0.0,0.0,0.0
1.8344499039812945e-05,-4.8384550609625876e-05,0.0,0.0,0.0
1.8562694094725884e-05,-4.857701787841506e-05,0.0,0.0,0.0
1.8381671907263808e-05,-4.8750502173788846e-05,0.0,0.0,0.0
1.8529601220507175e-05,-4.810117752640508e-05,0.0,0.0,0.0
1.8410957636660896e-05,-4.7998535592341796e-05,0.0,0.0,0.0
1.8503858882468194e-05,-4.800877650268376e-05,0.0,0.0,0.0
1.8210084817837924e-05,-4.8226502258330584e-05,0.0,0.0,0.0
1.8127570001524873e-05,-4.8574238462606445e-05,0.0,0.0,0.0
1.8131906472262926e-05,-4.8678426537662745e-05,0.0,0.0,0.0
1.831177360145375e-05,-4.867256575380452e-05,0.0,0.0,0.0
1.848440479079727e-05,-4.868129326496273e-05,0.0,0.0,0.0
1.844271901063621e-05,-4.8670219257473946e-05,0.0,0.0,0.0
1.8483438907423988e-05,-4.868314499617554e-05,0.0,0.0,0.0
1.8444394299876876e-05,-4.8668829549569637e-05,0.0,0.0,0.0
1.848118336056359e-05,-4.8684116336517036e-05,0.0,0.0,0.0
1.844711005105637e-05,-4.8795860493555665e-05,0.0,0.0,0.0
1.8478116544429213e-05,-4.901133070234209e-05,0.0,0.0,0.0
1.8450427887728438e-05,-4.89052472403273e-05,0.0,0.0,0.0
1.847463681770023e-05,-4.8788544518174604e-05,0.0,0.0,0.0
1.845398946898058e-05,-4.8893256462179124e-05,0.0,0.0,0.0
1.8471067960490473e-05,-4.872762656304985e-05,0.0,0.0,0.0
1.845750375650823e-05,-4.875982631347142e-05,0.0,0.0,0.0
1.846766099333763e-05,-4.9327769374940544e-05,0.0,0.0,0.0
1.8418215404381044e-05,-4.940765575156547e-05,0.0,0.0,0.0
1.816418080125004e-05,-4.966476990375668e-05,0.0,0.0,0.0
1.8119246306014247e-05,-5.002364196116105e-05,0.0,0.0,0.0
1.8445143723511137e-05,-5.001524186809547e-05,0.0,0.0,0.0
1.790647547750268e-05,-5.0022292271023616e-05,0.0,0.0,0.0
1.796994729375001e-05,-4.946334956912324e-05,0.0,0.0,0.0
1.851545130193699e-05,-4.9540321924723685e-05,0.0,0.0,0.0
1.8395394363324158e-05,-4.97788714710623e-05,0.0,0.0,0.0
1.8764238120638765e-05,-4.936000186717138e-05,0.0,0.0,0.0
1.9015258658328094e-05,-4.938359415973537e-05,0.0,0.0,0.0
1.8725660993368365e-05,-4.932055890094489e-05,0.0,0.0,0.0
1.817921111069154e-05,-4.957973214914091e-05,0.0,0.0,0.0
1.836887895478867e-05,-4.9284513806924224e-05,0.0,0.0,0.0
1.844869075284805e-05,-4.8974899982567877e-05,0.0,0.0,0.0
1.847207204264123e-05,-4.8865385906537995e-05,0.0,0.0,0.0
1.8459953935234807e-05,-4.8637059080647305e-05,0.0,0.0,0.0
1.8302982425666414e-05,-4.8711175622884184e-05,0.0,0.0,0.0
1.827990126912482e-05,-4.864549919147976e-05,0.0,0.0,0.0
1.8316406567464583e-05,-4.8426656576339155e-05,0.0,0.0,0.0
1.8272105080541223e-05,-4.7992471081670374e-05,0.0,0.0,0.0
1.8436556274536997e-05,-4.8132056690519676e-05,0.0,0.0,0.0
1.8489987269276753e-05,-4.8214078560704365e-05,0.0,0.0,0.0
1.8341790564591065e-05,-4.813251507584937e-05,0.0,0.0,0.0
1.8256412658956833e-05,-4.829548561247066e-05,0.0,0.0,0.0
1.832732232287526e-05,-4.8452388000441715e-05,0.0,0.0,0.0
1.827130836318247e-05,-4.862061905441806e-05,0.0,0.0,0.0
1.8312435713596642e-05,-4.8721831262810156e-05,0.0,0.0,0.0
1.820074066927191e-05,-4.8639834858477116e-05,0.0,0.0,0.0
1.7761563867679797e-05,-4.870457996730693e-05,0.0,0.0,0.0
1.8119184460374527e-05,-4.865521259489469e-05,0.0,0.0,0.0
1.782534491212573e-05,-4.869097756454721e-05,0.0,0.0,0.0
1.8335666027269326e-05,-4.866713788942434e-05,0.0,0.0,0.0
1.8573717170511372e-05,-4.9510148528497666e-05,0.0,0.0,0.0
1.7837253835750744e-05,-4.926463952870108e-05,0.0,0.0,0.0
1.7803162336349487e-05,-4.910066490992904e-05,0.0,0.0,0.0
1.778242949512787e-05,-4.927519694319926e-05,0.0,0.0,0.0
1.8268177882418968e-05,-4.884048757958226e-05,0.0,0.0,0.0
1.85053504537791e-05,-4.93764309794642e-05,0.0,0.0,0.0
1.8216014723293483e-05,-4.96804277645424e-05,0.0,0.0,0.0
1.834010981838219e-05,-4.972246097167954e-05,0.0,0.0,0.0
1.847039493441116e-05,-4.942714440403506e-05,0.0,0.0,0.0
1.8275737602380104e-05,-4.996049028704874e-05,0.0,0.0,0.0
1.829674147302285e-05,-4.995627750759013e-05,0.0,0.0,0.0
1.8467802874511108e-05,-4.99014240631368e-05,0.0,0.0,0.0
1.8461105355527252e-05,-4.9509435484651476e-05,0.0,0.0,0.0
1.8325701603316702e-05,-4.935896140523255e-05,0.0,0.0,0.0
1.8261687728227116e-05,-4.922218431602232e-05,0.0,0.0,0.0
1.8564714991953224e-05,-4.924144013784826e-05,0.0,0.0,0.0
1.8695687685976736e-05,-4.956757402396761e-05,0.0,0.0,0.0
1.847500061558094e-05,-4.9361053243046626e-05,0.0,0.0,0.0
1.8454669771017507e-05,-4.934581011184491e-05,0.0,0.0,0.0
1.8469716451363638e-05,-4.919126513414085e-05,0.0,0.0,0.0
1.8523014659876935e-05,-4.880572305410169e-05,0.0,0.0,0.0
1.871975837275386e-05,-4.8919526307145134e-05,0.0,0.0,0.0
1.8476164768799208e-05,-4.91399914608337e-05,0.0,0.0,0.0
1.8083372196997516e-05,-4.920230639982037e-05,0.0,0.0,0.0
1.784143205441069e-05,-4.9151192797580734e-05,0.0,0.0,0.0
1.7750060578691773e-05,-4.88910882268101e-05,0.0,0.0,0.0
1.811428774090018e-05,-4.882843859377317e-05,0.0,0.0,0.0
1.813990093069151e-05,-4.854781582253054e-05,0.0,0.0,0.0
1.8382535927230492e-05,-4.825111318496056e-05,0.0,0.0,0.0
1.850788976298645e-05,-4.836000152863562e-05,0.0,0.0,0.0
1.8425596863380633e-05,-4.8864098062040284e-05,0.0,0.0,0.0
1.8261267541674897e-05,-4.852576967095956e-05,0.0,0.0,0.0
1.807681292120833e-05,-4.8793270252645016e-05,0.0,0.0,0.0
1.7956965166376904e-05,-4.8376485210610554e-05,0.0,0.0,0.0
1.8144372006645426e-05,-4.858546162722632e-05,0.0,0.0,0.0
1.8534026821726002e-05,-4.866806193604134e-05,0.0,0.0,0.0
1.8226179236080498e-05,-4.885055386694148e-05,0.0,0.0,0.0
1.799355413822923e-05,-4.920891660731286e-05,0.0,0.0,0.0
1.792056173144374e-05,-4.93167681270279e-05,0.0,0.0,0.0
1.8299524526810274e-05,-4.9088597734225914e-05,0.0,0.0,0.0
1.830864857765846e-05,-4.891229036729783e-05,0.0,0.0,0.0
1.8269911379320547e-05,-4.938184065395035e-05,0.0,0.0,0.0
1.8446948160999455e-05,-4.930931027047336e-05,0.0,0.0,0.0
1.847299972723704e-05,-4.928248017677106e-05,0.0,0.0,0.0
1.845963743107859e-05,-4.898466431768611e-05,0.0,0.0,0.0
1.8462384105077945e-05,-4.912697841064073e-05,0.0,0.0,0.0
1.8319469745620154e-05,-4.936875484418124e-05,0.0,0.0,0.0
1.7834621758083813e-05,-4.9708603910403326e-05,0.0,0.0,0.0
1.781251012289431e-05,-4.9710932216839865e-05,0.0,0.0,0.0
1.8162409105570987e-05,-5.001232057111338e-05,0.0,0.0,0.0
1.843848622229416e-05,-5.005397179047577e-05,0.0,0.0,0.0
1.8481168808648363e-05,-5.029467502026819e-05,0.0,0.0,0.0
1.84517430170672e-05,-5.009202141081914e-05,0.0,0.0,0.0
1.8470016584615223e-05,-4.995905692339875e-05,0.0,0.0,0.0
1.818447890400421e-05,-5.006789433537051e-05,0.0,0.0,0.0
1.8089036530000158e-05,-4.9448128265794367e-05,0.0,0.0,0.0
1.81627747224411e-05,-4.956503471476026e-05,0.0,0.0,0.0
1.8340917449677363e-05,-4.999245356884785e-05,0.0,0.0,0.0
1.8051046936307102e-05,-4.975815681973472e-05,0.0,0.0,0.0
1.7695741917123087e-05,-4.990468733012676e-05,0.0,0.0,0.0
1.8085027477354743e-05,-4.961706872563809e-05,0.0,0.0,0.0
1.8079821529681794e-05,-4.9291778850601986e-05,0.0,0.0,0.0
1.8356899090576917e-05,-4.920332503388636e-05,0.0,0.0,0.0
1.8265216567669995e-05,-4.914224336971529e-05,0.0,0.0,0.0
1.7960930563276634e-05,-4.922712469124235e-05,0.0,0.0,0.0
1.7947548258234747e-05,-4.8807505663717166e-05,0.0,0.0,0.0
1.827746382332407e-05,-4.871095370617695e-05,0.0,0.0,0.0
1.8326425561099313e-05,-4.8649042582837865e-05,0.0,0.0,0.0
1.8128217561752535e-05,-4.869708573096432e-05,0.0,0.0,0.0
1.8247850675834343e-05,-4.8661000619176775e-05,0.0,0.0,0.0
1.8445187379256822e-05,-4.868685937253758e-05,0.0,0.0,0.0
1.8291024389327504e-05,-4.8669655370758846e-05,0.0,0.0,0.0
1.7809918062994257e-05,-4.8679616156732664e-05,0.0,0.0,0.0
1.763076397764962e-05,-4.867562893196009e-05,0.0,0.0,0.0
1.7178894267999567e-05,-4.8674774006940424e-05,0.0,0.0,0.0
1.7180258510052226e-05,-4.8732639697846025e-05,0.0,0.0,0.0
1.7764628864824772e-05,-4.8975565732689574e-05,0.0,0.0,0.0
1.7786736862035468e-05,-4.907635957351886e-05,0.0,0.0,0.0
1.7469357771915384e-05,-4.92803992528934e-05,0.0,0.0,0.0
1.744786641211249e-05,-4.94054147566203e-05,0.0,0.0,0.0
1.803523082344327e-05,-4.9298749217996374e-05,0.0,0.0,0.0
1.7931886759470217e-05,-4.938850543112494e-05,0.0,0.0,0.0
1.7950485926121473e-05,-4.931424336973578e-05,0.0,0.0,0.0
1.7997819668380544e-05,-4.937439371133223e-05,0.0,0.0,0.0
1.8145608919439837e-05,-4.932700903736986e-05,0.0,0.0,0.0
1.8396531231701374e-05,-4.936293407808989e-05,0.0,0.0,0.0
1.8190610717283562e-05,-4.956054544891231e-05,0.0,0.0,0.0
1.8187529349233955e-05,-4.992348840460181e-05,0.0,0.0,0.0
1.723498644423671e-05,-5.0016751629300416e-05,0.0,0.0,0.0
1.759250881150365e-05,-5.001811223337427e-05,0.0,0.0,0.0
1.8112674297299236e-05,-5.002278703614138e-05,0.0,0.0,0.0
1.8501739759813063e-05,-5.001309546059929e-05,0.0,0.0,0.0
1.844381586124655e-05,-5.018638330511749e-05,0.0,0.0,0.0
1.84670807357179e-05,-5.019794843974523e-05,0.0,0.0,0.0
1.8473110685590655e-05,-4.989228182239458e-05,0.0,0.0,0.0
1.8570364773040637e-05,-4.980396624887362e-05,0.0,0.0,0.0
1.8702878151088953e-05,-5.001858517061919e-05,0.0,0.0,0.0
1.8446762624080293e-05,-4.9911239329958335e-05,0.0,0.0,0.0
1.8392085621599108e-05,-4.960605292581022e-05,0.0,0.0,0.0
1.8201209968538024e-05,-4.9263911932939664e-05,0.0,0.0,0.0
1.83855154318735e-05,-4.910865754936822e-05,0.0,0.0,0.0
1.821180740080308e-05,-4.923837332171388e-05,0.0,0.0,0.0
1.8371778423897922e-05,-4.92397703055758e-05,0.0,0.0,0.0
1.8142811313737184e-05,-4.977967546437867e-05,0.0,0.0,0.0
1.7785125237423927e-05,-4.948515925207175e-05,0.0,0.0,0.0
1.7791218851925805e-05,-4.8584421165287495e-05,0.0,0.0,0.0
1.7798834960558452e-05,-4.875068043475039e-05,0.0,0.0,0.0
1.806781619961839e-05,-4.861757770413533e-05,0.0,0.0,0.0
1.8183360225521028e-05,-4.816795262740925e-05,0.0,0.0,0.0
1.8342643670621328e-05,-4.8162968596443534e-05,0.0,0.0,0.0
1.8543794794823043e-05,-4.820416506845504e-05,0.0,0.0,0.0
1.8393971913610585e-05,-4.788141814060509e-05,0.0,0.0,0.0
1.828843232942745e-05,-4.8567682824796066e-05,0.0,0.0,0.0
1.805418469302822e-05,-4.86555763927754e-05,0.0,0.0,0.0
1.8187765817856416e-05,-4.889594856649637e-05,0.0,0.0,0.0
1.7675989511189982e-05,-4.8832360334927216e-05,0.0,0.0,0.0
1.746348789311014e-05,-4.863281355937943e-05,0.0,0.0,0.0
1.7996768292505294e-05,-4.890295895165764e-05,0.0,0.0,0.0
1.8143960915040225e-05,-4.897266626358032e-05,0.0,0.0,0.0
1.777071156539023e-05,-4.921262734569609e-05,0.0,0.0,0.0
1.810150388337206e-05,-4.90092315885704e-05,0.0,0.0,0.0
1.8455946701578796e-05,-4.8721431085141376e-05,0.0,0.0,0.0
1.8463475498720072e-05,-4.8631816753186285e-05,0.0,0.0,0.0
1.846968734753318e-05,-4.895329402643256e-05,0.0,0.0,0.0
1.8451843061484396e-05,-4.9388938350602984e-05,0.0,0.0,0.0
1.847933162935078e-05,-4.9727219447959214e-05,0.0,0.0,0.0
1.8444061424816027e-05,-4.9728409067029133e-05,0.0,0.0,0.0
1.848538340709638e-05,-5.003309343010187e-05,0.0,0.0,0.0
1.8375792933511548e-05,-5.0005968660116196e-05,0.0,0.0,0.0
1.8128152078134008e-05,-4.997773066861555e-05,0.0,0.0,0.0
1.781668106559664e-05,-4.970504596712999e-05,0.0,0.0,0.0
1.8143131455872208e-05,-4.9696696805767715e-05,0.0,0.0,0.0
1.8414317310089245e-05,-4.999654265702702e-05,0.0,0.0,0.0
1.819631506805308e-05,-5.0037731853080913e-05,0.0,0.0,0.0
1.7779892004909925e-05,-5.0004156946670264e-05,0.0,0.0,0.0
1.83570446097292e-05,-5.003041587769985e-05,0.0,0.0,0.0
1.8527389329392463e-05,-4.974522744305432e-05,0.0,0.0,0.0
1.81559516931884e-05,-4.93985389766749e-05,0.0,0.0,0.0
1.8383143469691277e-05,-4.934331445838325e-05,0.0,0.0,0.0
1.848413739935495e-05,-4.9349397158948705e-05,0.0,0.0,0.0
1.8221006030216813e-05,-4.934834214509465e-05,0.0,0.0,0.0
1.8123815607395954e-05,-4.913219891022891e-05,0.0,0.0,0.0
1.7927888620761223e-05,-4.9200825742445886e-05,0.0,0.0,0.0
1.796792093955446e-05,-4.917932892567478e-05,0.0,0.0,0.0
1.7970245608012192e-05,-4.8984333261614665e-05,0.0,0.0,0.0
1.8105985873262398e-05,-4.9031779781216756e-05,0.0,0.0,0.0
1.833373971749097e-05,-4.883951987721957e-05,0.0,0.0,0.0
1.855005211837124e-05,-4.8682039050618187e-05,0.0,0.0,0.0
1.8731900127022527e-05,-4.853689097217284e-05,0.0,0.0,0.0
1.8264754544361494e-05,-4.8470865294802934e-05,0.0,0.0,0.0
1.832593079598155e-05,-4.8434714699396864e-05,0.0,0.0,0.0
1.8160832041758113e-05,-4.803231422556564e-05,0.0,0.0,0.0
1.80004644789733e-05,-4.817574154003523e-05,0.0,0.0,0.0
1.7755313820089214e-05,-4.8653582780389115e-05,0.0,0.0,0.0
1.7434726032661274e-05,-4.8698566388338804e-05,0.0,0.0,0.0
