1.7742901036399417e-05,-4.4286611228017136e-05,2.2930280465516262e-05,1.9356524717295542e-05,-2.2998416170594282e-05,5.767736001871526e-05
2.2945492673898116e-05,-4.4886481191497296e-05,2.6124051146325655e-05,2.5163644750136882e-05,-2.4414954168605618e-05,5.7584766182117164e-05
2.450926876917947e-05,-4.690275090979412e-05,2.859693267964758e-05,2.6742782210931182e-05,-2.7719659556169063e-05,5.268295353744179e-05
2.3464090190827847e-05,-4.88018813484814e-05,3.0458739274763502e-05,2.781398143270053e-05,-3.046409437956754e-05,4.623203494702466e-05
2.1293475583661348e-05,-4.9740840040612966e-05,2.8579046556842513e-05,3.5279263101983815e-05,-2.9909529985161498e-05,4.265588358975947e-05
2.1029811250627972e-05,-4.91690261696931e-05,2.2683971110382117e-05,4.25798243668396e-05,-2.643686457304284e-05,4.828224336961284e-05
1.9585000700317323e-05,-5.051861808169633e-05,1.967634125321638e-05,4.1803923522820696e-05,-1.9728748156921938e-05,5.249001333140768e-05
1.6985521142487414e-05,-5.308827894623391e-05,2.039700666500721e-05,3.7549485568888485e-05,-1.5356670701294206e-05,5.078253889223561e-05
1.603225064172875e-05,-5.1379520300542936e-05,2.4297358322655782e-05,4.2982435843441635e-05,-1.5000153325672727e-05,4.860972330789082e-05
1.7166683392133564e-05,-4.8832374886842445e-05,2.879497333196923e-05,5.673023406416178e-05,-1.8231508875032887e-05,4.4916941988049075e-05
1.9913946744054556e-05,-4.8123765736818314e-05,3.3845644793473184e-05,6.622747605433688e-05,-2.4520109946024604e-05,4.157644434599206e-05
2.4526687411707826e-05,-5.1825343689415604e-05,3.84006452804897e-05,6.312418554443866e-05,-3.6205841752234846e-05,4.4780106691177934e-05
2.7739590223063715e-05,-5.474108911585063e-05,3.91073408536613e-05,5.116451939102262e-05,-4.910882853437215e-05,5.364475873648189e-05
3.163051951560192e-05,-5.290465924190357e-05,3.65123305527959e-05,3.809958434430882e-05,-5.641954339807853e-05,6.46339904051274e-05
3.632228253991343e-05,-4.977911521564238e-05,3.299723903182894e-05,2.8983013180550188e-05,-5.692139529855922e-05,7.193165947683156e-05
3.749775351025164e-05,-4.844789145863615e-05,3.152023782604374e-05,2.4856570234987885e-05,-5.101497663417831e-05,7.23104749340564e-05
3.2702846510801464e-05,-4.997948053642176e-05,3.253909744671546e-05,2.5421166355954483e-05,-3.789693073485978e-05,6.795400258852169e-05
2.660098107298836e-05,-5.2534604037646204e-05,3.4196760680060834e-05,2.851346471288707e-05,-2.279349610034842e-05,6.046381895430386e-05
2.4409762772847898e-05,-5.308548497851007e-05,3.4701723052421585e-05,3.218949859729037e-05,-1.031671945384005e-05,5.5781554692657664e-05
2.568685704318341e-05,-5.100275666336529e-05,3.3356966014252976e-05,3.894740075338632e-05,-1.649404737236182e-07,5.701405098079704e-05
2.823197610268835e-05,-4.746236663777381e-05,3.0153456464176998e-05,4.5313590817386284e-05,6.876573934277985e-06,5.935070657869801e-05
2.695011062314734e-05,-4.44791185145732e-05,2.7445255909697153e-05,4.473064109333791e-05,1.1287099368928466e-05,5.953881918685511e-05
2.2293836082099006e-05,-4.526638804236427e-05,2.5849732992355712e-05,3.6326619010651484e-05,1.695913670118898e-05,5.9945301472907886e-05
2.0633142412407324e-05,-4.7014425945235416e-05,2.6612719011609443e-05,2.6701263777795248e-05,2.359555037401151e-05,6.193036824697629e-05
2.071760900435038e-05,-4.5940625568619e-05,2.9261364034027793e-05,2.0052895706612617e-05,2.757068068603985e-05,6.613882578676566e-05
1.8105431081494316e-05,-4.283425732864998e-05,3.062760515604168e-05,1.5403084034915082e-05,2.829277036653366e-05,7.059542986098677e-05
1.5342633560067043e-05,-4.308464485802688e-05,3.297437433502637e-05,1.5470337530132383e-05,2.1881331122131087e-05,7.415901927743107e-05
1.2606252312252764e-05,-4.751342930831015e-05,3.345661752973683e-05,1.834101931308396e-05,1.5068877473822795e-05,7.511940930271521e-05
1.0328793905500788e-05,-5.00796377309598e-05,2.9174545488785952e-05,1.7181821021949872e-05,1.0922358342213556e-05,7.022350473562256e-05
1.0203449164691847e-05,-4.883533620159142e-05,2.5504778022877872e-05,1.4652967365691438e-05,6.938433671166422e-06,5.9486559621291235e-05
1.2339877685008105e-05,-4.761296804645099e-05,2.6165023882640526e-05,1.7990376363741234e-05,3.6462422485783463e-06,5.321427670423873e-05
1.6522311852895655e-05,-4.9207596021005884e-05,2.6674802938941866e-05,2.3015329134068452e-05,1.3930750810686732e-06,5.5806220188969746e-05
2.2336664187605493e-05,-4.9836260586744174e-05,2.779310307232663e-05,2.0797375327674672e-05,-4.283002965621563e-07,5.852642061654478e-05
2.578718886070419e-05,-4.7281995648518205e-05,3.080061651417054e-05,1.222506307385629e-05,-7.827641638868954e-06,6.094446871429682e-05
2.6545050786808133e-05,-4.692704169428907e-05,3.0470564524875954e-05,5.060317562310956e-06,-2.309773481101729e-05,6.078184742364101e-05
2.48882297455566e-05,-4.698560223914683e-05,2.8994090826017782e-05,6.812746505602263e-06,-3.700003799167462e-05,6.097277218941599e-05
2.1428313630167395e-05,-4.699393321061507e-05,2.70105210802285e-05,2.7098149075754918e-05,-4.444108344614506e-05,6.498721631942317e-05
2.0491143004619516e-05,-4.7738245484652e-05,2.6111507395398803e-05,5.921164120081812e-05,-4.46001831733156e-05,7.010310946498066e-05
2.3248196157510392e-05,-4.902442742604762e-05,2.9172224458307028e-05,7.683992589591071e-05,-3.751510666916147e-05,7.188030576799065e-05
2.6148925826419145e-05,-4.939415157423355e-05,3.329578248667531e-05,7.09418163751252e-05,-2.6854148018173873e-05,6.952880357857794e-05
2.569247953942977e-05,-4.97158762300387e-05,3.4382781450403854e-05,5.2889608923578635e-05,-1.4868418475089129e-05,6.603448127862066e-05
2.3732607587589882e-05,-5.1831983000738546e-05,3.239484431105666e-05,3.871135413646698e-05,-7.95582036516862e-06,6.380883132806048e-05
2.3336971935350448e-05,-5.393140600062907e-05,3.151291093672626e-05,3.1604442483512685e-05,-8.760832315601874e-06,6.272986502153799e-05
2.26243519136915e-05,-5.5091382819227874e-05,3.231172013329342e-05,2.6838533813133836e-05,-1.2974915080121718e-05,5.8627239923225716e-05
2.0115336155868135e-05,-5.512165080290288e-05,3.354353611939587e-05,2.1503836251213215e-05,-1.664429873926565e-05,5.1968545449199155e-05
1.6549920474062674e-05,-5.598956340691075e-05,3.506771827233024e-05,1.866649472503923e-05,-2.1450819986057468e-05,4.933122545480728e-05
1.407061699865153e-05,-5.735018930863589e-05,3.7717196391895413e-05,1.9927936591557227e-05,-2.8854394258814864e-05,5.5522028560517356e-05
1.365253501717234e-05,-5.821442391606979e-05,3.9581649616593495e-05,2.1445544916787185e-05,-3.721465327544138e-05,6.554396532010287e-05
1.4725505934620742e-05,-5.9648176829796284e-05,3.8807193050161004e-05,2.3468255676561967e-05,-4.33011373388581e-05,6.979556928854436e-05
1.4498516065941658e-05,-6.159548502182588e-05,3.4644930565264076e-05,2.481016235833522e-05,-4.3368363549234346e-05,6.424258026527241e-05
1.3239536201581359e-05,-6.035825936123729e-05,2.9223045203252696e-05,2.6081328542204574e-05,-3.403040682314895e-05,5.6811095419107005e-05
1.4984989320510067e-05,-5.696925290976651e-05,2.7362726541468874e-05,2.929092079284601e-05,-1.4133005606709048e-05,5.426002462627366e-05
1.5254499885486439e-05,-5.545387102756649e-05,2.9202536097727716e-05,3.1979750929167494e-05,1.1123782314825803e-05,5.7058859965763986e-05
1.5602798157487996e-05,-5.439427332021296e-05,3.232818562537432e-05,3.1177845812635496e-05,3.287388608441688e-05,6.113387644290924e-05
1.6501433492521755e-05,-5.2610219427151605e-05,3.505881250021048e-05,2.6053699912154116e-05,5.176972263143398e-05,6.283332186285406e-05
1.723472996673081e-05,-5.194673576625064e-05,3.6239842302165926e-05,2.587108792795334e-05,6.663271778961644e-05,6.217791087692603e-05
1.7872293028631248e-05,-5.020380558562465e-05,3.437076520640403e-05,2.9433627787511796e-05,6.908328214194626e-05,5.9402824263088405e-05
1.6169968148460612e-05,-4.920863648294471e-05,3.31734809151385e-05,2.7111822419101372e-05,5.933004285907373e-05,5.946465171291493e-05
1.3708289770875126e-05,-4.896761674899608e-05,3.335717701702379e-05,2.2928101316210814e-05,4.3145351810380816e-05,6.339776882668957e-05
1.296609752898803e-05,-5.090924969408661e-05,3.4069329558406025e-05,2.2038864699425176e-05,2.6389221602585167e-05,6.087463043513708e-05
1.542955760669429e-05,-5.2554180001607165e-05,3.6542260204441845e-05,2.453615343256388e-05,1.0659369763743598e-05,5.323022560332902e-05
1.955429615918547e-05,-5.0261016440344974e-05,3.792551069636829e-05,2.5985344109358266e-05,-3.5467780890030554e-06,5.046996011515148e-05
2.3310765755013563e-05,-4.7902140067890286e-05,3.829663910437375e-05,2.5409461159142666e-05,-1.4845790246909019e-05,5.389575017034076e-05
2.2621748939855024e-05,-4.7333796828752384e-05,3.633857340901159e-05,2.127810330421198e-05,-1.9344459360581823e-05,5.485322981257923e-05
1.75743753061397e-05,-4.6982015192043036e-05,3.191599898855202e-05,1.854159199865535e-05,-2.2098824047134258e-05,5.3547719289781526e-05
1.3036152267886791e-05,-4.645752051146701e-05,2.6273419280187227e-05,1.9686718587763608e-05,-2.9601420465041883e-05,5.280470577417873e-05
1.1393462045816705e-05,-4.620051186066121e-05,2.2621134121436626e-05,2.1796031433041207e-05,-3.7297402741387486e-05,5.095828237244859e-05
1.306872127315728e-05,-4.535675543593243e-05,2.4143133487086743e-05,2.235137071693316e-05,-3.956063665100373e-05,5.100938869873062e-05
1.4792811271036044e-05,-4.469640407478437e-05,2.755416790023446e-05,2.2002590412739664e-05,-3.804164953180589e-05,5.331646025297232e-05
1.2947774848726112e-05,-4.510945291258395e-05,2.858925290638581e-05,2.3635213437955827e-05,-3.8826128729851916e-05,5.6701454013818875e-05
1.0939948879240546e-05,-4.764196273754351e-05,2.649857196956873e-05,2.8704114811262116e-05,-4.185878424323164e-05,5.874590715393424e-05
1.3984595170768443e-05,-5.124966992298141e-05,2.5125435058725998e-05,3.303106132079847e-05,-4.1755178244784474e-05,5.8748428273247555e-05
2.137523188139312e-05,-5.108685218147002e-05,2.7276289984001778e-05,3.117014784947969e-05,-3.625863973866217e-05,5.71492055314593e-05
2.8271129849599674e-05,-4.4884905946673825e-05,3.077636574744247e-05,2.5870300305541605e-05,-2.8858761652372777e-05,5.525589222088456e-05
3.0010663977009244e-05,-4.074164462508634e-05,3.0858580430503935e-05,2.348661655560136e-05,-2.1540621673921123e-05,5.327522012521513e-05
2.699620381463319e-05,-4.201375850243494e-05,2.689914072107058e-05,2.5764198653632775e-05,-1.5243980669765733e-05,5.2839623094769195e-05
2.303047222085297e-05,-4.315437763580121e-05,2.4040464268182404e-05,2.5786666810745373e-05,-1.0735518117144238e-05,5.35274957655929e-05
2.453567140037194e-05,-4.250426354701631e-05,2.5562218070263043e-05,2.173808570660185e-05,-5.649162176268874e-06,5.47255840501748e-05
3.294396083219908e-05,-4.56191373814363e-05,2.933947143901605e-05,2.2242633349378593e-05,2.390420604569954e-06,5.5261829402297735e-05
4.218245521769859e-05,-4.989889930584468e-05,3.396808824618347e-05,2.5363982786075212e-05,9.036016308527905e-06,5.445496935863048e-05
4.613347118720412e-05,-5.012486144551076e-05,3.884689067490399e-05,2.5955501769203693e-05,1.2518820767581929e-05,5.744676309404895e-05
4.0420403820462525e-05,-4.8204095946857706e-05,3.963762355851941e-05,2.6950425308314152e-05,1.3245840818854049e-05,6.836692773504183e-05
3.1455798307433724e-05,-4.61786039522849e-05,3.731909964699298e-05,2.6503903427510522e-05,1.2963370863872115e-05,7.37673180992715e-05
2.772046900645364e-05,-4.457344039110467e-05,3.754439239855856e-05,2.9731034373980947e-05,9.476655577600468e-06,7.422325143124908e-05
3.0388220693566836e-05,-4.472627188079059e-05,3.686355194076896e-05,3.095079227932729e-05,-4.1725184019014705e-06,7.427641685353592e-05
3.3234427974093705e-05,-4.512498344411142e-05,3.499421291053295e-05,3.1185103580355644e-05,-2.085167943732813e-05,6.985342042753473e-05
3.350776751176454e-05,-4.60376322735101e-05,3.452755117905326e-05,3.439551073824987e-05,-3.210742579540238e-05,6.942186882952228e-05
3.2059757359093055e-05,-4.844094655709341e-05,3.72898175555747e-05,3.614234447013587e-05,-3.6612036637961864e-05,7.26259095245041e-05
3.230298534617759e-05,-5.153757592779584e-05,4.0967497625388205e-05,3.884204488713294e-05,-3.636987821664661e-05,7.573994662379846e-05
3.73407056031283e-05,-5.387660348787904e-05,4.092653398402035e-05,4.059423736180179e-05,-3.143975118291564e-05,7.40760297048837e-05
4.139194788876921e-05,-5.5246993724722415e-05,3.6984252801630646e-05,4.023052315460518e-05,-1.981925015570596e-05,6.817917892476544e-05
4.268309203325771e-05,-5.857185897184536e-05,3.477963400655426e-05,3.733707853825763e-05,-3.027449338333099e-06,6.098273297538981e-05
4.08960368076805e-05,-5.952351421001367e-05,3.7782505387440324e-05,3.525935608195141e-05,1.1913574780919589e-05,5.805819819215685e-05
3.6384095437824726e-05,-5.6392167607555166e-05,4.020305641461164e-05,3.550907058524899e-05,1.8847717001335695e-05,5.858662916580215e-05
3.0106872145552188e-05,-5.1860053645214066e-05,3.725326678249985e-05,3.750184259843081e-05,1.8738044673227705e-05,5.9340654843254015e-05
2.3179065465228632e-05,-5.101476199342869e-05,3.0131914172670804e-05,3.872893285006285e-05,1.4503078091365751e-05,5.9109101130161434e-05
1.76141311385436e-05,-5.3341671446105465e-05,2.6032328605651855e-05,3.8299112929962575e-05,1.0677861610020045e-05,5.715579754905775e-05
1.57950689754216e-05,-5.3844447393203154e-05,2.6381183488410898e-05,3.755399666260928e-05,8.395147233386524e-06,5.500319821294397e-05
1.769264054019004e-05,-5.026958751841448e-05,2.9538663511630148e-05,3.7956429878249764e-05,6.246043994906358e-06,5.3153384214965627e-05
2.1369543901528232e-05,-4.664160587708466e-05,3.2883486710488796e-05,3.871848093695007e-05,3.422285544729675e-06,5.19880632054992e-05
2.53836242336547e-05,-4.612018892657943e-05,3.385260424693115e-05,3.9558031858177856e-05,4.150014319748152e-06,4.943689054925926e-05
2.9372520657489076e-05,-4.594367783283815e-05,3.2275136618409306e-05,3.9605791243957356e-05,6.546928034367738e-06,4.758206705446355e-05
3.0672272259835154e-05,-4.679464109358378e-05,3.061344978050329e-05,3.773597927647643e-05,6.340702384477481e-06,4.811691542272456e-05
2.7964557375526056e-05,-4.787960642715916e-05,2.9047700081719086e-05,3.559784818207845e-05,3.7765382785437396e-06,5.042454358772375e-05
2.7419797334005125e-05,-4.733740206575021e-05,2.7632040655589662e-05,2.9686705602216534e-05,1.4917083035470569e-06,5.540686470340006e-05
2.9943210392957553e-05,-4.6521334297722206e-05,2.7779940865002573e-05,2.4463151930831373e-05,-8.270345119854028e-07,5.623789184028283e-05
3.258735887357034e-05,-4.5534125092672184e-05,2.801296977850143e-05,2.8624421247513965e-05,-3.772236595978029e-06,5.215268538449891e-05
3.503534389892593e-05,-4.575486673275009e-05,2.8989181373617612e-05,3.594350710045546e-05,-3.942972853110405e-06,5.379482900025323e-05
3.2272197131533176e-05,-4.849139804719016e-05,3.139264663332142e-05,3.623351585702039e-05,-1.0985589142364915e-05,5.8864286984317005e-05
2.624882836244069e-05,-5.2702500397572294e-05,3.19782666338142e-05,2.9295757485670038e-05,-2.601848973426968e-05,6.098670564824715e-05
2.1193081920500845e-05,-5.749809861299582e-05,2.807683267747052e-05,2.3030386728351004e-05,-4.134336631977931e-05,5.574835086008534e-05
1.6358513676095754e-05,-5.924341530771926e-05,2.5261431801482104e-05,2.2705806259182282e-05,-5.4389802244259045e-05,5.325506572262384e-05
1.355436870653648e-05,-5.795038305222988e-05,2.7030109777115285e-05,3.121358167845756e-05,-6.510319508379325e-05,5.461466935230419e-05
1.183335916721262e-05,-5.396437700255774e-05,3.205947723472491e-05,4.752465247293003e-05,-7.469747652066872e-05,5.553816299652681e-05
1.2296377462917008e-05,-4.937004268867895e-05,3.741449108929373e-05,6.220270006451756e-05,-8.179472206393257e-05,5.693497587344609e-05
1.1116499990748707e-05,-4.490795254241675e-05,3.7742564018117264e-05,6.710724119329825e-05,-8.370872092200443e-05,5.801943188998848e-05
7.0760379458079115e-06,-4.375791468191892e-05,3.5369339457247406e-05,5.677689841832034e-05,-7.742322486592457e-05,5.933938882662915e-05
2.6010127385234227e-06,-4.640088809537701e-05,3.399396882741712e-05,3.91499706893228e-05,-6.398297409759834e-05,5.622512981062755e-05
6.109805212872743e-07,-4.763470496982336e-05,3.5374570870772004e-05,2.4980437956401147e-05,-5.136473191669211e-05,5.2531901019392535e-05
1.7240124634554377e-06,-4.735857874038629e-05,3.732865661731921e-05,1.95833472389495e-05,-4.2369581933598965e-05,5.18648412253242e-05
3.340494231451885e-06,-4.8717880417825654e-05,3.5660337744047865e-05,2.0769242837559432e-05,-3.5311699321027845e-05,5.286883970256895e-05
4.3054546949861106e-06,-5.3115396440261975e-05,3.2070078304968774e-05,2.335209137527272e-05,-3.138322426821105e-05,5.321256321622059e-05
5.690003035851987e-06,-5.530417911359109e-05,3.1220726668834686e-05,2.2876529328641482e-05,-2.7277872504782863e-05,5.2364281145855784e-05
6.604519057873404e-06,-5.2935040002921596e-05,3.235392432543449e-05,1.922919364005793e-05,-1.679511296970304e-05,5.201336898608133e-05
6.827505330875283e-06,-5.097294342704117e-05,3.2078569347504526e-05,1.6842033801367506e-05,1.0060186923510628e-06,5.345274257706478e-05
8.550575330446009e-06,-5.385701297200285e-05,3.150227712467313e-05,1.5758894733153284e-05,1.8455673853168264e-05,5.066140147391707e-05
1.0675144039851148e-05,-5.84529698244296e-05,3.2655512768542394e-05,1.614850953046698e-05,2.973146183649078e-05,3.6087596527067944e-05
1.1356473805790301e-05,-5.861457611899823e-05,3.542906415532343e-05,1.938746208907105e-05,4.0273785998579115e-05,1.565200545883272e-05
1.0964360626530834e-05,-5.3057505283504725e-05,3.657615525298752e-05,2.2866421204525977e-05,5.571243309532292e-05,6.079318609408801e-06
1.419420095771784e-05,-4.790494858752936e-05,3.403164737392217e-05,2.1907650079810992e-05,7.049529085634276e-05,7.320008080569096e-06
1.7620413927943446e-05,-4.675042873714119e-05,2.996815055666957e-05,2.015033896896057e-05,7.79238689574413e-05,7.698231456743088e-06
1.6482854334753938e-05,-4.762450771522708e-05,2.8063677746104077e-05,1.9781236915150657e-05,7.692258077440783e-05,6.65860670778784e-06
1.1086623999290168e-05,-5.003468686481938e-05,2.8428770747268572e-05,1.9607634385465644e-05,7.044964149827138e-05,4.448957042768598e-06
5.9325116126274224e-06,-5.2556217269739136e-05,2.9101323889335617e-05,1.7426171325496398e-05,6.135788862593472e-05,4.9843147280626e-06
6.129876965133008e-06,-5.2209132263669744e-05,2.6802479624166153e-05,1.3430551916826516e-05,5.089019032311626e-05,1.0065046808449551e-05
9.754330676514655e-06,-5.0447313697077334e-05,2.455465801176615e-05,1.2227686966070905e-05,3.894348628818989e-05,1.931626320583746e-05
1.1716947483364493e-05,-4.8340709327021614e-05,2.4742896130192094e-05,1.3414207387540955e-05,2.7395522920414805e-05,2.864606722141616e-05
1.2253837667230982e-05,-4.5413551561068743e-05,2.35812331084162e-05,1.7392478184774518e-05,1.814376810216345e-05,3.336115332785994e-05
1.4037884284334723e-05,-4.407409142004326e-05,2.114949529641308e-05,1.976322710106615e-05,8.918862477003131e-06,3.48597823176533e-05
1.7491431208327413e-05,-4.6450670197373256e-05,1.9068911569775082e-05,1.7164464225061238e-05,-2.756826006589108e-06,3.1871033570496365e-05
2.0561565179377794e-05,-4.7353958507301286e-05,1.80679744516965e-05,1.3803120054944884e-05,-1.8970111341332085e-05,2.6229419745504856e-05
2.205422606493812e-05,-4.6761397243244573e-05,2.0241412130417302e-05,1.139566029451089e-05,-3.8475453038699925e-05,2.061225677607581e-05
2.4899867639760487e-05,-4.846788215218112e-05,2.508988109184429e-05,1.3545985893870238e-05,-6.337668310152367e-05,2.015330574067775e-05
2.9764833016088232e-05,-4.815494321519509e-05,3.0239134503062814e-05,1.9888144379365258e-05,-9.052125096786767e-05,2.2940665076021105e-05
3.6414810892893e-05,-4.4198761315783486e-05,3.613339868024923e-05,3.0955823604017496e-05,-0.00010801939788507298,2.5392091629328206e-05
4.176354923401959e-05,-3.819862104137428e-05,4.075295873917639e-05,3.966200165450573e-05,-0.00011107188765890896,2.5815994376898743e-05
4.223294308758341e-05,-3.642793308245018e-05,4.0328413888346404e-05,4.300428554415703e-05,-0.00010313651728210971,2.653372212080285e-05
3.779902544920333e-05,-3.8894679164513946e-05,3.820305209956132e-05,4.203689604764804e-05,-8.985632302938029e-05,3.089812526013702e-05
3.103213384747505e-05,-4.148739390075207e-05,3.898067370755598e-05,4.1025890823220834e-05,-7.315615948755294e-05,3.9057307731127366e-05
2.7185913495486602e-05,-4.40338408225216e-05,4.312794771976769e-05,4.361086030257866e-05,-5.494782453752123e-05,4.319393337937072e-05
2.5963905500248075e-05,-4.75742454000283e-05,4.37642665929161e-05,4.733914101962e-05,-3.3742406230885535e-05,3.451585871516727e-05
2.443035009491723e-05,-5.23023190908134e-05,3.987853051512502e-05,4.975588308298029e-05,-9.212595614371821e-06,1.850407170422841e-05
2.2320928110275418e-05,-5.695065556210466e-05,3.604788798838854e-05,5.0253347581019625e-05,1.7923483028425835e-05,1.2215927199576981e-05
2.0817733457079157e-05,-5.8846209867624566e-05,3.4152879379689693e-05,4.787228681379929e-05,4.7235498641384766e-05,2.5104340238613077e-05
2.060603947029449e-05,-5.6659973779460415e-05,3.510108217597008e-05,3.999344335170463e-05,7.386160723399371e-05,4.733057721750811e-05
2.3117450837162323e-05,-5.3435938752954826e-05,3.6746081605087966e-05,3.535313953761943e-05,9.143447823589668e-05,6.622058572247624e-05
2.4881994249881245e-05,-5.044346471549943e-05,3.614570232457481e-05,3.6309767892817035e-05,9.671830048318952e-05,7.505165558541194e-05
2.3194241293822415e-05,-4.868210817221552e-05,3.365346492500976e-05,3.02012176689459e-05,8.919444371713325e-05,7.977938366821036e-05
2.1308911527739838e-05,-4.857423118664883e-05,3.34997421305161e-05,1.1814518984465394e-05,7.084550452418625e-05,8.31109719001688e-05
2.3432628950104117e-05,-5.038734889240004e-05,3.5818738979287446e-05,-5.773084012616891e-06,5.046370279160328e-05,8.459055243292823e-05
2.7186493753106333e-05,-5.225383210927248e-05,3.722652036231011e-05,-7.686135177209508e-06,3.0736853659618646e-05,8.326812530867755e-05
2.813293758663349e-05,-4.810118116438389e-05,3.603898221626878e-05,4.098260887985816e-06,1.1683974662446417e-05,8.262869232567027e-05
2.7966152629232965e-05,-4.237419489072636e-05,3.094299609074369e-05,1.416336544934893e-05,-6.1959849517734256e-06,7.970610749907792e-05
2.5288734832429327e-05,-4.0293249185197055e-05,2.5718183678691275e-05,1.6114192476379685e-05,-1.785559106792789e-05,7.627426384715363e-05
2.457176015013829e-05,-4.1873623558785766e-05,2.816907363012433e-05,1.5994310160749592e-05,-2.285501795995515e-05,7.603356061736122e-05
2.6856156182475388e-05,-4.664607695303857e-05,3.151593409711495e-05,1.8050659491564147e-05,-2.8337968615232967e-05,7.801024185027927e-05
2.673052586033009e-05,-4.8877620429266244e-05,3.089956226176582e-05,1.826736843213439e-05,-2.8634665795834735e-05,8.618187712272629e-05
2.5502589778625406e-05,-4.803512274520472e-05,2.9512219043681398e-05,1.4820529031567276e-05,-2.4451606805087067e-05,9.030623186845332e-05
2.4926486730691977e-05,-4.600516695063561e-05,2.8744814699166454e-05,1.1516433005454019e-05,-2.368006062170025e-05,8.96207129699178e-05
2.44165858021006e-05,-4.5287444663699716e-05,3.105783980572596e-05,1.6138425053213723e-05,-2.8814305551350117e-05,8.780544885667041e-05
2.2923690266907215e-05,-4.370208625914529e-05,3.481954991002567e-05,2.7941738153458573e-05,-3.449283030931838e-05,8.764857921050861e-05
2.1521354938158765e-05,-4.196716326987371e-05,3.510648457449861e-05,4.262738366378471e-05,-3.7214569601928815e-05,8.784502279013395e-05
2.1528752768062986e-05,-4.327669012127444e-05,3.257724893046543e-05,4.663430809159763e-05,-3.8362661143764853e-05,8.769560372456908e-05
2.3181190044851974e-05,-4.829014142160304e-05,3.0302282539196312e-05,3.815656964434311e-05,-4.0255348721984774e-05,9.095859422814101e-05
2.4544056941522285e-05,-5.299990516505204e-05,3.007435952895321e-05,2.9344291760935448e-05,-4.429448381415568e-05,9.250944276573136e-05
2.3581518689752556e-05,-5.408604192780331e-05,3.0489141863654368e-05,2.5572788217687048e-05,-4.882350913248956e-05,8.881677058525383e-05
2.2252615963225253e-05,-5.3430921980179846e-05,3.0197725209291093e-05,1.9335420802235603e-05,-5.1596416597021744e-05,8.462048572255298e-05
2.077912176901009e-05,-5.3569849114865065e-05,2.96215894195484e-05,8.030922799662221e-06,-4.9291491450276226e-05,8.574084495194256e-05
1.7933649360202253e-05,-5.3160005336394534e-05,3.096665386692621e-05,7.360030394920614e-06,-4.3581854697549716e-05,8.975096716312692e-05
1.560837154102046e-05,-5.1404989790171385e-05,3.275746712461114e-05,2.745572419371456e-05,-3.76637872250285e-05,8.79415383678861e-05
1.5900413927738555e-05,-5.23878370586317e-05,3.282665420556441e-05,5.668644007528201e-05,-3.5678840504260734e-05,7.895979069871828e-05
1.6642721675452776e-05,-5.5543168855365366e-05,3.1485855288337916e-05,7.246984750963748e-05,-3.724235648405738e-05,7.091465522535145e-05
1.7650902009336278e-05,-5.7513752835802734e-05,3.0208608222892508e-05,7.033909787423909e-05,-4.0031485696090385e-05,6.797387322876602e-05
2.0872857930953614e-05,-5.616659836960025e-05,3.1671901524532586e-05,6.0672802646877244e-05,-4.1237002733396366e-05,6.937114812899381e-05
2.581676744739525e-05,-5.286323357722722e-05,3.477135032881051e-05,5.386450357036665e-05,-3.816553726210259e-05,7.122607348719612e-05
2.6166993848164566e-05,-4.8878384404815733e-05,3.867513078148477e-05,5.036520815338008e-05,-3.323854980408214e-05,7.013168942648917e-05
2.1341407773434184e-05,-4.826738586416468e-05,4.0753369830781594e-05,4.84062620671466e-05,-2.9582430215668865e-05,7.161832763813436e-05
2.0243101971573196e-05,-4.958301724400371e-05,3.661604205262847e-05,4.9021571612684056e-05,-2.6903082471108064e-05,8.129664638545364e-05
2.3487784346798435e-05,-5.2271865570219234e-05,3.1889259844319895e-05,5.055947258369997e-05,-2.2438985979533754e-05,8.86816342244856e-05
2.5850520614767447e-05,-5.507603054866195e-05,3.304288838990033e-05,4.358141450211406e-05,-1.7571603166288696e-05,8.919025276554748e-05
2.474481880199164e-05,-5.366202094592154e-05,3.450123404036276e-05,3.518897574394941e-05,-1.4857031601422932e-05,8.711486589163542e-05
2.3552089260192588e-05,-5.052926280768588e-05,3.140339322271757e-05,2.6377349058748223e-05,-8.883551345206797e-06,8.26118775876239e-05
2.327423499082215e-05,-4.7796929720789194e-05,2.552523983467836e-05,1.293951936531812e-05,9.521996275907441e-07,7.880476186983287e-05
2.3349381081061438e-05,-4.820855974685401e-05,2.4793927877908573e-05,-2.2035595748093328e-07,7.983613613760099e-06,7.694458327023312e-05
2.5214560082531534e-05,-5.028343730373308e-05,2.5170475055347197e-05,-4.9286663852399215e-06,9.575336662237532e-06,7.383325282717124e-05
2.461455915181432e-05,-4.9323654820909724e-05,2.2839600205770694e-05,-1.3639274811794166e-06,9.732937542139553e-06,7.249475311255082e-05
2.1492673113243654e-05,-4.687188265961595e-05,2.5781615477171727e-05,4.3555030515562976e-07,8.475434697174933e-06,7.32100015738979e-05
2.2093019651947543e-05,-4.4921827793587e-05,3.139327236567624e-05,1.9438496110524284e-06,5.96973313804483e-06,7.536094199167565e-05
2.577192753960844e-05,-4.4864027586299926e-05,3.360153641551733e-05,1.3537460290535819e-06,5.044681529398076e-06,7.835450378479436e-05
2.8474736609496176e-05,-4.573225669446401e-05,3.213147647329606e-05,-2.79760706689558e-06,4.834826540900394e-06,7.779137376928702e-05
2.972200672957115e-05,-4.613507189787924e-05,2.8742142603732646e-05,-6.499342362076277e-06,3.5290183859615354e-06,7.23380217095837e-05
2.9422013540170155e-05,-4.6510838728863746e-05,2.8185841074446216e-05,-6.060534474272572e-07,3.755455395548779e-07,6.802728603361174e-05
2.822735405061394e-05,-4.813271152670495e-05,3.216395998606458e-05,1.9192251784261316e-05,-3.867642590194009e-06,6.652685260633007e-05
2.7456295356387272e-05,-5.056551526649855e-05,3.616788308136165e-05,5.081940253148787e-05,-8.25101506052306e-06,6.402381404768676e-05
2.5209583327523433e-05,-5.185973714105785e-05,3.52088209183421e-05,8.278447785414755e-05,-1.1859438018291257e-05,6.033446697983891e-05
2.0133727957727388e-05,-5.1742394134635106e-05,3.308555096737109e-05,9.803732245927677e-05,-1.3585156921180896e-05,6.078139631426893e-05
1.4442798601521645e-05,-4.992783578927629e-05,3.4763193980325013e-05,8.937368693295866e-05,-1.0171695976168849e-05,6.784242577850819e-05
1.3299813872436062e-05,-5.0420429033692926e-05,3.93339287256822e-05,6.513665721286088e-05,-4.665436335926643e-06,7.660908886464313e-05
1.8339307644055225e-05,-5.313301153364591e-05,4.204131619189866e-05,4.1894978494383395e-05,-2.5998151613748632e-06,8.292170241475105e-05
2.1989837478031404e-05,-5.245229112915695e-05,3.984816430602223e-05,2.7070056603406556e-05,-7.466346687579062e-06,8.506059384671971e-05
1.8487084162188694e-05,-4.986846033716574e-05,3.572117930161767e-05,1.8809821995091625e-05,-1.3735846550844144e-05,8.361297659575939e-05
1.6708527255104855e-05,-5.009771484765224e-05,3.2568550523137674e-05,1.7466953067923896e-05,-1.3199756722315215e-05,7.704278687015176e-05
2.1266348994686268e-05,-5.130649151396938e-05,3.202712832717225e-05,2.2428464944823645e-05,-8.191593224182725e-06,7.290881330845878e-05
2.4161985493265092e-05,-5.078535104985349e-05,3.547428786987439e-05,2.6908597646979615e-05,-4.954656105837785e-06,7.358492439379916e-05
2.2055404770071618e-05,-4.8163892643060535e-05,3.851611108984798e-05,2.6594745577313006e-05,-5.754347512265667e-06,7.455371815012768e-05
1.9439696188783273e-05,-4.5687484089285135e-05,3.7430661905091256e-05,2.3650123694096692e-05,-1.0029697477875743e-05,7.199584797490388e-05
2.2076390450820327e-05,-4.476329922908917e-05,3.3677271858323365e-05,2.1933059542789124e-05,-2.9681898013222963e-05,6.477683200500906e-05
2.8101683710701764e-05,-4.427633757586591e-05,2.9537226510001346e-05,2.3385257009067573e-05,-6.430786015698686e-05,5.746815077145584e-05
3.2741434552008286e-05,-4.435114169609733e-05,2.9604452720377594e-05,2.6797053578775376e-05,-9.218516788678244e-05,5.2131163101876155e-05
3.2315805583493784e-05,-4.785677447216585e-05,2.954714909719769e-05,2.7285261239740066e-05,-0.0001028105616569519,5.2119728934485465e-05
2.9718834412051365e-05,-5.460403554025106e-05,2.605844747449737e-05,2.5150404326268472e-05,-9.380375558976084e-05,5.721202614950016e-05
3.103943163296208e-05,-5.954614243819378e-05,2.5954057491617277e-05,2.201967618020717e-05,-7.413329876726493e-05,5.8825520682148635e-05
3.434983591432683e-05,-6.248419231269509e-05,3.1221527024172246e-05,2.213811421825085e-05,-4.935364631819539e-05,5.794922253699042e-05
3.5062908864347264e-05,-6.419762939913198e-05,3.5586886951932684e-05,2.3896551283542067e-05,-2.078529360005632e-05,6.182576908031479e-05
3.385678064660169e-05,-6.363887223415077e-05,3.6177909350953996e-05,2.3247104763868265e-05,9.426846190763172e-06,6.846102769486606e-05
3.2821182685438544e-05,-6.2263359723147e-05,3.4364980820100754e-05,2.401619167358149e-05,3.6573772376868874e-05,6.991725967964157e-05
3.2199233828578144e-05,-6.145618681330234e-05,3.135756196570583e-05,2.487375786586199e-05,5.757849066867493e-05,6.815489905420691e-05
3.0180193789419718e-05,-5.897698429180309e-05,3.104438656009734e-05,2.4136532374541275e-05,7.385946810245514e-05,6.785870209569111e-05
2.7375268473406322e-05,-5.597951894742437e-05,3.41941777151078e-05,2.2062820789869875e-05,8.376300684176385e-05,7.034995360299945e-05
2.5767210900085047e-05,-5.25875948369503e-05,3.5482771636452526e-05,1.8979832020704634e-05,8.625205373391509e-05,7.497725891880691e-05
2.501713424862828e-05,-4.816188811673783e-05,3.239990473957732e-05,1.5762256225571036e-05,8.287178934551775e-05,7.678701513214037e-05
2.4740285880398005e-05,-4.595717473421246e-05,2.824011789925862e-05,1.4437056961469352e-05,7.676591485505924e-05,7.493441080441698e-05
2.308668990735896e-05,-4.976496347808279e-05,2.794442480080761e-05,1.6300438801408745e-05,6.734573253197595e-05,7.071776781231165e-05
1.84032651304733e-05,-5.554475137614645e-05,3.2088926673168316e-05,1.8846087186830118e-05,5.4379204811993986e-05,6.532984843943268e-05
1.361267550237244e-05,-5.741843779105693e-05,3.6194585845805705e-05,2.1347024812712334e-05,4.0232516766991466e-05,6.375626981025562e-05
1.5566882211714983e-05,-5.665766730089672e-05,3.6856774386251345e-05,2.4916653273976408e-05,2.836595922417473e-05,6.683554966002703e-05
2.4116447093547322e-05,-5.586753468378447e-05,3.522929546306841e-05,2.83176195807755e-05,1.8122189430869184e-05,6.772835331503302e-05
3.2086503779282793e-05,-5.5996883020270616e-05,3.2815165468491614e-05,2.8466260118875653e-05,8.744920705794357e-06,6.443080201279372e-05
3.376696986379102e-05,-5.775892350357026e-05,2.839576336555183e-05,2.7784364647231996e-05,5.731746455239772e-07,6.061446765670553e-05
2.8789692805730738e-05,-5.779669663752429e-05,2.2312915461952798e-05,3.095909414696507e-05,-6.702781320200302e-06,6.194959132699296e-05
2.20763758989051e-05,-5.374503234634176e-05,2.0318992028478533e-05,3.2243453460978344e-05,-1.1912609807041008e-05,6.375796510837972e-05
1.804892781365197e-05,-5.154584505362436e-05,2.3531587430625223e-05,3.2933236070675775e-05,-1.6284817320411094e-05,6.212270818650723e-05
1.819850513129495e-05,-4.901984357275069e-05,2.7837113520945422e-05,3.410969293327071e-05,-2.2817535864305682e-05,6.114846473792568e-05
1.925950709846802e-05,-4.8384565161541104e-05,3.2239313441095874e-05,3.431281220400706e-05,-2.6914223781204782e-05,5.7898967497749254e-05
1.8757666111923754e-05,-4.670933049055748e-05,3.4496875741751865e-05,3.5346012737136334e-05,-3.1010778911877424e-05,5.698185850633308e-05
1.7245221897610463e-05,-4.335824996815063e-05,3.5369954275665805e-05,3.940466194762848e-05,-3.9047914469847456e-05,5.8824909501709044e-05
1.7826047042035498e-05,-4.2171726818196476e-05,3.7221187085378915e-05,4.889972842647694e-05,-5.0973492761841044e-05,5.782184234703891e-05
2.076528653560672e-05,-4.160499156569131e-05,3.720906170201488e-05,5.4539170378120616e-05,-6.723097612848505e-05,5.7775589084485546e-05
2.0391100406413898e-05,-4.454195004655048e-05,3.6083416489418596e-05,5.026206054026261e-05,-9.233650780515745e-05,5.841866004629992e-05
1.675239036558196e-05,-4.8726458771852776e-05,3.6635552532970905e-05,3.942244438803755e-05,-0.0001207724490086548,5.637685535475612e-05
1.0155799827771261e-05,-4.975961928721517e-05,3.801575439865701e-05,3.261907841078937e-05,-0.00014082808047533035,5.241737744654529e-05
4.913982593279798e-06,-4.853983409702778e-05,4.008732139482163e-05,3.125528746750206e-05,-0.00014646825729869306,5.0192080379929394e-05
2.9499626634788e-06,-4.9635327741270885e-05,4.0427021303912625e-05,3.1559859053231776e-05,-0.00013330426008906215,4.8662051995052025e-05
3.392643293409492e-06,-4.9199265049537644e-05,3.879073847201653e-05,3.0515917387674563e-05,-0.00010383668268332258,4.838723543798551e-05
5.107818196847802e-06,-4.85344062326476e-05,3.828712578979321e-05,2.5839182853815146e-05,-6.349130853777751e-05,4.7974630433600396e-05
7.125562206056202e-06,-4.8811547458171844e-05,3.716803985298611e-05,2.142515040759463e-05,-1.2989441529498436e-05,4.59130278613884e-05
1.0377279068052303e-05,-5.067728125141002e-05,3.363891300978139e-05,2.0203235180815682e-05,4.7325913328677416e-05,4.487069236347452e-05
1.2816615708288737e-05,-5.307076207827777e-05,3.069954618695192e-05,2.0303094061091542e-05,0.0001071841106750071,4.789734884980135e-05
1.3292094081407413e-05,-5.3994262998458e-05,3.0126004276098683e-05,1.779160083970055e-05,0.00015184134826995432,5.18045126227662e-05
1.6038782632676885e-05,-5.2822935685981065e-05,3.076971916016191e-05,1.6760754078859463e-05,0.00016995341866277158,5.388367208070122e-05
2.2331001673592255e-05,-5.0099635700462386e-05,3.216511686332524e-05,2.0471992684178986e-05,0.00016284326557070017,5.325611709849909e-05
2.5192683096975088e-05,-4.9447578930994496e-05,3.5069511795882136e-05,2.3648508431506343e-05,0.00014085767907090485,5.004465492675081e-05
2.3746086299070157e-05,-4.998918666387908e-05,3.811842907452956e-05,2.29188608500408e-05,0.00011450282181613147,4.797778092324734e-05
2.0690291421487927e-05,-5.112764847581275e-05,3.941153408959508e-05,1.9635663193184882e-05,8.756387251196429e-05,4.8300455091521144e-05
1.8043190721073188e-05,-5.1677499868674204e-05,3.701466630445793e-05,1.6227539163082838e-05,5.9780348237836733e-05,5.1143812015652657e-05
1.581912329129409e-05,-5.17769658472389e-05,3.1148189009400085e-05,1.8755599739961326e-05,3.1977058824850246e-05,5.337736729416065e-05
1.56438909471035e-05,-5.192847675061785e-05,2.554275852162391e-05,2.0430969016160816e-05,9.444792340218555e-06,4.9648526328383014e-05
2.0187086192891002e-05,-5.1218241424066946e-05,2.5185448976117186e-05,1.4676708815386519e-05,-1.0222324817732442e-05,3.943749106838368e-05
2.8213014957145788e-05,-4.5859684178140014e-05,2.8537560865515843e-05,1.0940427273453679e-05,-2.820827648974955e-05,3.546845618984662e-05
3.3172247640322894e-05,-3.956105138058774e-05,3.040726551262196e-05,1.4623121387558058e-05,-3.5360997571842745e-05,4.253493170836009e-05
3.21425759466365e-05,-3.845343962893821e-05,2.779314309009351e-05,2.0689991288236342e-05,-3.458231731201522e-05,5.086069359094836e-05
2.9463197279255837e-05,-4.039785926579498e-05,2.5028426534845494e-05,2.0982508431188762e-05,-3.6779594665858895e-05,5.731123746954836e-05
2.696032970561646e-05,-4.099619036423974e-05,2.6430448997416534e-05,1.901785253721755e-05,-4.342674583313055e-05,5.875099668628536e-05
2.3280201276065782e-05,-4.319651998230256e-05,2.75307957053883e-05,1.9831959434668534e-05,-5.024219717597589e-05,5.120502828503959e-05
1.884299490484409e-05,-4.625721703632735e-05,2.6271791284671053e-05,2.070177288260311e-05,-5.255651194602251e-05,4.339206498116255e-05
1.478301601309795e-05,-4.7319270379375666e-05,2.6399582566227764e-05,2.2720381821272895e-05,-5.216039062361233e-05,3.9490332710556686e-05
1.1181985428265762e-05,-4.822092887479812e-05,3.1556483008898795e-05,2.6757505111163482e-05,-5.517971294466406e-05,3.9368696889141575e-05
8.45443173602689e-06,-4.936459299642593e-05,3.462069435045123e-05,2.926555862359237e-05,-6.551620754180476e-05,4.269025885150768e-05
7.499749699491076e-06,-5.0943144742632285e-05,3.484020271571353e-05,3.122557609458454e-05,-7.873316644690931e-05,5.030086686019786e-05
7.005713086982723e-06,-5.018163574277423e-05,3.418659616727382e-05,4.0673559851711616e-05,-8.394885662710294e-05,6.090375245548785e-05
5.783115284430096e-06,-4.966138658346608e-05,3.314814603072591e-05,5.215870260144584e-05,-7.819486927473918e-05,6.697063508909196e-05
5.530622729565948e-06,-5.212261021370068e-05,3.325780562590808e-05,5.7821362133836374e-05,-6.69062283122912e-05,6.903395114932209e-05
7.023707894404652e-06,-5.659857561113313e-05,3.469208240858279e-05,5.504306318471208e-05,-5.496812809724361e-05,6.756264338036999e-05
9.834281627263408e-06,-6.004105307511054e-05,3.472360549494624e-05,4.84995762235485e-05,-4.345495835877955e-05,6.44074534648098e-05
1.2480176337703597e-05,-5.8516900026006624e-05,3.1327268516179174e-05,4.423889913596213e-05,-3.078637018916197e-05,6.0236237914068624e-05
1.2587735000124667e-05,-5.320863056113012e-05,2.6154015358770266e-05,4.201638148515485e-05,-1.611695552128367e-05,5.359379429137334e-05
1.3178426343074534e-05,-4.870057091466151e-05,2.251936348329764e-05,3.864263999275863e-05,-3.8271637095022015e-06,4.863130016019568e-05
1.731741394905839e-05,-4.863484718953259e-05,2.417964060441591e-05,3.498652222333476e-05,2.03933586817584e-06,4.81611568829976e-05
2.1612842829199508e-05,-5.220856473897584e-05,2.8577000193763524e-05,3.671730155474506e-05,2.535542989789974e-06,5.119832349009812e-05
2.3235535991261713e-05,-5.4004547564545646e-05,3.0313949537230656e-05,3.85971216019243e-05,1.1033785085601266e-06,5.338807750376873e-05
2.296269485668745e-05,-4.960442311130464e-05,2.684432183741592e-05,3.2354593713534996e-05,-2.2263995447246998e-07,5.5109019740484655e-05
2.1215388187556528e-05,-4.331912350608036e-05,2.4330407541128807e-05,1.9160032024956308e-05,-1.31431022509787e-06,5.8513705880614e-05
2.0259845769032836e-05,-4.265619281795807e-05,2.782403134915512e-05,1.0960359759337734e-05,-3.3392971090506762e-06,6.153080175863579e-05
1.9796625565504655e-05,-4.910603820462711e-05,3.380669295438565e-05,8.572696970077232e-06,-5.4580091273237485e-06,6.291589670581743e-05
1.8275877664564177e-05,-5.416091516963206e-05,3.4984816011274233e-05,2.293879560966161e-06,-4.95794211019529e-06,6.35561445960775e-05
1.6634441635687836e-05,-5.261132901068777e-05,3.1928688258631155e-05,-8.15942075860221e-06,-2.164029865525663e-06,5.9780835726996884e-05
1.5669327694922686e-05,-4.779474329552613e-05,3.15499710268341e-05,-1.1392458873160649e-05,-1.5720537476227037e-06,5.505873923539184e-05
1.5866948160692118e-05,-4.292081212042831e-05,3.447532435529865e-05,4.113911472813925e-06,-6.364871751429746e-06,5.418378350441344e-05
1.5153216736507602e-05,-4.183604323770851e-05,3.577463576220907e-05,3.346350058563985e-05,-1.4817005649092607e-05,5.283163773128763e-05
1.4023280527908355e-05,-4.1561026591807604e-05,3.9178470615297556e-05,5.922250056755729e-05,-2.2127247575554065e-05,5.2905783377354965e-05
1.1605197869357653e-05,-4.2135063267778605e-05,4.158632509643212e-05,7.02723627910018e-05,-2.4261666112579405e-05,5.7474237110000104e-05
9.453970960748848e-06,-4.265863026375882e-05,4.000587796326727e-05,6.783149001421407e-05,-2.2031601474736817e-05,6.408368790289387e-05
1.1373080269549973e-05,-4.251788413967006e-05,3.840672070509754e-05,5.3930922149447724e-05,-2.1641983039444312e-05,6.47154520265758e-05
1.8046550394501537e-05,-4.5674289140151814e-05,3.471267336863093e-05,3.729011586983688e-05,-2.1916448531555943e-05,5.8940091548720375e-05
2.6724921553977765e-05,-4.882531720795669e-05,3.0254141165642068e-05,3.2113795896293595e-05,-2.1733631001552567e-05,5.4367472330341116e-05
3.416838444536552e-05,-5.055919609731063e-05,2.5985616957768798e-05,3.3352462196489796e-05,-2.1090059817652218e-05,5.4806201660539955e-05
3.7445061025209725e-05,-5.100180351291783e-05,2.2677302695228718e-05,3.451407246757299e-05,-1.7478643712820485e-05,5.448063529911451e-05
3.645265314844437e-05,-5.197235441301018e-05,2.4756804123171605e-05,3.251768066547811e-05,-1.5021857507235836e-05,5.37559790245723e-05
3.2837979233590886e-05,-5.456271901493892e-05,2.86486010736553e-05,3.018484312633518e-05,-1.531048837932758e-05,5.454491110867821e-05
3.0501405490213074e-05,-5.711184348911047e-05,3.014918911503628e-05,2.9532255211961456e-05,-1.4175923752191011e-05,5.376968692871742e-05
3.148521500406787e-05,-5.558787961490452e-05,3.119010216323659e-05,3.074282722081989e-05,-1.1517055099830031e-05,5.884275014977902e-05
3.1957821192918345e-05,-5.188786963117309e-05,3.2117910450324416e-05,3.178776751155965e-05,-1.0429030226077884e-05,7.248960173455998e-05
2.8481465051299892e-05,-4.921918662148528e-05,3.234214091207832e-05,3.214841490262188e-05,-9.619830052542966e-06,8.736999734537676e-05
2.115656570822466e-05,-4.9372640205547214e-05,3.176035170326941e-05,3.3716976759023964e-05,-6.124751052993815e-06,9.598864562576637e-05
1.6381000023102388e-05,-5.2242805395508185e-05,3.1474537536269054e-05,3.439194551901892e-05,-1.1113376103821793e-06,9.913769463310018e-05
1.9202003386453725e-05,-5.47760100744199e-05,3.0255570891313255e-05,3.319221286801621e-05,-1.4560936278940062e-07,0.00010029166878666729
2.6105448341695592e-05,-5.5543707276228815e-05,2.8396942070685327e-05,2.9400776838883758e-05,-2.6440357032697648e-06,9.850344940787181e-05
2.9497077775886282e-05,-5.313248038874008e-05,2.9547451049438678e-05,2.6818794140126556e-05,-3.882866167259635e-06,9.402999421581626e-05
2.819583096425049e-05,-4.820021058549173e-05,3.190422285115346e-05,2.7765850973082706e-05,-3.6597421058104374e-06,9.241052612196654e-05
2.5931880372809246e-05,-4.231074854033068e-05,3.2149146136362106e-05,3.168833063682541e-05,-5.661524937750073e-06,9.564032370690256e-05
2.6372008505859412e-05,-4.226081364322454e-05,3.349893813719973e-05,3.495790224405937e-05,-1.167758910014527e-05,0.00010374901467002928
3.037249371118378e-05,-4.892856304650195e-05,3.424247552175075e-05,3.4816293918993324e-05,-1.5449735656147823e-05,0.00010965194087475538
3.346050652908161e-05,-5.3781401220476255e-05,3.337721136631444e-05,3.1529110856354237e-05,-1.459919167245971e-05,0.00010845178621821105
3.554130671545863e-05,-5.5829052143963054e-05,3.061654570046812e-05,3.251979796914384e-05,-1.2105902897019405e-05,0.00010654203651938587
3.4799402783392e-05,-5.454197889775969e-05,2.95821409963537e-05,3.57997341779992e-05,-1.0015740372182336e-05,0.00010114017641171813
3.0735827749595046e-05,-5.086053715785965e-05,3.289017331553623e-05,3.492122414172627e-05,-1.1493262718431652e-05,9.391899220645428e-05
2.9182725484133698e-05,-5.3592502808896825e-05,3.3938060369109735e-05,3.406505493330769e-05,-1.1646176062640734e-05,8.669161616126075e-05
2.7465524908620864e-05,-5.861169483978301e-05,3.1784686143510044e-05,2.8544960514409468e-05,-1.0470427696418483e-05,8.159468416124582e-05
2.6640791475074366e-05,-6.052759272279218e-05,2.8593127353815362e-05,1.563055775477551e-05,-8.265757060144097e-06,8.552851795684546e-05
2.8167989512439817e-05,-5.701943518943153e-05,2.7266274628345855e-05,2.738760485954117e-06,-6.6129268816439435e-06,9.106280049309134e-05
3.1029463571030647e-05,-5.119973138789646e-05,2.6583018552628346e-05,-8.344630259671248e-06,-7.14494717612979e-06,9.394995868206024e-05
3.1545623642159626e-05,-4.965237167198211e-05,2.4579243472544476e-05,-1.0553460924711544e-05,-6.260236659727525e-06,9.412649524165317e-05
2.827456410159357e-05,-4.930718205287121e-05,2.5019700842676684e-05,-3.643689524324145e-06,-3.0813566809229087e-06,9.270934970118105e-05
2.3938502636156045e-05,-4.914975943393074e-05,2.7490037609823048e-05,4.4426928980101366e-07,3.2844607176230056e-06,9.372326167067513e-05
2.1170819309190847e-05,-4.8861558752832934e-05,3.034142173419241e-05,-2.956431899292511e-06,8.0473791967961e-06,9.757855150382966e-05
1.9496956156217493e-05,-4.776036075782031e-05,3.469247531029396e-05,-1.907523483168916e-06,9.291106835007668e-06,0.00010049323464045301
1.9029032046091743e-05,-4.625896326615475e-05,3.791082781390287e-05,1.5093551155587193e-05,5.956130280537764e-06,9.599546319805086e-05
2.1518719222513027e-05,-4.419812103151344e-05,3.8452712033176795e-05,4.7870842536212876e-05,6.236669491954672e-08,8.818288188194856e-05
2.395961018919479e-05,-4.417405943968333e-05,3.758446837309748e-05,7.795332930982113e-05,-5.042532848165138e-06,8.33542799227871e-05
2.452282205922529e-05,-4.525859185378067e-05,3.6484358133748174e-05,8.6411957454402e-05,-7.800756975484546e-06,7.753752288408577e-05
2.3567463358631358e-05,-4.513245221460238e-05,3.694817132782191e-05,6.979407771723345e-05,-8.430021807726007e-06,6.522096373373643e-05
2.3218732167151757e-05,-4.5594129915116355e-05,3.777969322982244e-05,4.176098445896059e-05,-5.9017584135290235e-06,5.210325252846815e-05
2.253902130178176e-05,-4.877873288933188e-05,3.5225486499257386e-05,2.1245781681500375e-05,-1.135648631134245e-06,4.7042361984495074e-05
2.1305129848769866e-05,-5.174161196919158e-05,3.0377723305718973e-05,1.9555986000341363e-05,1.678017156336864e-06,4.7164910938590765e-05
2.1015146558056585e-05,-5.061125193606131e-05,2.987849984492641e-05,3.750131145352498e-05,-3.5432026379567105e-07,4.346032801549882e-05
2.0815412426600233e-05,-4.681952850660309e-05,3.3872449421323836e-05,6.527785444632173e-05,-4.452835582924308e-06,3.584075966500677e-05
1.8852620996767655e-05,-4.4108372094342485e-05,3.527421358739957e-05,8.732185960980132e-05,-6.022276920703007e-06,2.9114420613041148e-05
1.8741398889687844e-05,-4.55122280982323e-05,3.4486780350562185e-05,9.068874351214617e-05,-3.178627366651199e-06,2.6403975425637327e-05
2.0922838302794844e-05,-4.708431151811965e-05,3.421933070058003e-05,7.772536628181115e-05,1.414438770552806e-06,2.6392846848466434e-05
2.1252739315968938e-05,-4.6502322220476344e-05,3.337477028253488e-05,5.867474465048872e-05,4.372377588879317e-07,3.081866088905372e-05
1.9819053704850376e-05,-4.522928793448955e-05,3.435924736550078e-05,4.1969731682911515e-05,-2.245559926450369e-06,4.341497697168961e-05
1.8352604456595145e-05,-4.3349162297090515e-05,3.361521157785319e-05,3.142932473565452e-05,-3.5880430004908703e-06,5.258912278804928e-05
1.7115022274083458e-05,-4.519227150012739e-05,2.793403655232396e-05,2.7166175641468726e-05,-6.822742761869449e-06,5.529579721041955e-05
1.7418897186871618e-05,-4.6768174797762185e-05,2.6782223358168267e-05,1.8440270650899038e-05,-1.1448783880041447e-05,5.464583955472335e-05
2.0791158021893352e-05,-4.496059045777656e-05,3.0598828743677586e-05,1.5323576008086093e-05,-1.4068815289647318e-05,5.1118819101247936e-05
2.3668791982345283e-05,-4.387559965834953e-05,3.0573923140764236e-05,2.483559183019679e-05,-1.7664955521468073e-05,4.921879371977411e-05
2.3693854018347338e-05,-4.522296512732282e-05,2.5137869670288637e-05,3.440027649048716e-05,-2.1226102035143413e-05,5.016127397539094e-05
2.349132228118833e-05,-4.755265763378702e-05,1.9661241822177544e-05,3.812817521975376e-05,-1.909101956698578e-05,4.9750735342968255e-05
2.262474845338147e-05,-4.773128966917284e-05,2.102889266097918e-05,3.494762859190814e-05,-1.4600551367038861e-05,4.4259868445806205e-05
2.1321302483556792e-05,-4.770260784425773e-05,2.4722019588807598e-05,2.7985968699795194e-05,-1.5849773262743838e-05,3.760762410820462e-05
1.9415976566961035e-05,-4.6684614062542096e-05,2.6388390324427746e-05,2.046482768491842e-05,-2.1884026864427142e-05,2.396032323304098e-05
1.7184504031320103e-05,-4.5956414396641776e-05,2.8730395570164546e-05,1.3340053556021303e-05,-2.324673369002994e-05,4.847163381782593e-06
1.5715082554379478e-05,-4.687100590672344e-05,3.227495835744776e-05,1.003764191409573e-05,-1.920150316436775e-05,-1.0975958502967842e-05
1.8043410818791017e-05,-4.814508429262787e-05,3.66760759789031e-05,8.002103641047142e-06,-1.530663575977087e-05,-1.719428109936416e-05
2.1828374883625656e-05,-4.7046312829479575e-05,4.015200465801172e-05,4.8126962610695045e-06,-1.3365056474867743e-05,-1.2726306522381492e-05
2.2763109882362187e-05,-4.320129664847627e-05,3.9639027818338946e-05,4.1016405702976044e-06,-1.2147568668297026e-05,-5.311243057803949e-06
2.1902942535234615e-05,-3.9144433685578406e-05,3.527677836245857e-05,3.5539965210773516e-06,-1.0351132914365735e-05,-3.1142119496507803e-06
2.220081296400167e-05,-3.641211151261814e-05,3.093023769906722e-05,-3.7537374737439677e-06,-5.9273202168697026e-06,-5.244721705821576e-06
2.2779699065722525e-05,-3.7066412915010005e-05,2.98546401609201e-05,-1.7731636035023257e-05,3.027514310360857e-07,-1.5464966054423712e-06
2.125858918589074e-05,-4.051561700180173e-05,3.326195292174816e-05,-2.407332976872567e-05,5.9048384173365775e-06,1.241326390299946e-05
2.0259547454770654e-05,-4.32287561125122e-05,3.7355785025283694e-05,-9.921681339619681e-06,8.597060514148325e-06,3.1392875825986266e-05
2.154937646992039e-05,-4.292345329304226e-05,3.782251224038191e-05,1.725023685139604e-05,7.11270058673108e-06,4.7022320359246805e-05
2.3934884666232392e-05,-4.183488272246905e-05,3.552302223397419e-05,3.7850626540603116e-05,1.926017830555793e-06,5.2941544709028676e-05
2.4093224055832252e-05,-4.3781597923953086e-05,3.336622103233822e-05,3.923571057384834e-05,-2.3075617718859576e-06,4.715403701993637e-05
2.195209890487604e-05,-4.631318006431684e-05,3.307894803583622e-05,2.6563820938463323e-05,-4.498221187532181e-06,3.9323862438322976e-05
1.8431514035910368e-05,-4.678580808104016e-05,3.261384699726477e-05,2.0128945834585465e-05,-9.377812602906488e-06,3.450205986155197e-05
1.633433930692263e-05,-5.077139940112829e-05,2.8757407562807202e-05,2.4187411327147856e-05,-1.6251105989795178e-05,3.474726327112876e-05
1.3426499208435416e-05,-5.560847421293147e-05,2.584797221061308e-05,3.476161873550154e-05,-2.129435961251147e-05,4.035664824186824e-05
1.2235328540555201e-05,-5.611624146695249e-05,3.07305199385155e-05,4.523021198110655e-05,-2.2511645511258394e-05,4.921661093248986e-05
1.1469210221548565e-05,-5.518324542208575e-05,3.8060643419157714e-05,4.159732998232357e-05,-1.9154202163917944e-05,6.203864177223295e-05
1.0799993106047623e-05,-5.392133243731223e-05,3.987843592767604e-05,2.9529473977163434e-05,-1.271193195861997e-05,7.45935394661501e-05
1.309382150793681e-05,-5.2609007980208844e-05,3.78618024114985e-05,1.5871301002334803e-05,-7.336489943554625e-06,7.896016904851422e-05
1.786284519766923e-05,-5.2071067329961807e-05,3.2652871595928445e-05,7.626761544088367e-06,-1.7591843288755626e-06,7.789040682837367e-05
2.5084307708311826e-05,-5.345156023395248e-05,3.0419279937632382e-05,9.724438314151485e-06,1.1580743830563733e-06,7.095298497006297e-05
2.7905851311516017e-05,-5.5971577239688486e-05,3.212333103874698e-05,1.4851321793685202e-05,-1.0436416459924658e-06,5.387025885283947e-05
2.4526591005269438e-05,-5.465835056384094e-05,3.1640505767427385e-05,1.8822544006980024e-05,-4.435733899299521e-06,3.522664701449685e-05
1.9414874259382486e-05,-4.9922597099794075e-05,2.9794273359584622e-05,2.294605837960262e-05,-8.462860932922922e-06,2.4803333872114308e-05
1.663779403315857e-05,-4.8144567699637264e-05,2.8203388865222223e-05,3.320037649245933e-05,-1.493695981480414e-05,2.020802094193641e-05
1.644802250666544e-05,-5.111021891934797e-05,2.68208677880466e-05,3.888467836077325e-05,-2.2474145225714892e-05,1.6870006220415235e-05
1.786703069228679e-05,-5.616607086267322e-05,2.3385131498798728e-05,3.295032729511149e-05,-2.3970929760253057e-05,1.5156323570408858e-05
1.811852962418925e-05,-5.7173368986696005e-05,2.1628549802699126e-05,2.192371539422311e-05,-1.8311282474314794e-05,1.62822561833309e-05
1.735428122628946e-05,-5.267811138764955e-05,2.5286739401053637e-05,1.864900696091354e-05,-1.0482391189725604e-05,2.4190063413698226e-05
1.6378397049265914e-05,-4.941111183143221e-05,3.054089756915346e-05,2.3217311536427587e-05,-5.456055077956989e-06,3.2471452868776396e-05
1.5522131434408948e-05,-4.954663381795399e-05,3.1022722396301106e-05,2.7334404876455665e-05,-5.048510047345189e-06,3.1062663765624166e-05
1.4664641639683396e-05,-5.098699693917297e-05,2.840967135853134e-05,2.7268166377325542e-05,-8.046790753724054e-06,2.104433224303648e-05
1.335619617748307e-05,-5.396295455284417e-05,2.907107955252286e-05,2.71861172222998e-05,-1.172499014501227e-05,1.4518346688419115e-05
1.256927953363629e-05,-5.755032179877162e-05,3.25287037412636e-05,3.13192285830155e-05,-1.3152030078344978e-05,2.31345729844179e-05
1.2176081327197608e-05,-5.8540441386867315e-05,3.437022678554058e-05,3.570733679225668e-05,-9.620363016438205e-06,4.271979923942126e-05
1.026932386594126e-05,-5.752561992267147e-05,3.3531992812640965e-05,4.113960676477291e-05,-3.998487954959273e-06,5.5764216085663065e-05
8.159801836882252e-06,-5.8494293625699356e-05,3.166420356137678e-05,4.797554720425978e-05,-2.3870727545727277e-06,5.164329195395112e-05
1.0368835319241043e-05,-6.02523832640145e-05,3.05410212604329e-05,5.268217500997707e-05,-5.793198852188652e-06,4.1016508475877345e-05
1.5585821529384702e-05,-6.0738711908925325e-05,3.1808212952455506e-05,5.099138797959313e-05,-9.899072210828308e-06,4.0553910366725177e-05
2.1511576051125303e-05,-6.119430327089503e-05,3.2969113817671314e-05,4.6722256229259074e-05,-1.0377355465607252e-05,4.7497764171566814e-05
2.571834556874819e-05,-5.902570774196647e-05,3.286382707301527e-05,4.391971378936432e-05,-1.1559927770576905e-05,5.116096144774929e-05
2.6585892555885948e-05,-5.819420039188117e-05,3.3235079172300175e-05,4.2786457925103605e-05,-1.3779240362055134e-05,5.247646913630888e-05
2.703775498957839e-05,-5.831108501297422e-05,3.323823693790473e-05,4.393202470964752e-05,-1.2031893675157335e-05,5.8348003221908584e-05
2.649231828399934e-05,-5.455796781461686e-05,3.211992952856235e-05,4.436284871189855e-05,-1.0400091923656873e-05,6.579517503269017e-05
2.4899163690861315e-05,-5.110320125822909e-05,3.175179153913632e-05,3.993893915321678e-05,-1.179248920379905e-05,6.676650809822604e-05
2.488713107595686e-05,-4.9054309783969074e-05,3.2003390515455976e-05,3.8802401832072064e-05,-1.552658977743704e-05,6.417796248570085e-05
2.5052942874026485e-05,-4.906771573587321e-05,3.0580704333260655e-05,3.811861097346991e-05,-1.82195635716198e-05,6.202529766596854e-05
2.6163550501223654e-05,-4.9484242481412366e-05,2.7098476493847556e-05,3.150486008962616e-05,-1.3696406313101761e-05,5.7772263971855864e-05
2.8592086891876534e-05,-4.8788853746373206e-05,2.559874155849684e-05,1.9195938875782304e-05,-7.311818535526982e-06,5.347059413907118e-05
2.9886592528782785e-05,-4.936235927743837e-05,2.7538759240997024e-05,6.328403287625406e-06,-4.61155559605686e-06,5.509184848051518e-05
2.999329626618419e-05,-4.909493509330787e-05,3.0388568120542914e-05,1.7659345985521213e-06,-3.5637274322652956e-06,6.528054655063897e-05
3.0099505238467827e-05,-4.6507848310284317e-05,3.206720793968998e-05,1.0795060006785206e-05,-3.7589761632261798e-06,7.566442218376324e-05
2.8544560336740687e-05,-4.256606553099118e-05,3.0311264708871022e-05,2.7288113415124826e-05,-3.133484824502375e-06,7.830529648344964e-05
2.5305698727606796e-05,-3.93773298128508e-05,2.9239676223369315e-05,3.95597999158781e-05,-1.960180497917463e-06,7.551328599220142e-05
2.2164353140396997e-05,-3.93998489016667e-05,3.110601028311066e-05,4.533501487458125e-05,-2.1904240838921396e-06,6.959529127925634e-05
2.2206366338650696e-05,-4.180431642453186e-05,3.3693169825710356e-05,4.660477497964166e-05,-4.0004097172641195e-06,6.419549026759341e-05
2.5694851501611993e-05,-4.357529542176053e-05,3.355025182827376e-05,4.4359490857459605e-05,-8.199025614885613e-06,5.891377804800868e-05
2.968120861623902e-05,-4.4478663767222315e-05,3.078713780269027e-05,3.552001726347953e-05,-1.3437324014375918e-05,4.736927439807914e-05
3.007131272170227e-05,-4.681540303863585e-05,2.576695078460034e-05,2.3921358661027625e-05,-1.746594898577314e-05,2.9872526283725165e-05
2.68918665824458e-05,-5.0928196287713945e-05,2.233457053080201e-05,1.6340527508873492e-05,-2.013863922911696e-05,1.885631718323566e-05
2.3631862859474495e-05,-5.358596899895929e-05,2.6137158783967607e-05,1.1130176062579267e-05,-2.292646786372643e-05,2.182802199968137e-05
2.0575282178469934e-05,-5.216441422817297e-05,3.290533277322538e-05,7.910080967121758e-06,-2.702337224036455e-05,3.177001781295985e-05
1.855581831478048e-05,-4.9779308028519154e-05,3.5819677577819675e-05,1.16499550131266e-05,-3.154765727231279e-05,4.33719324064441e-05
1.8632061255630106e-05,-4.878929757978767e-05,3.674027175293304e-05,1.890277417260222e-05,-3.336813460919075e-05,5.431331737781875e-05
2.0303690689615905e-05,-4.910301140625961e-05,3.6162247852189466e-05,2.236150248791091e-05,-3.3879656257340685e-05,6.075789133319631e-05
2.3292710466193967e-05,-5.0191891205031425e-05,3.509665111778304e-05,2.0392570149851963e-05,-4.214989166939631e-05,6.372335337800905e-05
2.6359824914834462e-05,-5.178089486435056e-05,3.605087476898916e-05,1.9653911294881254e-05,-6.194127490743995e-05,6.17696059634909e-05
2.566538387327455e-05,-5.387269629864022e-05,3.5661552828969434e-05,2.056236917269416e-05,-8.230895036831498e-05,5.513016731129028e-05
2.1017793187638745e-05,-5.388674617279321e-05,3.3952233934542164e-05,2.009595300478395e-05,-9.154474537353963e-05,4.8443631385453045e-05
1.570972199260723e-05,-4.9829242925625294e-05,3.124121576547623e-05,2.103927909047343e-05,-8.886517025530338e-05,4.5904966100351885e-05
1.2172433343948796e-05,-4.589851596392691e-05,3.1746068998472765e-05,2.1521749658859335e-05,-7.867177191656083e-05,4.883001747657545e-05
1.046327543008374e-05,-4.584619091474451e-05,3.5455101169645786e-05,2.7553676773095503e-05,-6.228889105841517e-05,5.205441630096175e-05
1.09650100057479e-05,-4.762268508784473e-05,3.890105654136278e-05,4.407684173202142e-05,-4.297295163269155e-05,5.267308006295934e-05
1.3304704225447495e-05,-4.9572470743441954e-05,3.75628296751529e-05,6.384943844750524e-05,-1.8059070498566143e-05,5.5626118410145864e-05
1.5962490579113364e-05,-5.104011870571412e-05,3.648682832135819e-05,7.286325126187876e-05,1.5161250303208362e-05,6.597240280825645e-05
1.8223536244477145e-05,-5.361965668271296e-05,3.8091213355073705e-05,6.667961861239746e-05,4.7277706471504644e-05,8.084634464466944e-05
2.058402606053278e-05,-5.469896859722212e-05,3.9013513742247596e-05,5.538187542697415e-05,7.530093716923147e-05,9.629868145566434e-05
2.334213422727771e-05,-5.2789309847867116e-05,3.852803638437763e-05,4.5367702114162967e-05,9.723727271193638e-05,0.00010782146273413673
2.7888358090422116e-05,-5.11224425281398e-05,3.628562990343198e-05,3.8995251088635996e-05,0.00010580598609521985,0.00010962258238578215
3.063334952457808e-05,-4.972057286067866e-05,3.6168017686577514e-05,3.6088935303268954e-05,9.994487481890246e-05,0.00010468866094015539
2.8490700060501695e-05,-4.990680463379249e-05,3.7966299714753404e-05,3.686045602080412e-05,8.650992822367698e-05,9.775362559594214e-05
2.419732845737599e-05,-5.176842387299985e-05,3.8482809031847864e-05,3.4208729630336165e-05,7.098999049048871e-05,8.59504216350615e-05
2.2958505724091083e-05,-5.295413575368002e-05,3.582159843062982e-05,2.5927451133611612e-05,5.306106322677806e-05,7.020920020295307e-05
2.44563434534939e-05,-5.277656237012707e-05,3.163354267599061e-05,1.620943658053875e-05,3.3951593650272116e-05,5.543883889913559e-05
2.772194602584932e-05,-5.386799239204265e-05,2.9595536034321412e-05,7.931242180347908e-06,1.9125338440062478e-05,4.274084494682029e-05
3.302427285234444e-05,-5.529359259526245e-05,3.240847581764683e-05,-4.0232819742413994e-07,9.650445463194046e-06,3.4412838431308046e-05
3.794501753873192e-05,-5.612518361886032e-05,3.7019355659140274e-05,-6.899168965901481e-06,2.5011688649101416e-06,3.1386498449137434e-05
3.959814057452604e-05,-5.571997462539002e-05,3.793244468397461e-05,4.910862116958015e-06,-4.093380539416103e-06,3.454631587374024e-05
3.864226891892031e-05,-5.4388863645726815e-05,3.564623330021277e-05,3.975998333771713e-05,-9.882701306196395e-06,4.72967149107717e-05
3.902926982846111e-05,-5.125757525092922e-05,3.475892299320549e-05,7.570575689896941e-05,-1.5426381651195697e-05,6.782866694265977e-05
4.086133048986085e-05,-4.800952228833921e-05,3.414635284570977e-05,8.841964154271409e-05,-1.9712417270056903e-05,8.508832252118737e-05
4.248357436154038e-05,-4.660606282413937e-05,2.950193447759375e-05,7.59165413910523e-05,-2.3373233489110135e-05,8.798109774943441e-05
4.12062399846036e-05,-4.573655314743519e-05,2.43063441303093e-05,5.4924297728575766e-05,-3.004923382832203e-05,8.312578574987128e-05
3.517778168315999e-05,-4.842742782784626e-05,2.467449667165056e-05,3.856840339722112e-05,-3.841523721348494e-05,7.676213135709986e-05
2.791518454614561e-05,-4.9752437917049974e-05,2.74541544058593e-05,2.8437789296731353e-05,-5.4149179050000384e-05,6.872963422210887e-05
2.4077522539300844e-05,-4.806945798918605e-05,3.0080898795858957e-05,2.1754538465756923e-05,-8.233998232753947e-05,6.202169606694952e-05
2.3913447876111604e-05,-4.507393896346912e-05,3.3488275221316144e-05,1.747684473230038e-05,-0.00011154554522363469,5.376380431698635e-05
2.4111066522891633e-05,-4.3738455133279786e-05,3.4254386264365166e-05,1.9922807041439228e-05,-0.0001195251097669825,4.79914087918587e-05
1.9361943486728705e-05,-4.579008964356035e-05,3.415039100218564e-05,2.2702057322021574e-05,-0.00010424062929814681,4.148425068706274e-05
1.5028801499283873e-05,-4.602238186635077e-05,3.564268990885466e-05,2.556779327278491e-05,-7.98078763182275e-05,3.486972127575427e-05
1.8046606783173047e-05,-4.717795309261419e-05,3.519405436236411e-05,3.0589275411330163e-05,-5.417848296929151e-05,4.044975503347814e-05
2.414435766695533e-05,-4.9250487791141495e-05,3.509296220727265e-05,2.766076613625046e-05,-3.094723797403276e-05,5.2377763495314866e-05
2.579561623861082e-05,-4.989781882613897e-05,3.5062421375187114e-05,2.13411076401826e-05,-6.970457889110548e-06,5.8171735872747377e-05
2.2834436094854027e-05,-4.9202728405361995e-05,3.4888056688942015e-05,1.855617119872477e-05,1.596102629264351e-05,5.644592602038756e-05
2.2150186850922182e-05,-4.958115823683329e-05,3.450516305747442e-05,1.4029670637683012e-05,3.49604306393303e-05,5.777900878456421e-05
2.4756902348599397e-05,-5.032801709603518e-05,3.480924715404399e-05,9.864850653684698e-06,4.7863064537523314e-05,6.709256558679044e-05
2.304251211171504e-05,-4.878388062934391e-05,3.255898627685383e-05,8.76603189681191e-06,5.4861164244357497e-05,7.873804133851081e-05
1.704837086435873e-05,-4.68915059173014e-05,2.9408465707092546e-05,8.182530109479558e-06,5.809569120174274e-05,8.431843161815777e-05
1.0936631042568479e-05,-4.5240525651024655e-05,2.926112210843712e-05,4.3899513002543245e-06,5.895942013012245e-05,8.043920388445258e-05
8.6128993643797e-06,-4.5652257540496066e-05,2.934541043941863e-05,-8.62811475599301e-07,5.677108856616542e-05,7.105613622115925e-05
1.0318253771401942e-05,-4.529420402832329e-05,2.771852450678125e-05,-9.695676226328942e-07,5.0855269364546984e-05,5.9852787671843544e-05
1.607098056410905e-05,-4.240407724864781e-05,2.3252887331182137e-05,5.696661446563667e-06,4.037367398268543e-05,4.970204463461414e-05
2.3954935386427678e-05,-3.9072456274880096e-05,1.8186232409789227e-05,2.247700649604667e-05,2.693853821256198e-05,4.843552233069204e-05
3.262441168772057e-05,-3.890481821144931e-05,1.69743307196768e-05,4.9385846068616956e-05,1.3560205843532458e-05,5.376238186727278e-05
4.101134618395008e-05,-4.2248171666869894e-05,2.0846049665124156e-05,7.129058940336108e-05,3.3056983284041053e-06,5.420447632786818e-05
4.3503951019374654e-05,-4.684650048147887e-05,2.4548613509978168e-05,6.978744931984693e-05,-1.8998639461642597e-06,4.7297857236117125e-05
3.912759348168038e-05,-4.9904094339581206e-05,2.7317295462125912e-05,4.791482933796942e-05,-6.976068107178435e-06,3.759238461498171e-05
3.320522955618799e-05,-4.959982106811367e-05,2.8010594178340398e-05,2.0410170691320673e-05,-1.4605508113163523e-05,2.8312080758041702e-05
3.0584818887291476e-05,-4.7279732825700194e-05,2.759751077974215e-05,-3.241190142944106e-06,-1.7890693925437517e-05,2.8197409847052768e-05
2.9860215363441966e-05,-4.5847926230635494e-05,2.9277402063598856e-05,-2.231119833595585e-05,-1.3551115443988238e-05,3.898528666468337e-05
2.7687248802976683e-05,-4.501303192228079e-05,3.17750709655229e-05,-3.666469274321571e-05,-9.651887921791058e-06,4.931168587063439e-05
2.2928896214580163e-05,-4.3873729737242684e-05,3.147041206830181e-05,-4.384034400573e-05,-7.0394571594079025e-06,5.5168962717289105e-05
1.962826536328066e-05,-4.250935307936743e-05,3.28772803186439e-05,-4.253010774846189e-05,-4.5648030209122226e-06,5.9012592828366905e-05
2.076593227684498e-05,-4.355018609203398e-05,3.468567956588231e-05,-4.320642619859427e-05,-3.905346147803357e-06,6.378207763191313e-05
2.6454812541487627e-05,-4.627520320354961e-05,3.4486729418858886e-05,-5.0151236791862175e-05,-6.067284175514942e-06,6.993713759584352e-05
3.078331064898521e-05,-4.495586108532734e-05,3.8639031117782e-05,-3.443026798777282e-05,-1.107742718886584e-05,6.602487701456994e-05
2.8235359422978945e-05,-4.195585279376246e-05,4.415287548908964e-05,2.146402584912721e-05,-1.6601788956904784e-05,5.381700611906126e-05
2.1612811906379648e-05,-4.1098694055108353e-05,4.1918683564290404e-05,9.729749581310898e-05,-2.4199123799917288e-05,5.2812301873927936e-05
1.571706889080815e-05,-4.612913107848726e-05,3.781971463467926e-05,0.00015308434376493096,-2.8552545700222254e-05,6.3966894231271e-05
1.182951655209763e-05,-5.193908873479813e-05,3.717944855452515e-05,0.00016923896328080446,-2.637709621922113e-05,7.65536242397502e-05
9.4004417405813e-06,-5.383475945563987e-05,3.594072040868923e-05,0.0001511180744273588,-2.64003192569362e-05,7.408783858409151e-05
6.8201179601601325e-06,-5.40573091711849e-05,3.319659663247876e-05,0.0001167559894383885,-2.8084485165891238e-05,6.18117701378651e-05
6.2575709307566285e-06,-5.3654159273719415e-05,3.078096779063344e-05,8.698458987055346e-05,-2.896391561080236e-05,5.390688238549046e-05
6.739031505276216e-06,-5.4810941946925595e-05,3.212160663679242e-05,6.639669300056994e-05,-2.7510930522112176e-05,5.198018698138185e-05
7.738693057035562e-06,-5.817358396598138e-05,3.490143353701569e-05,5.308500476530753e-05,-2.5702576749608852e-05,5.311568747856654e-05
5.860050805495121e-06,-5.8814450312638655e-05,3.6019282561028376e-05,4.274634557077661e-05,-2.318907354492694e-05,5.624060213449411e-05
1.189969111692335e-06,-5.530696944333613e-05,3.356057277414948e-05,3.5159966500941664e-05,-2.0777795725734904e-05,6.104788917582482e-05
1.6542369962735393e-07,-5.2745381253771484e-05,3.0502582376357168e-05,2.851345379895065e-05,-1.9784585674642585e-05,6.216235487954691e-05
3.3595163131394656e-06,-5.432549005490728e-05,2.849527299986221e-05,2.185361518058926e-05,-1.9692837668117136e-05,5.973683437332511e-05
8.224597877415363e-06,-5.8043933677254245e-05,2.927465902757831e-05,1.7638600184000097e-05,-1.8771994291455485e-05,5.957050234428607e-05
1.3063797268841881e-05,-5.8877194533124566e-05,3.260131779825315e-05,1.7490936443209648e-05,-1.6984742615022697e-05,6.059238876332529e-05
1.753693140926771e-05,-5.6126791605493054e-05,3.408697011764161e-05,1.8745417037280276e-05,-1.4856498637527693e-05,5.713036807719618e-05
2.0813033188460395e-05,-5.497249367181212e-05,3.301133983768523e-05,1.924039315781556e-05,-1.2139053978899028e-05,5.2786996093345806e-05
2.236364161944948e-05,-5.597385097644292e-05,3.3239619369851425e-05,1.8976796127390116e-05,-1.0594299055810552e-05,5.259917816147208e-05
2.1596240912913345e-05,-5.5571239499840885e-05,3.530506364768371e-05,1.9397080905037e-05,-1.042454459820874e-05,5.6186981964856386e-05
2.0354587832116522e-05,-5.445449278340675e-05,3.7314443034119904e-05,2.060739279841073e-05,-1.1646139682852663e-05,5.923707794863731e-05
1.956770574906841e-05,-5.289227556204423e-05,3.823757288046181e-05,1.7698253941489384e-05,-1.216926011693431e-05,5.630704254144803e-05
2.182874050049577e-05,-5.307310129865073e-05,3.524610656313598e-05,1.2344169590505771e-05,-1.2223610610817559e-05,4.876356615568511e-05
2.2501662897411734e-05,-5.487159069161862e-05,2.90510924969567e-05,1.1034419003408402e-05,-1.4127403119346127e-05,4.604528658092022e-05
1.8745602574199438e-05,-5.396448977990076e-05,2.3721868274151348e-05,1.3301760191097856e-05,-1.750371120579075e-05,4.657192766899243e-05
1.764428634487558e-05,-5.062513082521036e-05,2.4746734197833575e-05,1.52555576278246e-05,-1.6845391655806452e-05,5.075394801679067e-05
2.289737130922731e-05,-4.8742473154561594e-05,2.8304371880949475e-05,1.753831747919321e-05,-1.5069996152305976e-05,5.188183058635332e-05
2.7594594939728267e-05,-5.0807422667276114e-05,2.7548292564461008e-05,2.0578432668116875e-05,-1.3001169463677797e-05,4.826290751225315e-05
2.6271058231941424e-05,-5.418752698460594e-05,2.4941860829130746e-05,2.3939677703310736e-05,-1.1923950296477415e-05,4.700784484157339e-05
2.4971372113213874e-05,-5.577934643952176e-05,2.39454057009425e-05,2.412775756965857e-05,-1.2698521459242329e-05,4.945630644215271e-05
2.7927268092753366e-05,-5.586876432062127e-05,2.383672836003825e-05,2.0643674361053854e-05,-1.579334093548823e-05,5.488162787514739e-05
3.3054660889320076e-05,-5.455154678202234e-05,2.472828418831341e-05,1.905362296383828e-05,-1.673384576861281e-05,5.58620595256798e-05
3.362837742315605e-05,-5.3988209401723e-05,2.5685281798359938e-05,1.8424609152134508e-05,-1.7337541066808626e-05,6.16315082879737e-05
3.0079132557148114e-05,-5.409866935224272e-05,2.6625817554304376e-05,1.6393032638006844e-05,-2.019027670030482e-05,8.04256196715869e-05
2.602289168862626e-05,-5.515212978934869e-05,2.7464828235679306e-05,1.7756330635165796e-05,-2.1835463485331275e-05,0.00010133181058336049
2.3496706489822827e-05,-5.471974509418942e-05,2.6207622795482166e-05,2.28148255700944e-05,-2.315031088073738e-05,0.0001099846776924096
2.444259007461369e-05,-4.948327477904968e-05,2.482360832800623e-05,2.7649533876683563e-05,-2.3251655875355937e-05,0.00010217077942797914
2.4672459403518587e-05,-4.441612691152841e-05,2.6105757569894195e-05,2.837919419107493e-05,-2.1790478058392182e-05,8.240003808168694e-05
2.2674663341604173e-05,-4.320011066738516e-05,2.9060252927592956e-05,2.7091329684481025e-05,-1.858661744336132e-05,5.936652814853005e-05
1.9755174434976652e-05,-4.4404208892956376e-05,3.080780879827216e-05,2.6247394998790696e-05,-1.7275797290494666e-05,3.9885719161247835e-05
1.6068011973402463e-05,-4.432289642863907e-05,3.0455561500275508e-05,2.5593910322641023e-05,-2.0007664716104046e-05,2.7212478016735986e-05
1.2692442396655679e-05,-4.4299773435341194e-05,2.8791862860089168e-05,2.461630356265232e-05,-2.51512392424047e-05,2.2561871446669102e-05
1.3545162801165134e-05,-4.680479833041318e-05,3.0307648557936773e-05,2.278750980622135e-05,-2.7583097107708454e-05,2.529931407480035e-05
1.8259965145261958e-05,-4.927991176373325e-05,3.647850462584756e-05,2.1234196537989192e-05,-2.7087178750662133e-05,3.5027220292249694e-05
2.1240672140265815e-05,-4.93033803650178e-05,3.9322425436694175e-05,2.3452203095075674e-05,-2.5548870326019824e-05,4.828375676879659e-05
2.1087853383505717e-05,-4.679073754232377e-05,3.7246354622766376e-05,3.1122031941777095e-05,-2.1906394977122545e-05,6.147650128696114e-05
1.950395744643174e-05,-4.393450217321515e-05,3.646111144917086e-05,3.5343586205272004e-05,-1.6740490536903962e-05,7.17888688086532e-05
1.7909607777255587e-05,-4.3815711251227185e-05,3.586440288927406e-05,3.399001434445381e-05,-1.2736193639284465e-05,8.142880687955767e-05
2.0189641873002984e-05,-4.6833123633405194e-05,3.3105246984632686e-05,3.437838677200489e-05,-1.1117376743641216e-05,9.13314797799103e-05
2.4996787033160217e-05,-5.04057425132487e-05,3.0492788937408477e-05,3.8460741052404046e-05,-1.190415150631452e-05,9.298095392296091e-05
2.6370331397629343e-05,-5.2199287893017754e-05,2.9078926672809757e-05,4.3744523281930014e-05,-1.3249475159682333e-05,8.399884973187e-05
2.2909714971319772e-05,-5.157212581252679e-05,3.0253555451054126e-05,4.199627073830925e-05,-9.517287253402174e-06,7.575731433462352e-05
1.8399969121674076e-05,-5.004114063922316e-05,3.0509081625496037e-05,3.063803160330281e-05,1.12201325919159e-06,6.844331801403314e-05
1.9281409549876116e-05,-4.9439961003372446e-05,2.6925181373371743e-05,2.0041317839059047e-05,8.58881958265556e-06,6.334306817734614e-05
2.4704451789148152e-05,-5.036466973251663e-05,2.6305966457584873e-05,1.2891439837403595e-05,8.138872544805054e-06,6.606222450500354e-05
3.063611075049266e-05,-5.2902167226420715e-05,2.976860196213238e-05,8.52152516017668e-06,4.665094820666127e-06,7.298647688003257e-05
3.420357097638771e-05,-5.5691863963147625e-05,3.2230454962700605e-05,7.327204457396874e-06,1.1962160897383e-06,7.62431081966497e-05
3.123255737591535e-05,-5.8649369748309255e-05,3.021365773747675e-05,7.43870577935013e-06,-2.6509496819926426e-06,7.097891648299992e-05
2.7349917218089104e-05,-5.8630994317354634e-05,2.9411075956886634e-05,1.0954562640108634e-05,-6.0779802879551426e-06,6.557700544362888e-05
2.6561934646451846e-05,-5.5342588893836364e-05,3.118787572020665e-05,1.6890517144929618e-05,-5.849868102814071e-06,6.184207450132817e-05
2.466105252096895e-05,-5.29801327502355e-05,3.164019653922878e-05,2.354695061512757e-05,-3.457835191511549e-06,6.214015593286604e-05
2.1109992303536274e-05,-5.329572013579309e-05,3.372494029463269e-05,2.884484638343565e-05,-2.3283059817913454e-06,6.342038977891207e-05
1.940692527568899e-05,-5.558006159844808e-05,3.763640415854752e-05,3.0002343919477426e-05,-6.499751634692075e-06,6.499879236798733e-05
2.071916969725862e-05,-5.638040602207184e-05,3.954265412176028e-05,2.7314974431646988e-05,-1.9300470739835873e-05,6.318953819572926e-05
2.100314486597199e-05,-5.542835424421355e-05,3.772923082578927e-05,2.5443057893426158e-05,-3.3815984352258965e-05,5.350633728085086e-05
1.7625152395339683e-05,-5.5450716899940744e-05,3.665373878902756e-05,2.7090000003227033e-05,-4.1052546293940395e-05,4.649862603400834e-05
1.3762271919404157e-05,-5.5017204431351274e-05,3.709945303853601e-05,2.958034019684419e-05,-4.2336974729551e-05,4.696766336564906e-05
1.4044344425201416e-05,-4.977373464498669e-05,3.653756357380189e-05,3.122959969914518e-05,-4.6184741222532466e-05,5.10562167619355e-05
1.695111859589815e-05,-4.320653169997968e-05,3.2586049201199785e-05,2.9691698728129268e-05,-5.1704340876312926e-05,5.6233806390082464e-05
1.8257096598972566e-05,-4.272224032320082e-05,2.9715465643675998e-05,2.4996943466248922e-05,-5.021331526222639e-05,5.872774272575043e-05
1.6823030819068663e-05,-4.924766471958719e-05,3.157250102958642e-05,2.063177089439705e-05,-3.7625817640218884e-05,5.5841173889348283e-05
1.6460266124340706e-05,-5.5297768994932994e-05,3.479056613286957e-05,2.2384927433449775e-05,-1.581806645845063e-05,5.4597876442130655e-05
1.865773265308235e-05,-5.6927579862531275e-05,3.6024048313265666e-05,2.9761007681372575e-05,1.1103084943897557e-05,5.633589535136707e-05
2.0039433366036974e-05,-5.706101001123898e-05,3.600479249143973e-05,3.6732773878611624e-05,4.182372140348889e-05,5.7693043345352635e-05
2.014584606513381e-05,-5.571762812905945e-05,3.5286117054056376e-05,4.117349089938216e-05,7.031338464003056e-05,5.6443255743943155e-05
2.4060440409812145e-05,-5.2697283535962924e-05,3.5021916119148955e-05,4.277476546121761e-05,8.566142059862614e-05,5.7645571359898895e-05
3.114677747362293e-05,-5.1232917030574754e-05,3.849822678603232e-05,4.4846139644505456e-05,8.778405754128471e-05,6.123554339865223e-05
3.521612597978674e-05,-5.0369057134957984e-05,4.098712815903127e-05,4.762303433381021e-05,7.985336560523137e-05,6.149773253127933e-05
3.590154301491566e-05,-5.252566916169599e-05,3.7190213333815336e-05,4.678279583458789e-05,6.02836262260098e-05,5.981725553283468e-05
3.36362500092946e-05,-5.5487940699094906e-05,3.205718894605525e-05,4.5401269744616e-05,3.815468880929984e-05,6.056184065528214e-05
2.625983142934274e-05,-5.586322004091926e-05,3.2028696296038106e-05,4.581189205055125e-05,2.5029459720826708e-05,6.341954576782882e-05
1.8968101358041167e-05,-5.487205635290593e-05,3.477311474853195e-05,4.477838956518099e-05,1.671375139267184e-05,6.1586826632265e-05
1.7932623450178653e-05,-5.07796612509992e-05,3.492182077025063e-05,4.098897261428647e-05,7.268637091328856e-06,5.543763836612925e-05
1.902499934658408e-05,-4.813541818293743e-05,3.337979069328867e-05,3.889386425726116e-05,-2.4195676360250218e-06,4.953732786816545e-05
1.8147460650652647e-05,-4.856115992879495e-05,3.6581550375558436e-05,3.7214857002254575e-05,-1.759634142217692e-05,4.95217609568499e-05
1.7287209630012512e-05,-4.981038728146814e-05,3.955866486649029e-05,2.7041884095524438e-05,-4.232037827023305e-05,5.6535209296271205e-05
1.4152492440189235e-05,-4.95569001941476e-05,3.898477370967157e-05,1.1970644663961139e-05,-7.065604586387053e-05,5.843730832566507e-05
8.522923963028006e-06,-5.095127198728733e-05,3.70110574294813e-05,8.043733032536693e-06,-9.233506716554984e-05,5.4291467677103356e-05
7.867005479056388e-06,-5.48481366422493e-05,3.52115421264898e-05,1.853634421422612e-05,-0.00010125902917934582,5.190859519643709e-05
1.3888869943912141e-05,-5.5143693316495046e-05,3.6977500712964684e-05,3.486832429189235e-05,-9.296636562794447e-05,5.537659308174625e-05
2.1469060811796226e-05,-5.004319245927036e-05,3.897153874277137e-05,4.690116475103423e-05,-7.50359395169653e-05,5.832989336340688e-05
2.564957867434714e-05,-4.5679455070057884e-05,3.7986814277246594e-05,4.872404315392487e-05,-5.4622367315459996e-05,5.7694207498570904e-05
2.711560227908194e-05,-4.511393854045309e-05,3.6296034522820264e-05,4.223502764943987e-05,-3.3954533137148246e-05,6.116276927059516e-05
2.9927443392807618e-05,-4.6593911974923685e-05,3.702500544022769e-05,3.5778237361228094e-05,-1.3681909877050202e-05,6.696972559439018e-05
3.2954965718090534e-05,-4.7487468691542745e-05,3.9585651393281296e-05,3.536516669555567e-05,5.9437088566483e-06,6.678565114270896e-05
3.0596416763728485e-05,-4.5996617700438946e-05,4.0670645830687135e-05,3.639776696218178e-05,2.388951907050796e-05,6.241117080207914e-05
2.3830298232496716e-05,-4.4267173507250845e-05,3.83217484341003e-05,3.538035525707528e-05,3.7785743188578635e-05,5.871126631973311e-05
1.9547111151041463e-05,-4.2845789721468464e-05,3.460240623098798e-05,3.387298056622967e-05,4.517065826803446e-05,5.3814674174645916e-05
1.9574612451833673e-05,-4.230223930790089e-05,3.175900565111078e-05,3.491289680823684e-05,4.4899028580402955e-05,4.72275132779032e-05
1.970774246728979e-05,-4.494228051044047e-05,2.8789279895136133e-05,3.3866919693537056e-05,3.990972982137464e-05,4.340059604146518e-05
1.7567361282999627e-05,-4.939192513120361e-05,2.6570423869998194e-05,3.1081428460311145e-05,3.55907432094682e-05,4.486932448344305e-05
1.4203946193447337e-05,-5.032983244745992e-05,2.663553095771931e-05,3.279187512816861e-05,2.741423850238789e-05,4.9122983909910545e-05
1.2009353667963296e-05,-4.799434100277722e-05,2.7342219254933298e-05,3.5348290111869574e-05,1.5545008864137344e-05,5.388235877035186e-05
1.3129537364875432e-05,-4.6680423110956326e-05,2.6323374186176807e-05,3.176162135787308e-05,3.539725867085508e-06,5.46032351849135e-05
1.573877852933947e-05,-4.9804388254415244e-05,2.3015818442218006e-05,2.5819897928158753e-05,-2.858697598639992e-06,5.8172940043732524e-05
1.706017974356655e-05,-5.3319417929742485e-05,2.110690729750786e-05,2.4938919523265213e-05,-1.003380020847544e-05,6.42255981802009e-05
2.233934537798632e-05,-5.342710574041121e-05,2.3481121388613246e-05,2.4517066776752472e-05,-4.124388942727819e-05,6.379163096426055e-05
3.105089126620442e-05,-5.0288923375774175e-05,2.634678821777925e-05,2.111504363710992e-05,-8.666334906592965e-05,6.066392961656675e-05
3.414935417822562e-05,-4.797888686880469e-05,2.603870780149009e-05,1.987689029192552e-05,-0.00010820057650562376,6.591762939933687e-05
3.235867552575655e-05,-5.018610318074934e-05,2.726744787651114e-05,2.084652442135848e-05,-9.826628229347989e-05,7.108355930540711e-05
2.9798240575473756e-05,-5.2296167268650606e-05,3.108027158305049e-05,2.369772300880868e-05,-7.689622725592926e-05,6.864091847091913e-05
2.9564344004029408e-05,-5.1112041546730325e-05,3.292575274826959e-05,2.8213558834977448e-05,-5.9297497500665486e-05,7.003212522249669e-05
3.0465700547210872e-05,-4.747082857647911e-05,3.101380207226612e-05,3.018364805029705e-05,-3.931362152798101e-05,7.571754395030439e-05
2.9196093237260357e-05,-4.347160938777961e-05,2.731708991632331e-05,2.8183350877952762e-05,-1.3205605682742316e-05,8.006804273463786e-05
2.5660921892267652e-05,-3.817489050561562e-05,2.7179194148629904e-05,2.732161919993814e-05,1.343487292615464e-05,7.720949361100793e-05
2.079839941870887e-05,-3.4627995773917064e-05,3.0250052077462897e-05,3.009821921295952e-05,3.243814717279747e-05,6.79358490742743e-05
1.8584860299597494e-05,-3.54101175616961e-05,3.303206540294923e-05,3.268459840910509e-05,4.3056501453975216e-05,5.785321627627127e-05
1.9676805095514283e-05,-3.796170494752005e-05,3.459120853221975e-05,3.1853986001806334e-05,4.898400584352203e-05,5.211167081142776e-05
2.0824569219257683e-05,-3.9789800212020054e-05,3.414186357986182e-05,2.9084183552186005e-05,5.146134571987204e-05,5.103356670588255e-05
2.0360570488264784e-05,-4.0403716411674395e-05,3.154587830067612e-05,2.6206354959867895e-05,4.940579674439505e-05,5.193132892600261e-05
1.898454866022803e-05,-4.078385973116383e-05,2.9623561204061843e-05,2.505384327378124e-05,4.3484396883286536e-05,4.996129428036511e-05
1.858627911133226e-05,-4.003159119747579e-05,2.920148654084187e-05,2.5836716304183938e-05,3.8151792978169397e-05,4.505316246650182e-05
2.019356361415703e-05,-3.822655344265513e-05,2.8268745154491626e-05,2.374933501414489e-05,3.1775827665114775e-05,4.307140625314787e-05
2.085493724734988e-05,-3.8295409467536956e-05,2.6515748686506413e-05,1.7043617845047265e-05,2.2438043743022718e-05,4.318632272770628e-05
2.1120631572557613e-05,-4.1833296563709155e-05,2.6012008675024845e-05,8.350688403879758e-06,1.216230339196045e-05,4.603842899086885e-05
2.4402377675869502e-05,-4.6016120904823765e-05,2.6277270080754533e-05,2.5088661459449213e-06,5.478685125126503e-06,5.347552360035479e-05
2.7598391170613468e-05,-4.866328526986763e-05,2.7174120987183414e-05,3.6110056953475578e-06,7.794409953021386e-07,6.356299127219245e-05
2.619610313558951e-05,-4.8997557314578444e-05,2.8402970201568678e-05,9.69036864262307e-06,-4.999659722670913e-06,6.832303915871307e-05
2.0840123397647403e-05,-4.887581599177793e-05,3.00917454296723e-05,8.895148312149104e-06,-1.185681321658194e-05,6.48100467515178e-05
1.6366595446015708e-05,-4.985949635738507e-05,3.0979477742221206e-05,-1.5818295651115477e-06,-1.8245733372168615e-05,5.641129973810166e-05
1.3224837857706007e-05,-4.9531139666214585e-05,2.785559991025366e-05,-9.877437150862534e-06,-2.426674654998351e-05,5.104854790261015e-05
1.3808486983180046e-05,-4.672576324082911e-05,2.3294018319575116e-05,-1.2645286915358156e-05,-2.5667084628366865e-05,5.5184435041155666e-05
1.6522153600817546e-05,-4.411156987771392e-05,2.6491556127439253e-05,-1.035240802593762e-05,-2.101474819937721e-05,6.773861241526902e-05
1.9555880498955958e-05,-4.099094803677872e-05,3.729893796844408e-05,1.031015744956676e-05,-1.915941720653791e-05,8.441980753559619e-05
2.5051567718037404e-05,-3.9474260120186955e-05,4.2357900383649394e-05,4.6699398808414117e-05,-2.1113250113558024e-05,8.85539484443143e-05
2.9178190743550658e-05,-4.322072709328495e-05,4.3748350435635075e-05,7.03280747984536e-05,-2.2453174096881412e-05,7.96453095972538e-05
3.090137033723295e-05,-4.99142479384318e-05,4.306067057768814e-05,6.564435170730576e-05,-2.6332472771173343e-05,7.133954204618931e-05
2.955162744910922e-05,-5.3486601245822385e-05,3.923114127246663e-05,4.2430161556694657e-05,-2.6468722353456542e-05,6.726420542690903e-05
2.5867520889732987e-05,-5.0520789955044165e-05,3.3657895983196795e-05,2.443545963615179e-05,-1.9900444385712035e-05,6.404714804375544e-05
2.0881372620351613e-05,-4.669314148486592e-05,2.954761112050619e-05,3.0731662263860926e-05,-1.3244908586784732e-05,5.2615734603023157e-05
1.723941750242375e-05,-4.6868317440385e-05,3.0454573789029382e-05,5.8426307077752426e-05,-1.3600677448266651e-05,3.883937461068854e-05
1.5634797819075175e-05,-5.227039218880236e-05,3.287688741693273e-05,8.940177940530702e-05,-2.2912070562597364e-05,2.8758178814314306e-05
1.5267343769664876e-05,-5.7163288147421554e-05,3.226945409551263e-05,0.00010616573854349554,-3.448712595854886e-05,2.6051913664559834e-05
1.3290005881572142e-05,-5.7453944464214146e-05,2.727261744439602e-05,0.00010194865171797574,-4.379538222565316e-05,3.3272357541136444e-05
1.0980715160258114e-05,-5.6400873290840536e-05,2.3823638912290335e-05,7.990162703208625e-05,-5.026405051467009e-05,4.13472116633784e-05
1.0475865565240383e-05,-5.684029383701272e-05,2.3463268007617444e-05,5.300458724377677e-05,-5.420692468760535e-05,4.504825483309105e-05
9.889058674161788e-06,-5.731791679863818e-05,2.400291668891441e-05,3.667953205876984e-05,-5.3569925512420014e-05,4.898166662314907e-05
8.094186341622844e-06,-5.561197394854389e-05,2.6087303922395222e-05,3.302884579170495e-05,-4.69925653305836e-05,5.992523074382916e-05
7.680177986912895e-06,-5.4613374231848866e-05,3.0469067496596836e-05,3.068923615501262e-05,-3.7296427763067186e-05,7.21680698916316e-05
1.3242460227047559e-05,-5.577539559453726e-05,3.317515438538976e-05,2.2354115571943112e-05,-2.9577842724393122e-05,7.734107930446044e-05
1.9102179066976532e-05,-5.5905304179759696e-05,3.328352977405302e-05,1.0261303032166325e-05,-2.359823884034995e-05,7.313979585887864e-05
2.0601790311047807e-05,-5.367271296563558e-05,3.357646710355766e-05,-2.9257029154905467e-07,-1.8952398022520356e-05,6.459816358983517e-05
2.0794153897440992e-05,-5.177683851798065e-05,3.513025149004534e-05,-2.7025175768358167e-06,-1.7354628653265536e-05,5.76461898162961e-05
2.2363446987583302e-05,-5.009620144846849e-05,3.629040656960569e-05,6.123504590505036e-06,-1.6395666534663178e-05,5.772531221737154e-05
2.310119816684164e-05,-4.996178176952526e-05,3.382910290383734e-05,2.195355227740947e-05,-1.5821911802049726e-05,6.817697430960834e-05
2.3480963136535138e-05,-5.214591510593891e-05,2.895637408073526e-05,3.6477602407103404e-05,-1.833660644479096e-05,8.071182674029842e-05
2.4937473426689394e-05,-5.501967098098248e-05,2.5889135940815322e-05,4.0080885810311884e-05,-2.1613675926346332e-05,8.238002919824794e-05
2.701751873246394e-05,-5.6574910558993e-05,2.35376282944344e-05,3.203761298209429e-05,-2.014813435380347e-05,7.190515316324309e-05
2.6265312044415623e-05,-5.4754465963924304e-05,2.443579796818085e-05,2.5652801923570223e-05,-1.5114183042896912e-05,6.27271510893479e-05
2.4552296963520348e-05,-5.219162267167121e-05,2.893286909966264e-05,2.1958734578220174e-05,-8.539792361261789e-06,6.655368633801118e-05
2.3321605112869292e-05,-5.247421722742729e-05,3.116078005405143e-05,2.4243581719929352e-05,-3.0150531529216096e-06,6.998742901487276e-05
2.2748585251974873e-05,-5.262106060399674e-05,2.87826969724847e-05,3.812810609815642e-05,3.0566835107492807e-07,6.574992585228756e-05
2.6897505449596792e-05,-4.8715799493948e-05,2.6219564460916445e-05,5.053130007581785e-05,3.565641009117826e-06,6.403078441508114e-05
3.188134724041447e-05,-4.618600360117853e-05,2.8085467420169152e-05,5.343621160136536e-05,7.705818461545277e-06,6.47205815766938e-05
3.385282980161719e-05,-4.7272700612666085e-05,3.0617167794844136e-05,4.7314144467236474e-05,1.4005100638314616e-05,6.849502824479714e-05
3.4550950658740476e-05,-4.98618210258428e-05,3.226854096283205e-05,3.3106862247223035e-05,1.564523518027272e-05,7.15699206921272e-05
3.5438552004052326e-05,-5.285064617055468e-05,3.659028516267426e-05,2.2386380805983208e-05,1.3733331797993742e-05,7.107325654942542e-05
3.6448403989197686e-05,-5.4412452300312e-05,4.0676877688383684e-05,2.445056634314824e-05,9.853208212007303e-06,6.804450822528452e-05
3.29121648974251e-05,-5.431771569419652e-05,4.012104182038456e-05,3.279392694821581e-05,7.040006948955124e-06,6.8109598942101e-05
2.7249740014667623e-05,-5.209972368902527e-05,3.908917278749868e-05,3.722254768945277e-05,3.9423803173122e-06,6.935279816389084e-05
2.3755974325467832e-05,-4.825755240744911e-05,3.781644772971049e-05,3.383534567547031e-05,-1.0897072115767514e-06,6.591015699086711e-05
2.1720086806453764e-05,-4.629015165846795e-05,3.8465470424853265e-05,3.0187260563252494e-05,-5.500695351656759e-06,6.243626557989046e-05
2.1052501324447803e-05,-4.922906737192534e-05,4.108147186343558e-05,3.047665632038843e-05,-1.0886529707931913e-05,6.171246786834672e-05
2.0159000996500254e-05,-5.3853589633945376e-05,3.992731944890693e-05,3.07015870930627e-05,-1.6527857951587066e-05,5.9908386901952326e-05
1.7319585822406225e-05,-5.4606996855000034e-05,3.514108175295405e-05,2.6747253286885098e-05,-1.9043041902477853e-05,5.2781582780880854e-05
1.3620294339489192e-05,-5.181656524655409e-05,3.326627120259218e-05,2.0922027033520862e-05,-1.6227872038143687e-05,4.516838816925883e-05
1.3114688954374287e-05,-4.8790356231620535e-05,3.308431405457668e-05,1.572035216668155e-05,-1.4019037735124584e-05,4.203391290502623e-05
1.3402623153524473e-05,-4.7374524001497775e-05,3.131297853542492e-05,1.2690346011368092e-05,-1.4494651622953825e-05,4.220729897497222e-05
1.3699559531232808e-05,-4.8197503929259256e-05,3.072960316785611e-05,1.3943811609351542e-05,-1.649172008910682e-05,4.299605643609539e-05
1.6731908544898033e-05,-4.818483648705296e-05,3.0416809750022367e-05,1.9362061721039936e-05,-1.7787393517210148e-05,4.1579223761800677e-05
2.0370423953863792e-05,-4.5409808080876246e-05,2.7841537303174846e-05,2.5109315174631774e-05,-1.652971695875749e-05,3.797851604758762e-05
2.069993752229493e-05,-4.3810730858240277e-05,2.569626121839974e-05,2.4253575247712433e-05,-1.1746501513698604e-05,3.8421399949584156e-05
2.159331415896304e-05,-4.4899465137859806e-05,2.6978384994436055e-05,1.6393509213230573e-05,-7.507074769819155e-06,4.430285844136961e-05
2.5164794351439923e-05,-4.6655404730699956e-05,3.00407027680194e-05,1.034419437928591e-05,-4.815979082195554e-06,4.9059763114200905e-05
2.9036795240244828e-05,-4.764574259752408e-05,3.3140309824375436e-05,1.2001804861938581e-05,-2.191604608015041e-06,4.9985603254754096e-05
3.0090746804489754e-05,-4.745087426272221e-05,3.344433207530528e-05,1.6651591067784466e-05,4.059989350935211e-06,5.014987618778832e-05
2.6885451006819494e-05,-4.848020034842193e-05,3.087267396040261e-05,2.064226646325551e-05,9.928722647600807e-06,5.1471437473082915e-05
1.9319637431181036e-05,-5.056599184172228e-05,2.9409882699837908e-05,2.0097955712117255e-05,1.1051894034608267e-05,5.791468356619589e-05
1.552364119561389e-05,-5.079656693851575e-05,3.0481891371891834e-05,1.596449874341488e-05,9.16713906917721e-06,6.388187466654927e-05
1.8213813746115193e-05,-4.794242704520002e-05,3.0038328986847773e-05,1.462666750740027e-05,4.984098723070929e-06,6.385722372215241e-05
2.0016697817482054e-05,-4.604224523063749e-05,2.7235566449235193e-05,1.570567474118434e-05,-1.7967740006952226e-07,6.297724030446261e-05
2.3329286705120467e-05,-4.9517453589942306e-05,2.3595301172463223e-05,1.6465959561173804e-05,-4.39182122136117e-06,5.953701474936679e-05
2.5518893380649388e-05,-5.333547233021818e-05,2.2948897822061554e-05,1.6668140233377926e-05,-7.847825145290699e-06,5.458852683659643e-05
2.4250322894658893e-05,-5.269574103294872e-05,2.50727007369278e-05,1.633234387554694e-05,-1.1139201887999661e-05,5.05914977111388e-05
2.062171188299544e-05,-4.9575573939364403e-05,2.5912195269484073e-05,2.079362457152456e-05,-1.635910666664131e-05,4.492820880841464e-05
1.7373038645018823e-05,-4.864731090492569e-05,2.5798937713261694e-05,2.6686155251809396e-05,-2.463285818521399e-05,4.564679693430662e-05
1.7226318959728815e-05,-5.199320730753243e-05,2.6269268346368335e-05,2.6986059310729615e-05,-3.0396760848816484e-05,5.378113201004453e-05
1.8906350305769593e-05,-5.539128324016929e-05,2.7600612156675197e-05,2.3610333300894126e-05,-3.5616332752397284e-05,5.7375153119210154e-05
1.966475429071579e-05,-5.706724550691433e-05,3.0281968065537512e-05,2.1435191229102202e-05,-4.2871506593655795e-05,5.708422759198584e-05
1.9277416868135333e-05,-5.904458157601766e-05,3.4297579986741766e-05,2.2778918719268404e-05,-5.145826798980124e-05,5.910466643399559e-05
1.916589098982513e-05,-5.9071997384307906e-05,3.8269692595349625e-05,2.6120957045350224e-05,-5.444099588203244e-05,6.254395702853799e-05
1.9381452148081735e-05,-5.439469532575458e-05,3.9935017412062734e-05,2.8894306524307467e-05,-4.8584934120299295e-05,6.0931288317078725e-05
2.0206542103551328e-05,-4.857603562413715e-05,3.765621659113094e-05,3.188337723258883e-05,-3.553263741196133e-05,5.6878081522881985e-05
2.077034514513798e-05,-4.6252840547822416e-05,3.266011117375456e-05,3.502790423226543e-05,-1.8081453163176775e-05,5.591356966760941e-05
1.9682009224197827e-05,-4.863323920289986e-05,3.051637213502545e-05,3.330852268845774e-05,3.8400089579226915e-06,5.619331568595953e-05
1.6298290574923158e-05,-5.317488466971554e-05,3.276087227277458e-05,2.903742642956786e-05,2.8066884624422528e-05,5.5852106015663594e-05
1.366529795632232e-05,-5.3499647037824616e-05,3.564189319149591e-05,2.726096863625571e-05,4.7699821152491495e-05,5.575473187491298e-05
1.314830115006771e-05,-5.027997394790873e-05,3.664026371552609e-05,2.714951006055344e-05,5.8742360124597326e-05,5.4054460633778945e-05
1.3673871762875933e-05,-4.980475569027476e-05,3.3968368370551616e-05,2.5977424229495227e-05,5.4952921345829964e-05,4.965563493897207e-05
1.482360949012218e-05,-5.169170253793709e-05,3.066735735046677e-05,2.6592590074869804e-05,3.12887568725273e-05,4.6613124141003937e-05
1.572990368003957e-05,-5.093520667287521e-05,3.1395491532748565e-05,3.151952478219755e-05,3.071515038755024e-06,4.61695744888857e-05
1.5291694580810145e-05,-4.847757736570202e-05,3.0778497603023425e-05,3.6977486161049455e-05,-1.1660718882922083e-05,4.715871546068229e-05
1.3389548257691786e-05,-4.888942567049526e-05,2.862054498109501e-05,3.967370139434934e-05,-1.947504460986238e-05,4.738610368804075e-05
1.003167108137859e-05,-4.943146268487908e-05,3.15763390972279e-05,3.8311522075673565e-05,-3.069283775403164e-05,5.010486347600818e-05
6.32283945378731e-06,-4.611568874679506e-05,3.273678521509282e-05,3.100976027781144e-05,-4.267482290742919e-05,5.692193008144386e-05
8.017937943805009e-06,-4.30548534495756e-05,2.8819018552894704e-05,2.455828507663682e-05,-4.356680437922478e-05,5.671850158250891e-05
1.3747177945333533e-05,-4.1394581785425544e-05,2.730273081397172e-05,2.4325687263626605e-05,-3.742520129890181e-05,5.076254456071183e-05
1.8690827346290462e-05,-4.201331830699928e-05,2.8782498702639714e-05,2.6167484975303523e-05,-3.2774783903732896e-05,4.524016549112275e-05
2.2109061319497414e-05,-4.638987229554914e-05,2.807019882311579e-05,2.6107149096787907e-05,-2.774930362647865e-05,4.1857038013404235e-05
2.4772274628048763e-05,-4.909199560643174e-05,2.7359217710909434e-05,2.3858503482188098e-05,-1.9245011571911164e-05,4.364570850157179e-05
2.9035802072030492e-05,-4.974296462023631e-05,2.7850728656630963e-05,2.351153307245113e-05,-5.658413556375308e-06,4.572735997498967e-05
3.111397018074058e-05,-4.985644409316592e-05,3.0390088795684278e-05,2.6087796868523583e-05,1.0171770554734394e-05,4.6387063775910065e-05
3.2783755159471184e-05,-4.985736450180411e-05,3.4719796531135216e-05,2.7668398615787737e-05,2.3487162252422422e-05,4.89062222186476e-05
3.576301969587803e-05,-5.0220347475260496e-05,3.7072630220791325e-05,2.821429370669648e-05,3.3002812415361404e-05,5.301955752656795e-05
3.9831305912230164e-05,-5.182874883757904e-05,3.6488196201389655e-05,3.0390576284844428e-05,3.746755828615278e-05,5.523120489669964e-05
4.375599019112997e-05,-5.3399751777760684e-05,3.575131268007681e-05,3.3632441045483574e-05,3.5800214391201735e-05,5.750089985667728e-05
4.559646549751051e-05,-5.292603964335285e-05,3.638476846390404e-05,3.5580582334659994e-05,3.264605766162276e-05,6.032366945873946e-05
4.5592867536470294e-05,-5.021522520110011e-05,3.844803723040968e-05,3.6210007237968966e-05,2.8966145691811107e-05,6.346326699713245e-05
4.3971198465442285e-05,-4.6822664444334805e-05,3.980807741754688e-05,3.68691653420683e-05,2.4153798221959732e-05,6.524079799419269e-05
4.0675226046005264e-05,-4.4203803554410115e-05,3.846291656373069e-05,3.814485535258427e-05,1.9791459635598585e-05,6.623113586101681e-05
3.545127765391953e-05,-4.4091433665016666e-05,3.5273886169306934e-05,3.8741269236197695e-05,1.5519251974183135e-05,6.85994018567726e-05
3.107958400505595e-05,-4.6564651711378247e-05,3.273160837125033e-05,3.537234078976326e-05,1.0210996151727159e-05,7.084845128702e-05
2.9165550586185418e-05,-4.828402597922832e-05,3.388836921658367e-05,3.1158797355601564e-05,4.9490813580632675e-06,7.143118273233995e-05
3.0668368708575144e-05,-4.7141918912529945e-05,3.7029138184152544e-05,3.189891140209511e-05,1.1443258784993304e-07,7.173212361522019e-05
3.3136406273115426e-05,-4.4501455704448745e-05,3.922526229871437e-05,3.487499998300336e-05,-4.595602604240412e-06,7.134337647585198e-05
3.356659726705402e-05,-4.297356281313114e-05,3.993443169747479e-05,3.683209797600284e-05,-1.0624734386510681e-05,6.875455437693745e-05
3.268918953835964e-05,-4.363724292488769e-05,3.882069358951412e-05,3.895156623912044e-05,-1.8668226402951404e-05,6.639570347033441e-05
3.1518804462393746e-05,-4.5169461373006925e-05,3.694684710353613e-05,3.717154322657734e-05,-2.5933948563761078e-05,6.500072777271271e-05
2.7500296710059047e-05,-4.612249540514313e-05,3.6751236621057615e-05,3.516445212881081e-05,-2.9975417419336736e-05,6.403482257155702e-05
2.1296891645761207e-05,-4.890175478067249e-05,3.5390457924222574e-05,3.678209031932056e-05,-3.150229895254597e-05,6.207017577253282e-05
1.9468454411253333e-05,-5.066707672085613e-05,3.419297718210146e-05,3.89297456422355e-05,-3.2845848181750625e-05,5.9641333791660145e-05
2.1809670215588994e-05,-5.1857627113349736e-05,3.456735430518165e-05,4.444578007678501e-05,-3.466940324869938e-05,5.491944830282591e-05
2.1285010006977245e-05,-5.0801118050003424e-05,3.6246074159862474e-05,4.544768307823688e-05,-3.4838707506423816e-05,5.310111373546533e-05
1.9986448023701087e-05,-4.844300929107703e-05,3.468061549938284e-05,4.2725874664029106e-05,-3.0385281206690706e-05,5.762788714491762e-05
1.77181154867867e-05,-4.993039328837767e-05,2.987737207149621e-05,3.915445995517075e-05,-2.612637217680458e-05,6.177614704938605e-05
1.3966940059617627e-05,-5.269638495519757e-05,2.816766755131539e-05,3.2038653444033116e-05,-2.8131757062510587e-05,5.937417517998256e-05
1.0843588825082406e-05,-5.280504046822898e-05,3.0149029043968767e-05,2.9194219678174704e-05,-3.2842985092429444e-05,5.247631997917779e-05
1.0409809874545317e-05,-4.7944085963536054e-05,3.2619060220895335e-05,3.047118298127316e-05,-3.41754530381877e-05,4.91831851832103e-05
1.2371140655886848e-05,-4.361061655799858e-05,3.213874879293144e-05,3.2182684662984684e-05,-3.187542824889533e-05,5.146288458490744e-05
1.2285926459298935e-05,-4.388120578369126e-05,3.253490649512969e-05,3.234365431126207e-05,-2.755322384473402e-05,5.668204539688304e-05
8.249548955063801e-06,-4.6619406930403784e-05,3.464493420324288e-05,3.1263858545571566e-05,-2.481828414602205e-05,6.093575575505383e-05
3.736526196007617e-06,-4.734684989671223e-05,3.526676300680265e-05,2.8695469154627062e-05,-2.3822509319870733e-05,6.266705895541236e-05
4.622103915608022e-06,-4.75975321023725e-05,3.2967236620606855e-05,2.6463287213118747e-05,-2.3973630959517322e-05,6.207251863088459e-05
9.272003808291629e-06,-5.004912964068353e-05,3.1726467568660155e-05,2.938486977654975e-05,-2.391910311416723e-05,6.206316902535036e-05
1.3445662261801772e-05,-5.204002445680089e-05,3.368135730852373e-05,3.6211735277902335e-05,-2.0726874936372042e-05,6.458093412220478e-05
1.5898602214292623e-05,-5.3496270993491635e-05,3.671054219012149e-05,3.715174170793034e-05,-1.7045547792804427e-05,6.565168587258086e-05
1.750567025737837e-05,-5.464090281748213e-05,3.833027585642412e-05,3.055580600630492e-05,-1.5988280210876837e-05,6.28046618658118e-05
1.8917478882940486e-05,-5.559704368351959e-05,3.8073725590948015e-05,2.4060436771833338e-05,-1.7293032215093262e-05,6.031995508237742e-05
2.148294515791349e-05,-5.488811439136043e-05,3.502547406242229e-05,1.708380841591861e-05,-1.9328563212184235e-05,5.882133336854167e-05
2.353907075303141e-05,-5.404316834756173e-05,3.066982390009798e-05,5.408069682744099e-06,-2.0625631805160083e-05,5.451203105621971e-05
2.354557545913849e-05,-5.5992866691667587e-05,2.9841568903066218e-05,-5.710319783247542e-06,-1.915353277581744e-05,5.0381051551084965e-05
2.727142236835789e-05,-5.98802616877947e-05,3.3027241443051025e-05,-3.151729742967291e-06,-1.582977347425185e-05,5.107370816404e-05
4.0590624848846346e-05,-5.9564928960753605e-05,3.514601485221647e-05,1.3695099369215313e-05,-1.3992782442073803e-05,5.3484800446312875e-05
5.256802978692576e-05,-5.410641460912302e-05,3.1333911465480924e-05,3.067854049731977e-05,-1.4694065612275153e-05,5.405863339547068e-05
5.332773071131669e-05,-4.986345811630599e-05,2.5926314265234396e-05,3.7162470107432455e-05,-1.2811704436899163e-05,5.400452937465161e-05
4.647295281756669e-05,-5.348873310140334e-05,2.261495501443278e-05,3.276263669249602e-05,-8.986480679595843e-06,5.186742055229843e-05
3.545941217453219e-05,-6.188085535541177e-05,2.4533333998988383e-05,2.8000011297990568e-05,-8.917300874600187e-06,5.3473078878596425e-05
2.5710447516757995e-05,-6.479206786025316e-05,2.759327253443189e-05,2.992770168930292e-05,-1.0434140676807147e-05,6.202257645782083e-05
2.1851967176189646e-05,-6.191553256940097e-05,3.0350545785040595e-05,3.275357448728755e-05,-8.089578841463663e-06,7.433044811477885e-05
2.1238880435703322e-05,-5.881352990400046e-05,3.5199107514927164e-05,3.163861038046889e-05,-4.640497991204029e-06,8.456844807369635e-05
2.030135328823235e-05,-5.8517998695606366e-05,3.4154229069827124e-05,2.959942321467679e-05,-1.8610016923048533e-06,8.311866986332461e-05
1.5740068192826584e-05,-5.605523620033637e-05,2.78536208497826e-05,2.9100225219735876e-05,-8.688592743055779e-07,7.406607619486749e-05
8.089593393378891e-06,-5.344089004211128e-05,2.6173109290539287e-05,2.8510305128293112e-05,-5.073988631920656e-06,6.948269583517686e-05
1.894498495857988e-06,-5.328447150532156e-05,2.9845728931832127e-05,2.766095167316962e-05,-1.3948550076747779e-05,6.861019937787205e-05
-2.9991520023031626e-06,-5.2493975090328604e-05,3.0751241865800694e-05,2.6378729671705514e-05,-2.174469773308374e-05,6.214069435372949e-05
-4.0647510104463436e-06,-4.726471524918452e-05,2.9165224987082183e-05,2.516841959732119e-05,-2.329792368982453e-05,5.349700586521067e-05
4.936862865179137e-07,-4.0485250792698935e-05,2.8929918698850088e-05,2.4588882297393866e-05,-1.90910304809222e-05,5.2176757890265435e-05
1.0270971870340873e-05,-3.807581742876209e-05,2.9808094041072764e-05,2.571058394096326e-05,-1.1593309864110779e-05,5.7232322433264926e-05
2.0963994757039472e-05,-4.045297464472242e-05,2.9688757422263734e-05,2.4889837732189335e-05,-2.1894902602070943e-06,6.0696303989971057e-05
2.9598269975394942e-05,-4.241645001457073e-05,2.8138543711975217e-05,2.396129275439307e-05,9.704226613393985e-06,6.0752910940209404e-05
3.5942492104368284e-05,-4.0255483327200636e-05,2.561372093623504e-05,2.4382028641412035e-05,2.072543793474324e-05,5.816412885906175e-05
3.62130522262305e-05,-3.898174691130407e-05,2.3205717297969386e-05,2.415539711364545e-05,2.7556685381568968e-05,5.723976937588304e-05
3.0874103686073795e-05,-4.141998942941427e-05,2.3084317945176736e-05,2.6243018510285765e-05,2.640654201968573e-05,6.0958256653975695e-05
2.361341284995433e-05,-4.4617514504352584e-05,2.4797402147669345e-05,3.130593177047558e-05,1.9683735445141792e-05,6.479636795120314e-05
1.9083436200162396e-05,-4.33931163570378e-05,2.7204650905332528e-05,3.59883088094648e-05,1.3933205082139466e-05,6.428816413972527e-05
1.831443478295114e-05,-4.1160863474942744e-05,2.8689064492937177e-05,3.759695391636342e-05,1.1130209713883232e-05,5.880098615307361e-05
2.0293460693210363e-05,-4.138661824981682e-05,2.9991191695444286e-05,3.541860860423185e-05,8.059836545726284e-06,5.402173337643035e-05
2.1385571017162874e-05,-4.2341911466792226e-05,3.2235646358458325e-05,3.281164390500635e-05,4.362264007795602e-06,5.42901580047328e-05
2.1118756194482557e-05,-4.34126632171683e-05,3.4063774364767596e-05,3.2871379517018795e-05,1.6186377251869999e-06,5.7902692788047716e-05
1.847541170718614e-05,-4.394615098135546e-05,3.420132270548493e-05,3.5804405342787504e-05,-5.912565370636003e-07,5.9706129832193255e-05
1.389956014463678e-05,-4.251528298482299e-05,3.260882294853218e-05,3.8531692553078756e-05,-2.1322762222553138e-06,5.70531738048885e-05
1.2168368812126573e-05,-4.271105717634782e-05,2.958194090751931e-05,3.508841837174259e-05,-3.485190973151475e-06,5.4384287068387493e-05
1.4019672562426422e-05,-4.491124491323717e-05,2.6566272936179303e-05,2.744217090366874e-05,-4.813267878489569e-06,5.183202665648423e-05
1.4268331142375246e-05,-4.7854231524979696e-05,2.4433698854409158e-05,1.9375820556888357e-05,-6.96198412697413e-06,4.09707281505689e-05
1.5208200238703284e-05,-5.094237349112518e-05,2.300220148754306e-05,1.2994038115721196e-05,-8.36822346172994e-06,2.846699680958409e-05
2.1423933503683656e-05,-5.1383838581386954e-05,2.010108801187016e-05,5.624366622214438e-06,-1.1862759492942132e-05,2.7060785214416683e-05
2.3271606551134028e-05,-4.968520806869492e-05,2.0378929548314773e-05,3.785764590702456e-07,-1.6207568478421308e-05,3.5662378650158644e-05
2.0357370885903947e-05,-4.780568269779906e-05,2.6731719117378816e-05,4.390029971546028e-06,-1.9172901374986395e-05,4.483640077523887e-05
1.9080474885413423e-05,-4.6399058192037046e-05,3.136470331810415e-05,1.3796396160614677e-05,-2.1109537556185387e-05,4.987773354514502e-05
2.0225581465638243e-05,-4.607624578056857e-05,3.141077104373835e-05,1.749104558257386e-05,-1.786500433809124e-05,5.477662125485949e-05
2.4011933419387788e-05,-4.83566036564298e-05,3.185331661370583e-05,1.1607967280724552e-05,-1.2523394616437145e-05,6.384784501278773e-05
2.8977834517718293e-05,-5.242957195150666e-05,3.571314664441161e-05,2.4928849597927183e-06,-1.0461891179147642e-05,7.314501999644563e-05
2.959826815640554e-05,-5.430322198662907e-05,3.980166366090998e-05,3.0582377803511918e-06,-1.0072833902086131e-05,7.648584141861647e-05
2.6898362193605863e-05,-5.2223691454855725e-05,4.199967588647269e-05,1.755253651936073e-05,-8.217562026402447e-06,7.605040445923805e-05
2.2563488528248854e-05,-5.1026716391788796e-05,4.305564289097674e-05,3.910852683475241e-05,-6.78586957292282e-06,7.510597788495943e-05
1.982104549824726e-05,-5.136165418662131e-05,4.257696491549723e-05,6.168877735035494e-05,-8.544655429432169e-06,7.595770875923336e-05
2.0742778360727243e-05,-5.345834870240651e-05,3.954755811719224e-05,8.841389353619888e-05,-1.321710351476213e-05,7.691376231377944e-05
2.2414091290556826e-05,-5.4395422921516e-05,3.467772694421001e-05,0.00011625840852502733,-1.594814057170879e-05,7.572524918941781e-05
2.1427498722914606e-05,-5.150626748218201e-05,3.189186827512458e-05,0.000127236737171188,-1.4310821825347375e-05,7.275750976987183e-05
1.772748146322556e-05,-4.8671532567823306e-05,3.161748463753611e-05,0.0001125167400459759,-1.1716662811522838e-05,7.008944521658123e-05
1.6238607713603415e-05,-5.0089554861187935e-05,3.046002530027181e-05,8.475100912619382e-05,-1.1045239261875395e-05,7.153956539696082e-05
1.7975136870518327e-05,-5.3432322602020577e-05,2.9489214284694754e-05,5.9382145991548896e-05,-9.710199265100528e-06,7.413053390337154e-05
2.1919815480941907e-05,-5.7292978453915566e-05,3.0446284654317424e-05,3.67653883586172e-05,-6.943707376194652e-06,7.155958883231506e-05
2.605399458843749e-05,-6.0940808907616884e-05,3.2625928724883124e-05,1.597502159711439e-05,-8.141442776832264e-06,6.623809895245358e-05
2.924223917943891e-05,-6.194409070303664e-05,3.513375122565776e-05,3.2926279800449265e-06,-1.584669553267304e-05,6.175621092552319e-05
2.959079938591458e-05,-5.967484321445227e-05,3.704438859131187e-05,8.033252925088163e-06,-2.877826955227647e-05,5.8387278841109946e-05
2.553882950451225e-05,-5.500564293470234e-05,3.599897172534838e-05,2.4592191039118916e-05,-4.195990550215356e-05,6.027862400515005e-05
1.8544678823673166e-05,-5.345488534658216e-05,3.306711732875556e-05,3.525990177877247e-05,-5.117684486322105e-05,6.799945549573749e-05
1.1760188499465585e-05,-5.430588134913705e-05,3.2618158002151176e-05,3.288217703811824e-05,-5.636876085191034e-05,7.224707951536402e-05
8.45509839564329e-06,-5.411970050772652e-05,3.4229033190058544e-05,2.6660329240257852e-05,-6.022619709256105e-05,6.776960071874782e-05
1.2373723620839883e-05,-5.400084046414122e-05,3.451465454418212e-05,2.190086706832517e-05,-6.405392196029425e-05,6.239474896574393e-05
1.9014878489542753e-05,-5.4404197726398706e-05,3.369182377355173e-05,1.8010998246609233e-05,-6.69828659738414e-05,6.279384979279712e-05
1.640857954043895e-05,-5.2638188208220527e-05,3.088490120717324e-05,1.875223642855417e-05,-6.698443030472845e-05,6.366499292198569e-05
9.376954039908014e-06,-4.855019869864918e-05,2.9154223739169538e-05,1.8629598343977705e-05,-5.863455226062797e-05,6.326751463348046e-05
9.017877346195746e-06,-4.716635157819837e-05,3.00969768431969e-05,1.3755296095041558e-05,-3.6689427361125126e-05,6.359202961903065e-05
1.4221850506146438e-05,-4.829134195460938e-05,3.0237142709665932e-05,1.0085262147185858e-05,-6.358748123602709e-06,5.950415288680233e-05
2.2701011403114535e-05,-4.704939783550799e-05,2.89696308755083e-05,7.51917332308949e-06,2.4707196644158103e-05,5.436287392512895e-05
2.781477633106988e-05,-4.7982524847611785e-05,3.051757266803179e-05,1.0030669727711938e-05,4.9861315346788615e-05,4.9307152949040756e-05
3.050947816518601e-05,-5.425480776466429e-05,3.522851693560369e-05,1.4470464520854875e-05,6.794020009692758e-05,4.442069257493131e-05
3.238523640902713e-05,-6.067331923986785e-05,3.600276977522299e-05,1.4311873201222625e-05,7.86680102464743e-05,4.5237058657221496e-05
3.2279502192977816e-05,-6.14637101534754e-05,3.4272950870217755e-05,8.884197995939758e-06,7.516429468523711e-05,5.192579192225821e-05
3.1300387490773574e-05,-5.7211382227251306e-05,3.356781235197559e-05,4.039845862280345e-06,6.158641917863861e-05,5.872808105777949e-05
3.1933166610542685e-05,-5.316040915204212e-05,3.302671029814519e-05,3.0094049634499243e-06,4.6134769945638254e-05,6.17957120994106e-05
3.452248711255379e-05,-5.3760722948936746e-05,3.2882486266316846e-05,5.398806024459191e-06,3.232299059163779e-05,6.184376979945228e-05
3.634869062807411e-05,-5.7014032790903e-05,3.549083339748904e-05,1.3270696399558801e-05,1.749625153024681e-05,5.826908090966754e-05
3.400795321795158e-05,-5.977518230793066e-05,3.8828671677038074e-05,1.8384500435786322e-05,1.8158999637307716e-06,5.5339023674605414e-05
2.9225599064375274e-05,-5.957873509032652e-05,3.7998510379111394e-05,1.944147516041994e-05,-9.033690730575472e-06,5.440113091026433e-05
2.996444163727574e-05,-5.6054839660646394e-05,3.3550855732755736e-05,1.982489447982516e-05,-1.4104429283179343e-05,5.179155778023414e-05
3.444212052272633e-05,-5.352861262508668e-05,3.0356708521139808e-05,2.2903037461219355e-05,-1.6884525393834338e-05,4.6727571316296235e-05
3.5802764614345506e-05,-5.354966560844332e-05,3.0504446840495802e-05,2.548681186453905e-05,-1.9708177205757238e-05,4.591975812218152e-05
2.9112858101143502e-05,-5.4376567277358845e-05,3.276409188401885e-05,2.3755061192787252e-05,-2.1686326363123953e-05,5.1828857976943254e-05
1.7294623830821365e-05,-5.338746268535033e-05,3.496519639156759e-05,2.2278685719356872e-05,-2.4274464522022754e-05,5.715652150684036e-05
7.369911145360675e-06,-5.19104469276499e-05,3.4567652619443834e-05,2.571381992311217e-05,-2.8441914764698595e-05,5.641790630761534e-05
4.398793407744961e-06,-4.998348231310956e-05,3.3711134165059775e-05,2.78446423180867e-05,-3.199257480446249e-05,5.3760824812343344e-05
2.9788889150950126e-06,-4.3417810957180336e-05,3.334583016112447e-05,2.6932508262689225e-05,-3.450152144068852e-05,5.513662108569406e-05
1.8541484791967378e-08,-3.634681343100965e-05,3.33122443407774e-05,2.6238018108415417e-05,-3.744854257092811e-05,5.897105438634753e-05
-1.202693056256976e-06,-3.346295125083998e-05,3.4510372643126175e-05,2.7703135856427252e-05,-4.153436384513043e-05,6.228029815247282e-05
4.553249368655088e-07,-3.3556523703737184e-05,3.446745176916011e-05,3.2634823583066463e-05,-4.219596667098813e-05,6.585596565855667e-05
4.6017844397283625e-06,-3.638480484369211e-05,3.217178164049983e-05,3.4054206480504945e-05,-3.9898826798889786e-05,7.074193854350597e-05
6.550277703354368e-06,-3.763169297599234e-05,3.280528835603036e-05,3.4072181733790785e-05,-3.911993917427026e-05,7.238681428134441e-05
9.002863407658879e-06,-4.0055780118564144e-05,3.5250930523034185e-05,3.4654640330700204e-05,-3.520397513057105e-05,6.75789633532986e-05
1.2351749319350347e-05,-4.5241962652653456e-05,3.597875911509618e-05,3.39743637596257e-05,-3.047389145649504e-05,6.155111623229459e-05
1.0763586942630354e-05,-4.852885103900917e-05,3.615095920395106e-05,3.2357635063817725e-05,-2.7170888643013313e-05,5.798735946882516e-05
6.398670848284382e-06,-4.786671343026683e-05,3.601671414799057e-05,3.0747025448363274e-05,-2.6330955734010786e-05,5.874253110960126e-05
5.61923252462293e-06,-4.432088098837994e-05,3.7097473978064954e-05,3.1037085136631504e-05,-2.481399496900849e-05,5.829481960972771e-05
1.16692945084651e-05,-4.295905455364846e-05,3.589140033000149e-05,3.460954030742869e-05,-2.1261859728838317e-05,5.2330917242215946e-05
1.8398934116703458e-05,-4.496615656535141e-05,3.3006963349180296e-05,3.610696876421571e-05,-2.033927921729628e-05,4.959150101058185e-05
2.5270421247114427e-05,-4.891135904472321e-05,3.060889503103681e-05,3.189036942785606e-05,-1.9658016753965057e-05,4.940176222589798e-05
2.8010290407110006e-05,-5.1774444727925584e-05,2.9453123715939e-05,2.6006515327026136e-05,-1.893249100248795e-05,4.5471617340808734e-05
2.6454705221112818e-05,-5.14161292812787e-05,2.9229806386865675e-05,2.3708396838628687e-05,-1.6955233149928972e-05,4.0281815017806366e-05
2.576499718998093e-05,-4.9158872570842505e-05,2.9344300855882466e-05,2.773545384116005e-05,-1.5422974684042856e-05,3.831753201666288e-05
2.544888593547512e-05,-4.5715165470028296e-05,2.990233952004928e-05,3.066681892960332e-05,-1.766418972692918e-05,4.011928103864193e-05
2.4216187739511952e-05,-4.395374344312586e-05,2.8532811484183185e-05,3.090678728767671e-05,-2.27235141210258e-05,4.506717959884554e-05
2.2344596800394356e-05,-4.595514838001691e-05,2.5481704142293893e-05,3.004923382832203e-05,-2.5339759304188192e-05,4.489737330004573e-05
2.25433523155516e-05,-4.89269477839116e-05,2.355489596084226e-05,2.800076617859304e-05,-2.4188124370994046e-05,3.900003503076732e-05
2.3490207240683958e-05,-4.955459735356271e-05,2.274090911669191e-05,2.7390793547965586e-05,-2.1602390916086733e-05,3.742429908015765e-05
2.457669506839011e-05,-4.818800516659394e-05,2.0865711121587083e-05,2.9261873351060785e-05,-1.751812123984564e-05,4.119707955396734e-05
2.7288173441775143e-05,-4.7325887862825766e-05,1.8749162336462177e-05,3.0506398616125807e-05,-1.0804296834976412e-05,4.515560794970952e-05
3.319048119010404e-05,-4.808221638086252e-05,1.9315306417411193e-05,2.9666724003618583e-05,-4.289534899726277e-06,5.0507205742178485e-05
3.849335553240962e-05,-4.953184907208197e-05,2.3805559976608492e-05,2.8368469429551624e-05,3.451939889487221e-08,5.674857311532833e-05
3.8868300180183724e-05,-5.19308632647153e-05,2.690799010451883e-05,2.7600995963439345e-05,2.765732460829895e-07,6.0149010096210986e-05
3.408074553590268e-05,-5.1540773711167276e-05,2.5660980099928565e-05,2.5809840735746548e-05,-9.431342959942413e-07,6.118278542999178e-05
2.9345806979108602e-05,-4.83522962895222e-05,2.175079680455383e-05,2.296905586263165e-05,2.0098145796509925e-06,6.187929830048233e-05
2.3729111489956267e-05,-4.619054379872978e-05,1.947481905517634e-05,1.9575938495108858e-05,6.188683983054943e-06,6.528750964207575e-05
1.845267615863122e-05,-4.515623368206434e-05,2.1953148461761884e-05,1.2685751244134735e-05,1.0324039976694621e-05,6.740142271155491e-05
1.8476055629434995e-05,-4.5138840505387634e-05,2.5135579562629573e-05,5.326978225639323e-06,1.3285312888910994e-05,6.536137516377494e-05
2.107966247422155e-05,-4.6295848733279854e-05,2.464105091348756e-05,3.0230091851990437e-06,1.4122887478151824e-05,5.8889530919259414e-05
2.066084198304452e-05,-4.613315832102671e-05,2.908979331550654e-05,6.672420568065718e-06,1.1868753063026816e-05,5.600886288448237e-05
1.794848867575638e-05,-4.2375362681923434e-05,3.760198160307482e-05,9.904170838126447e-06,8.20109653432155e-06,6.0232709074625745e-05
1.4713997188664507e-05,-4.339880251791328e-05,3.756873411475681e-05,1.4403850400412921e-05,5.542433882510522e-06,5.911684638704173e-05
9.538545782561414e-06,-4.572603211272508e-05,3.5831988498102874e-05,1.9937129764002748e-05,2.2112001261120895e-06,5.2434981625992805e-05
7.929351340862922e-06,-4.567374708130956e-05,3.801172715611756e-05,2.4136041247402318e-05,-1.6590544191785739e-06,4.661237107939087e-05
1.362498733215034e-05,-4.571132376440801e-05,3.727906369022094e-05,2.5331049982924014e-05,-1.923221134347841e-06,4.609084135154262e-05
2.130549546563998e-05,-4.3470536184031516e-05,3.410936551517807e-05,2.4613089408376254e-05,1.61666025633167e-06,4.983741746400483e-05
2.6449113647686318e-05,-4.197506495984271e-05,3.282385296188295e-05,2.560550274210982e-05,4.50681864094804e-06,5.386241173255257e-05
2.900173785747029e-05,-4.2421634134370834e-05,3.334048597025685e-05,3.19178361678496e-05,4.454523150343448e-06,5.493524804478511e-05
3.160090636811219e-05,-4.296460610930808e-05,3.3727694244589657e-05,4.365757558844052e-05,2.700982349779224e-06,5.2254425099818036e-05
3.253225077060051e-05,-4.469687701202929e-05,3.494907286949456e-05,5.1401937525952235e-05,1.8745284933174844e-06,5.157597115612589e-05
3.2252759410766885e-05,-4.728907879325561e-05,3.7209414585959166e-05,5.3425821533892304e-05,5.350970013751066e-07,5.2836694521829486e-05
3.085559728788212e-05,-4.821165566681884e-05,3.7260026147123426e-05,5.2885130571667105e-05,-8.104281050691498e-07,5.443595364340581e-05
2.815133484546095e-05,-4.6871435188222677e-05,3.31243390974123e-05,5.1999355491716415e-05,-1.425669324817136e-06,5.569300628849305e-05
2.5876463041640818e-05,-4.513975727604702e-05,2.8330407076282427e-05,5.057263115304522e-05,-3.1459871934202965e-06,5.626872371067293e-05
2.5007328076753765e-05,-4.459313640836626e-05,2.6102914489456452e-05,4.8484234866918996e-05,-4.969284873368451e-06,5.7587803894421086e-05
2.501892413420137e-05,-4.5656011934624985e-05,2.6569487090455368e-05,4.4675529352389276e-05,-4.138090844207909e-06,6.0235335695324466e-05
