9.801659871300217e-06,-3.913489854312502e-05,4.4634347432293e-05,8.515847002854571e-05,3.464818519205437e-06,0.00011020585225196555
7.674947482882999e-06,-4.6034921979298815e-05,3.76105890609324e-05,6.829480844317004e-05,-3.222475243092049e-06,0.00012019483256153762
1.0479147931619082e-05,-5.5580032494617626e-05,3.474172262940556e-05,4.892998913419433e-05,-9.717358807392884e-06,0.0001253745285794139
1.4147639376460575e-05,-5.932612475589849e-05,3.410049976082519e-05,3.6612826079363e-05,-1.678281114436686e-05,0.0001290489744860679
1.8073404135066085e-05,-5.904422505409457e-05,3.283452315372415e-05,3.1452796974917874e-05,-1.5477151464438066e-05,0.00013117422349750996
2.1497306079254486e-05,-5.631097519653849e-05,3.48706598742865e-05,3.258061406086199e-05,-1.122499907069141e-05,0.00013161271635908633
2.216418579337187e-05,-5.4772302974015474e-05,3.8422400393756106e-05,3.559144170139916e-05,-1.113128564611543e-05,0.00013340063742361963
2.3208276616060175e-05,-5.418866567197256e-05,3.714030026458204e-05,3.9888196624815464e-05,-1.2911727026221342e-05,0.00013206065341364592
2.3533970306743868e-05,-5.174405305297114e-05,2.7660609703161754e-05,4.3220934458076954e-05,-1.3889070942241233e-05,0.0001266801409656182
2.1894791643717326e-05,-5.049673200119287e-05,1.3640902579936665e-05,4.086472108610906e-05,-1.0589164958219044e-05,0.00012160988990217447
2.1185063815210015e-05,-5.106513708597049e-05,2.875093741749879e-06,3.557377931429073e-05,-5.780487299489323e-06,0.00011977733811363578
1.9584293113439344e-05,-5.25938521604985e-05,-7.431241897393193e-07,3.288191874162294e-05,-5.174958914722083e-06,0.00011735979205695912
1.7957929230760783e-05,-5.319911360857077e-05,5.469066309160553e-06,3.368037141626701e-05,-7.597756393806776e-06,0.00011291835107840598
2.047459020104725e-05,-5.112081271363422e-05,1.7710301108309068e-05,3.506900975480676e-05,-4.901090960629517e-06,0.00011539112165337428
2.5458812160650268e-05,-4.771956446347758e-05,2.6329456886742264e-05,3.303000266896561e-05,1.0211347216682043e-06,0.00012063847680110484
2.655082607816439e-05,-4.5460572437150404e-05,2.6072397304233164e-05,2.7669824703480117e-05,2.567275487308507e-06,0.00011646788334473968
2.4393251806031913e-05,-4.3194813770242035e-05,2.107181899191346e-05,2.321209649380762e-05,-8.914133786674938e-08,0.00010337898129364476
2.513335130061023e-05,-4.242260547471233e-05,1.820573197619524e-05,2.2035294023226015e-05,-1.3263702385302167e-06,9.070736996363848e-05
3.0275054086814635e-05,-4.4686537876259536e-05,1.891324791358784e-05,2.3513030100730248e-05,-8.408728149333911e-07,8.222184260375798e-05
3.721168468473479e-05,-4.729890133603476e-05,2.2415233615902252e-05,2.7196287192055024e-05,-2.0324180241004797e-06,7.754833495710045e-05
4.1638806578703225e-05,-4.7841149353189394e-05,2.6986581360688433e-05,3.073046536883339e-05,-6.86452131049009e-06,7.58627793402411e-05
3.883874887833372e-05,-4.620263644028455e-05,2.9102637199684978e-05,2.980312092404347e-05,-1.3592300092568621e-05,7.37966038286686e-05
3.219924838049337e-05,-4.478653136175126e-05,2.5929046387318522e-05,2.4354430934181437e-05,-1.767130015650764e-05,6.98595104040578e-05
2.8153415769338608e-05,-4.612627162714489e-05,2.4423559807473794e-05,2.105010935338214e-05,-1.7464910342823714e-05,6.573156133526936e-05
2.928193316620309e-05,-4.995268682250753e-05,2.73598670901265e-05,2.2948786863707937e-05,-1.6772097296779975e-05,5.978218177915551e-05
3.233899042243138e-05,-5.342008807929233e-05,3.1031468097353354e-05,2.5968111003749073e-05,-1.6735186363803223e-05,5.3859934268984944e-05
3.213186573702842e-05,-5.4904208809603006e-05,3.26215049426537e-05,2.636754470586311e-05,-1.5888517737039365e-05,5.2971528930356726e-05
2.8814878533012234e-05,-5.57502789888531e-05,3.2807434763526544e-05,2.51702203968307e-05,-1.4251441825763322e-05,5.715444058296271e-05
2.7466745450510643e-05,-5.681846960214898e-05,3.213860691175796e-05,2.4350170860998333e-05,-1.3137131645635236e-05,5.762937507824972e-05
2.89431081910152e-05,-5.8287478168495e-05,3.09292008751072e-05,2.5122364604612812e-05,-1.6550109648960643e-05,4.975860065314919e-05
2.905202745751012e-05,-5.8426907344255596e-05,3.371861021150835e-05,2.5484747311566025e-05,-2.0197267076582648e-05,4.6199053031159565e-05
2.850746750482358e-05,-5.3497948101721704e-05,3.637314148363657e-05,2.1048448616056703e-05,-1.990098644455429e-05,5.085185694042593e-05
3.0711624276591465e-05,-4.859435648540966e-05,3.6709730920847505e-05,1.9299404812045395e-05,-1.7944454157259315e-05,5.2400217100512236e-05
3.328009552205913e-05,-4.973148679709993e-05,3.682851456687786e-05,1.7449412553105503e-05,-1.692460136837326e-05,5.208443690207787e-05
3.094081694143824e-05,-5.357122790883295e-05,4.029176488984376e-05,1.167758455267176e-05,-1.8551532775745727e-05,4.97014079883229e-05
2.6924230041913688e-05,-5.683355630026199e-05,5.0942508096341044e-05,8.919851097743958e-06,-1.993189289350994e-05,4.8156172852031887e-05
2.630236849654466e-05,-5.942091956967488e-05,6.206415855558589e-05,1.216852069774177e-05,-2.244760798930656e-05,4.8095767851918936e-05
2.558289452281315e-05,-6.181945354910567e-05,6.393450166797265e-05,1.7724283679854125e-05,-2.3550706828245893e-05,4.700337740359828e-05
2.4145623683580197e-05,-6.472044333349913e-05,4.9431593652116135e-05,2.0545230654533952e-05,-2.2901600459590554e-05,4.21345976064913e-05
2.4613495043013245e-05,-7.591105531901121e-05,2.6993860956281424e-05,2.162538658012636e-05,-2.4025177481235005e-05,3.711051249410957e-05
2.704625148908235e-05,-9.071101521840319e-05,9.712792234495282e-06,2.224204217782244e-05,-2.7194757421966642e-05,3.94335002056323e-05
2.7965172193944454e-05,-9.58778546191752e-05,1.8877587990573375e-06,2.6378509573987685e-05,-3.267761712777428e-05,4.355597047833726e-05
2.44153034145711e-05,-8.61345324665308e-05,-3.885704700223869e-06,3.102302071056329e-05,-3.7981259083608165e-05,4.582522888085805e-05
1.7868987924885005e-05,-6.910819502081722e-05,-1.7242189642274752e-05,3.348106474732049e-05,-3.900361843989231e-05,4.677456308854744e-05
1.4893467778165359e-05,-5.543215957004577e-05,-3.744153946172446e-05,3.367098906892352e-05,-3.3301952498732135e-05,4.849083052249625e-05
1.8636561435414478e-05,-4.660031117964536e-05,-4.909827475785278e-05,3.891780215781182e-05,-2.5742971047293395e-05,4.846728188567795e-05
2.3085487555363216e-05,-4.0100672777043656e-05,-3.7486803194042295e-05,6.153358845040202e-05,-2.0908049918944016e-05,4.4782897020922974e-05
2.3322980268858373e-05,-3.6410878237802535e-05,-7.782479769957718e-06,9.553766722092405e-05,-1.9362614693818614e-05,3.7194804463069886e-05
2.2213753254618496e-05,-3.732791810762137e-05,2.4276481781271286e-05,0.0001159073508461006,-1.634588625165634e-05,3.1824187317397445e-05
2.204553129558917e-05,-3.9637176087126136e-05,5.309560219757259e-05,0.00010219257819699124,-7.808337613823824e-06,2.9973154596518725e-05
1.9651906768558547e-05,-4.246852040523663e-05,7.989037112565711e-05,5.202127431402914e-05,5.5115406212280504e-06,2.6863823222811334e-05
1.5999956303858198e-05,-4.248027835274115e-05,9.73676287685521e-05,-1.8656020984053612e-05,1.989567681448534e-05,2.1579573513008654e-05
1.052311017701868e-05,-3.966184885939583e-05,9.620292985346168e-05,-7.420132897095755e-05,3.0232886274461634e-05,1.6085654351627454e-05
3.451408929322497e-06,-3.675727202789858e-05,8.087275637080893e-05,-9.259663784177974e-05,3.269305670983158e-05,5.850304660270922e-06
-2.2233712115848903e-07,-3.128591924905777e-05,6.466152990469709e-05,-8.550865459255874e-05,3.072702020290308e-05,-7.195623311417876e-06
-1.510179998831518e-07,-2.494308319000993e-05,5.854257688042708e-05,-6.828578625572845e-05,2.8463660783017986e-05,-9.061599484994076e-06
9.081587108994427e-07,-2.4886507162591442e-05,6.334097270155326e-05,-4.2619089072104543e-05,2.6727911972557195e-05,-4.1003067963174544e-06
-1.2742915487251594e-06,-3.303320045233704e-05,6.413631490431726e-05,-3.633636424638098e-06,2.4172384655685164e-05,-5.974894065730041e-06
-4.514458851190284e-06,-4.0660925151314586e-05,5.495322329807095e-05,4.1333925764774904e-05,1.6165435226866975e-05,-8.488699677400291e-06
-1.5219308124869713e-06,-4.339040242484771e-05,4.099624129594304e-05,8.187962521333247e-05,4.269453256711131e-06,-1.8394886183159542e-06
5.275247531244531e-06,-4.257789987605065e-05,3.2109004678204656e-05,0.00011404761607991531,-1.6546885035495507e-06,1.21160064736614e-05
1.074222927854862e-05,-3.662911331048235e-05,3.463260145508684e-05,0.0001295553520321846,1.417179419149761e-06,2.6852338123717345e-05
1.375762076349929e-05,-3.3330983569612727e-05,4.4134467316325754e-05,0.00011539129627635702,6.765465059288545e-06,3.671150261652656e-05
1.5188255929388106e-05,-3.462877793936059e-05,5.2544786740327254e-05,7.723442104179412e-05,7.284778348548571e-06,3.8531958125531673e-05
1.619018985365983e-05,-3.621077848947607e-05,5.8389396144775674e-05,4.587807416100986e-05,2.0811664853681577e-06,3.442171146161854e-05
1.676797000982333e-05,-3.6841840483248234e-05,5.720589979318902e-05,3.568173633539118e-05,-2.0567404135363176e-06,2.9612230719067156e-05
1.746181442285888e-05,-3.977417145506479e-05,4.787596481037326e-05,3.5800101613858715e-05,-3.026214017154416e-06,3.1525523809250444e-05
1.718586645438336e-05,-4.3382235162425786e-05,3.881172597175464e-05,3.467952410574071e-05,-4.058877038914943e-06,3.75677045667544e-05
1.5078935575729702e-05,-4.770495797856711e-05,3.390185156604275e-05,3.080523674725555e-05,-8.264221833087504e-06,3.2683579775039107e-05
1.2884515854238998e-05,-5.244392013992183e-05,2.948024484794587e-05,2.647043402248528e-05,-1.5890836948528886e-05,1.9272607460152358e-05
1.3094128917146008e-05,-5.6442753702867776e-05,2.8011350877932273e-05,2.507199315004982e-05,-2.2368856662069447e-05,1.699460881354753e-05
1.6518668417120352e-05,-5.758192855864763e-05,3.929066951968707e-05,2.4101489543681964e-05,-2.2513037038152106e-05,2.8211372409714386e-05
2.164122815884184e-05,-5.395360494730994e-05,5.6127279094653204e-05,2.1061432562419213e-05,-1.952198363142088e-05,3.7535090086748824e-05
2.38378815993201e-05,-5.125631287228316e-05,5.3793133702129126e-05,1.784661435522139e-05,-2.0643650714191608e-05,3.82398757210467e-05
2.322046748304274e-05,-5.219345257501118e-05,3.0283707019407302e-05,1.948452518263366e-05,-2.58564468822442e-05,3.415223545744084e-05
2.178590693802107e-05,-5.303782018017955e-05,4.201275714876829e-06,2.0991963538108394e-05,-2.909666727646254e-05,3.16967380058486e-05
1.7916243450599723e-05,-5.3554489568341523e-05,-2.2654543499811552e-05,1.5854328012210317e-05,-3.1692179618403316e-05,3.0128790967864916e-05
1.5676436305511743e-05,-5.6665929150767624e-05,-3.57435128535144e-05,1.3858516467735171e-05,-3.570225817384198e-05,2.7300064175506122e-05
1.9553566744434647e-05,-6.0492056945804507e-05,-1.762055399012752e-05,2.0478106307564303e-05,-3.527824446791783e-05,2.4462142391712405e-05
2.7898564439965412e-05,-6.0475558711914346e-05,1.513135248387698e-05,2.6860894649871625e-05,-2.752362343017012e-05,2.8861844839411788e-05
2.9700973755097948e-05,-5.7266399380750954e-05,3.878329152939841e-05,2.5911076591000892e-05,-1.9426881408435293e-05,4.322220047470182e-05
2.4193628632929176e-05,-5.723084541386925e-05,5.243083433015272e-05,2.5754083253559656e-05,-1.715744838293176e-05,6.0793274315074086e-05
2.2695823645335622e-05,-5.5001542932586744e-05,5.638747097691521e-05,3.621913128881715e-05,-1.654105471970979e-05,6.598430627491325e-05
2.4573035261710174e-05,-4.4454922317527235e-05,5.144222086528316e-05,5.4917058150749654e-05,-1.7188956917379983e-05,5.958386464044452e-05
2.6197136321570724e-05,-3.288413427071646e-05,4.277931293472648e-05,7.07565777702257e-05,-1.837839408835862e-05,5.392650928115472e-05
2.6365283702034503e-05,-3.6691944842459634e-05,2.914680771937128e-05,7.13848858140409e-05,-1.7688549633021466e-05,4.8919348046183586e-05
2.5379147700732574e-05,-4.763306787936017e-05,1.3978375136503018e-05,6.067065987735987e-05,-1.834527574828826e-05,4.58029899164103e-05
2.608316390251275e-05,-5.640685049002059e-05,8.451028747913369e-07,5.0728278438327834e-05,-1.9381006495677866e-05,4.731103763333522e-05
3.170060153934173e-05,-6.535550346598029e-05,-3.1688362014392624e-06,3.9041162381181493e-05,-1.706290822767187e-05,6.006699550198391e-05
3.857782940031029e-05,-7.561102393083274e-05,1.443231326447858e-06,2.0785731976502575e-05,-1.2401518688420765e-05,7.528348214691505e-05
3.7900950701441616e-05,-8.130411879392341e-05,4.138792064622976e-06,9.624166068533668e-07,-1.0105448382091708e-05,7.913008448667824e-05
3.199345519533381e-05,-7.707730401307344e-05,4.8503507059649564e-06,-1.1267353329458274e-05,-1.0147725333808921e-05,7.251428905874491e-05
2.8815837140427902e-05,-6.456553819589317e-05,9.887611668091267e-06,-1.3394770576269366e-05,-8.990489732241258e-06,6.576917803613469e-05
3.178101178491488e-05,-5.052454071119428e-05,1.4761586498934776e-05,-9.53221842792118e-06,-6.3190605033014435e-06,6.628707342315465e-05
3.7439433071995154e-05,-4.004487709607929e-05,1.3361365745367948e-05,-3.3971548418776365e-06,-1.9584535948524717e-06,6.975643191253766e-05
4.1414794395677745e-05,-3.3077529224101454e-05,1.0200046745012514e-05,-3.9154247133410536e-07,8.231181141127308e-07,6.974748976062983e-05
4.199867180432193e-05,-3.0407001759158447e-05,1.350501406705007e-05,-6.393498097168049e-06,-1.7128232912000385e-06,6.60259829601273e-05
3.970469333580695e-05,-2.9551061743404716e-05,2.5686238586786203e-05,-1.797492222976871e-05,-5.338031314749969e-06,6.486629717983305e-05
3.7686822906835005e-05,-3.0276240067905746e-05,3.829576598946005e-05,-2.304771805938799e-05,-2.4160467546607833e-06,6.70861845719628e-05
3.908592407242395e-05,-3.2461357477586716e-05,3.755086800083518e-05,-1.787845576473046e-05,4.762839580507716e-06,6.961950566619635e-05
4.079833161085844e-05,-3.479444421827793e-05,2.216145549027715e-05,-1.1580812497413717e-05,7.167878720792942e-06,6.847798795206472e-05
3.81842146452982e-05,-3.981954068876803e-05,5.558640623348765e-06,-3.196479610778624e-06,2.2469514533440815e-06,6.23790911049582e-05
3.6432069464353845e-05,-5.462342960527167e-05,-8.253537998825777e-06,2.076715463772416e-05,-4.178397830401082e-06,5.643725671689026e-05
4.030021955259144e-05,-7.575365452794358e-05,-1.714581230771728e-05,6.348374154185876e-05,-5.403158866101876e-06,5.397029599407688e-05
4.436754898051731e-05,-9.851727372733876e-05,-1.3614957424579188e-05,0.00011071739572798833,-6.326087714114692e-06,5.113109000376426e-05
4.283730231691152e-05,-0.00011025136336684227,-1.066817912942497e-05,0.00014727746020071208,-1.0395471690571867e-05,4.7626694140490144e-05
3.591225322452374e-05,-0.00010286561882821843,-4.0184238514484605e-07,0.0001679094129940495,-1.352128674625419e-05,4.539761721389368e-05
2.625717388582416e-05,-8.544419688405469e-05,4.306266419007443e-05,0.00016966572729870677,-2.426462924631778e-05,4.462376091396436e-05
1.712728953862097e-05,-7.143653783714399e-05,8.174838876584545e-05,0.00014060689136385918,-4.5571825467050076e-05,5.0128506700275466e-05
1.4213259419193491e-05,-6.561103509739041e-05,8.502326090820134e-05,9.233259333996102e-05,-5.740482083638199e-05,5.897054506931454e-05
1.761791281751357e-05,-5.535615491680801e-05,7.399473543046042e-05,4.8822555982042104e-05,-6.004179158480838e-05,6.197077163960785e-05
2.237797343696002e-05,-3.7414112739497796e-05,5.568971755565144e-05,1.7333206415059976e-05,-6.318326632026583e-05,6.254712207010016e-05
2.9722374165430665e-05,-2.251724981761072e-05,2.5775592803256586e-05,3.9465180634579156e-06,-6.411982758436352e-05,6.0945661971345544e-05
3.333700806251727e-05,-1.3158224646758754e-05,-1.5069000255607534e-05,-3.93328537029447e-06,-6.106812361394987e-05,5.0395825383020565e-05
2.580095133453142e-05,-8.8430269897799e-06,-4.723011443275027e-05,-1.897941365314182e-05,-4.712316513177939e-05,3.882139208144508e-05
8.825173608784098e-06,-6.568113803950837e-06,-4.341623207437806e-05,-4.135215931455605e-05,-2.1518757421290502e-05,3.879488576785661e-05
-6.8714703047589865e-06,-4.97389100928558e-06,-1.650485319260042e-05,-6.17271798546426e-05,1.2333564882283099e-05,4.2176019633188844e-05
-1.3753279745287728e-05,-9.931712156685535e-06,1.2100463209208101e-05,-6.309080345090479e-05,4.728351632365957e-05,3.936528446502052e-05
-1.333942145720357e-05,-2.015963036683388e-05,4.1714873077580705e-05,-3.826259126071818e-05,7.474664744222537e-05,3.544929131749086e-05
-9.251390110875946e-06,-2.813488754327409e-05,7.628469029441476e-05,8.863831681082956e-06,8.67756170919165e-05,3.4168962883995846e-05
-6.7638952714332845e-06,-3.18637139571365e-05,0.00011620500299613923,6.292561738518998e-05,8.10265337349847e-05,3.672441016533412e-05
-3.3681508284644224e-06,-3.586929233279079e-05,0.00014467236178461462,0.00010433423449285328,6.323125126073137e-05,4.261907815816812e-05
3.583988700484042e-06,-4.6209512220229954e-05,0.00013263679284136742,0.00011841794184874743,4.166484359302558e-05,4.925470057060011e-05
8.071837328316178e-06,-5.997468906571157e-05,6.738887896062806e-05,0.00010215270594926551,1.9876399164786562e-05,5.274174327496439e-05
6.273889084695838e-06,-6.782512355130166e-05,-1.67970410984708e-05,6.847182521596551e-05,-5.707778996111301e-07,5.614603287540376e-05
3.1314284569816664e-06,-6.674959149677306e-05,-5.690905891242437e-05,3.609952182159759e-05,-1.3264420886116568e-05,6.201147334650159e-05
4.133175934839528e-06,-6.436731200665236e-05,-2.5429195375181735e-05,1.6505829989910126e-05,-1.6174079064512625e-05,6.772168126190081e-05
9.85023689281661e-06,-7.560980884591118e-05,4.6287230361485854e-05,1.4057982298254501e-05,-1.4934817954781465e-05,6.990236579440534e-05
1.4635684237873647e-05,-9.942568431142718e-05,0.00010162541730096564,2.7293082894175313e-05,-1.7061314792954363e-05,6.815990491304547e-05
1.5378584066638723e-05,-0.0001116855419240892,0.00010406223736936226,4.691089998232201e-05,-2.1546753487200476e-05,6.640153151238337e-05
1.3841744475939777e-05,-0.00010014750296249986,8.623370376881212e-05,6.640769424848258e-05,-2.3046572096063755e-05,6.755486538168043e-05
1.3596349162980914e-05,-7.47952435631305e-05,9.73245914792642e-05,7.407097291434184e-05,-1.556543975311797e-05,6.838500848971307e-05
1.7373009541188367e-05,-4.925363100483082e-05,0.0001252709043910727,5.624511686619371e-05,-7.147340056690155e-06,6.552773993462324e-05
1.7980511984205805e-05,-3.3973112294916064e-05,0.00014194623508956283,2.073352698062081e-05,-6.6068068917957135e-06,6.223782838787884e-05
1.5138209164433647e-05,-3.0104652978479862e-05,0.0001420459884684533,-1.3414783097687177e-05,-1.055743450706359e-05,5.886097642360255e-05
1.880881427496206e-05,-3.518585072015412e-05,0.00011143300798721611,-4.187370723229833e-05,-1.5532488760072738e-05,5.229602174949832e-05
2.5287277821917087e-05,-3.847726475214586e-05,5.6399712775601074e-05,-6.047361603123136e-05,-1.9037250240216963e-05,4.5096610847394913e-05
2.4497334379702806e-05,-3.482288229861297e-05,2.541098729125224e-05,-5.579310527537018e-05,-2.421393401164096e-05,4.472285945666954e-05
2.0103982024011202e-05,-3.3270916901528835e-05,3.44565742125269e-05,-2.5524092052364722e-05,-2.9667140552191995e-05,5.033406341681257e-05
1.745295594446361e-05,-3.136239683954045e-05,5.588694693869911e-05,1.801300277293194e-05,-3.338958777021617e-05,5.598382995231077e-05
1.4512031157210004e-05,-2.6038402211270295e-05,7.25441423128359e-05,4.8960577260004357e-05,-3.653169915196486e-05,5.7708442909643054e-05
1.1891764188476373e-05,-2.4765047783148475e-05,8.14929444459267e-05,5.6321594456676394e-05,-3.86637075280305e-05,5.8949397498508915e-05
9.70922064880142e-06,-2.4949093130999245e-05,8.476124639855698e-05,4.525596523308195e-05,-3.807968823821284e-05,6.257292989175767e-05
9.63487309491029e-06,-2.4511778974556364e-05,8.368609269382432e-05,3.139195541734807e-05,-3.2237097912002355e-05,6.35487085673958e-05
1.1489539247122593e-05,-2.6736694053397514e-05,7.168305455707014e-05,2.6937632355839014e-05,-2.3262038666871376e-05,6.481761374743655e-05
1.4056010513741057e-05,-3.144425500067882e-05,5.4112126235850155e-05,2.730132473516278e-05,-1.3902208593208343e-05,6.818549445597455e-05
1.670250821916852e-05,-3.9859711250755936e-05,4.337098289397545e-05,2.4204940928029828e-05,-8.464437996735796e-06,7.058377377688885e-05
1.9996148694190197e-05,-4.9115253204945475e-05,4.1385836084373295e-05,2.052660238405224e-05,-9.491836863162462e-06,6.773503992008045e-05
2.4919678253354505e-05,-5.6753880926407874e-05,4.0993178117787465e-05,2.348574525967706e-05,-1.1739311958081089e-05,6.478697468992323e-05
2.9035702027613297e-05,-6.0597583797061816e-05,3.2490694138687104e-05,3.290060703875497e-05,-1.1345156053721439e-05,6.52259768685326e-05
3.064380871364847e-05,-6.271598977036774e-05,1.7867341739474796e-05,3.8018537452444434e-05,-1.1640958291536663e-05,6.497889989987016e-05
2.9632816222147085e-05,-6.599422340514138e-05,1.3862269042874686e-05,3.197287514922209e-05,-1.4081130757404026e-05,6.448156636906788e-05
3.092948827543296e-05,-6.873058009659871e-05,3.115886283922009e-05,2.0637242414522916e-05,-1.7016054698615335e-05,6.783995195291936e-05
3.859757271129638e-05,-6.817407120252028e-05,4.6750337787671015e-05,1.1294560863461811e-05,-1.799274468794465e-05,7.359919254668057e-05
4.7499375796178356e-05,-6.289480370469391e-05,2.4571361791458912e-05,3.991000994574279e-06,-1.393548518535681e-05,7.471926073776558e-05
5.052618871559389e-05,-5.504476939677261e-05,-2.5202043616445735e-05,4.316590093367267e-06,-8.468866326438729e-06,7.475681195501238e-05
4.8824993427842855e-05,-4.881581844529137e-05,-5.9700014389818534e-05,3.057124558836222e-05,-8.277253982669208e-06,7.5002339144703e-05
4.748350693262182e-05,-4.911661017104052e-05,-7.219937833724543e-05,7.388318772427738e-05,-1.1810384421551134e-05,7.521847874158993e-05
5.0147260481026024e-05,-5.6235607189591974e-05,-8.62353335833177e-05,0.00010026018571807072,-1.5636327589163557e-05,7.539766374975443e-05
5.327899270923808e-05,-6.244330143090338e-05,-0.00010885648953262717,8.673044067109004e-05,-2.038081584032625e-05,7.228762842714787e-05
5.3329698857851326e-05,-6.356158701237291e-05,-0.0001228141481988132,6.0498514358187094e-05,-2.109335400746204e-05,6.926020432729274e-05
5.154641985427588e-05,-6.147810199763626e-05,-0.00011760349298128858,4.943176463712007e-05,-1.9334051103214733e-05,7.062702206894755e-05
4.919298953609541e-05,-6.192156433826312e-05,-9.171012789011002e-05,4.4648098992183805e-05,-1.9864859496010467e-05,7.531011942774057e-05
4.747734419652261e-05,-6.481178570538759e-05,-6.0288639360805973e-05,3.903708784491755e-05,-1.5894895113888197e-05,7.634388020960614e-05
4.567542782751843e-05,-5.91091338719707e-05,-2.9238140996312723e-05,3.466098860371858e-05,-6.625905371038243e-06,7.094717875588685e-05
4.772009560838342e-05,-4.7136250941548496e-05,6.942016625544056e-06,3.774185825022869e-05,1.692849195933377e-06,6.480287993326783e-05
5.15579195052851e-05,-3.664695759653114e-05,3.420652501517907e-05,3.333400673000142e-05,5.2266423153923824e-06,6.255402695387602e-05
5.008016523788683e-05,-3.28888745571021e-05,4.8858168156584725e-05,1.0937023034784943e-05,6.881653462187387e-06,6.305109127424657e-05
4.2734784074127674e-05,-3.087554796366021e-05,5.4539472330361605e-05,-1.326647907262668e-05,9.52124082687078e-06,6.143986684037372e-05
3.1676543585490435e-05,-2.4513477910659276e-05,5.373973908717744e-05,-2.7144522391608916e-05,1.4100894986768253e-05,6.137251330073923e-05
2.6426325348438695e-05,-1.8986371287610382e-05,4.680136407841928e-05,-2.0491743271122687e-05,1.5145346878853161e-05,6.080879029468633e-05
2.7108188078273088e-05,-1.8775277567328885e-05,4.085645196028054e-05,3.2030870897870045e-06,9.400881936016958e-06,5.980528658255935e-05
2.4212788048316725e-05,-2.171570849895943e-05,3.163181827403605e-05,1.99113528651651e-05,2.933090854639886e-06,5.745224916609004e-05
1.5923938917694613e-05,-2.485461300238967e-05,2.1692230802727863e-05,1.324456934526097e-05,-2.354517619096441e-06,5.134916864335537e-05
6.8821441345789935e-06,-3.200305945938453e-05,3.2765052310423926e-05,-7.5188977461948525e-06,-4.307161816541338e-06,4.3987096432829276e-05
3.2577881938777864e-06,-5.2515115385176614e-05,6.027723429724574e-05,-2.168954597436823e-05,-2.32539969147183e-06,4.2171290260739625e-05
7.645690857316367e-06,-8.530176273779944e-05,5.9130241425009444e-05,-1.513314782641828e-05,6.186534733387816e-07,4.757813803735189e-05
1.4631753401772585e-05,-0.00011060859833378345,1.0676533747755457e-05,3.4077024793077726e-06,-1.5066594016843737e-07,5.065874211140908e-05
1.7203137758770026e-05,-0.00011315810115775093,-4.363590414868668e-05,1.6688376490492374e-05,-2.636661065480439e-06,4.720533252111636e-05
1.5207390788418707e-05,-9.528570808470249e-05,-5.60890075576026e-05,1.8193326468463056e-05,-3.4864176541304914e-06,4.386464934214018e-05
1.6705511370673776e-05,-7.130601443350315e-05,-2.2047755919629708e-05,1.6096853869385086e-05,-7.195818056970893e-07,4.9749498430173844e-05
2.41951802308904e-05,-5.2757051889784634e-05,1.9113322196062654e-05,2.054578362731263e-05,3.782942712859949e-06,6.101672988734208e-05
3.151149212499149e-05,-4.5395932829706e-05,2.386316737101879e-05,3.541061596479267e-05,4.8569954742561094e-06,6.641018262598664e-05
3.466095222393051e-05,-4.744699253933504e-05,-1.1696649380610324e-05,5.37613159394823e-05,2.7429821329860715e-06,5.582358062383719e-05
3.5262764868093655e-05,-4.875547165283933e-05,-5.0508719141362235e-05,6.651987496297807e-05,-2.682850208657328e-06,3.7962770875310525e-05
3.292231122031808e-05,-4.312230157665908e-05,-5.50748263776768e-05,7.815699063939974e-05,-1.3454317013383843e-05,2.8800910513382405e-05
2.696370574994944e-05,-3.719309461303055e-05,-1.4657469364465214e-05,7.893460860941559e-05,-2.6022638849099167e-05,2.9351820558076724e-05
2.2198371880222112e-05,-3.153727448079735e-05,4.17858173022978e-05,6.042965469532646e-05,-3.310234023956582e-05,2.9896062187617645e-05
1.7446549463784322e-05,-1.9094954041065648e-05,7.890877895988524e-05,3.826882311841473e-05,-3.304619895061478e-05,2.7994386982754804e-05
1.1095005902461708e-05,3.989429387729615e-06,9.37160657485947e-05,2.8040116376359947e-05,-2.9316741347429343e-05,3.119262692052871e-05
1.5087429972027167e-07,2.997397859871853e-05,0.0001139912274084054,2.4381828552577645e-05,-2.2694850486004725e-05,4.216329034534283e-05
-1.096005962608615e-05,4.125154373468831e-05,0.0001482749212300405,2.2732579964213073e-05,-1.4413511962629855e-05,5.4035022913012654e-05
-1.4629166798840743e-05,3.26855770254042e-05,0.00019126450933981687,3.95584138459526e-05,-1.0835227840289008e-05,6.520822353195399e-05
-1.1948583960474934e-05,9.263143510906957e-06,0.00023844916722737253,7.396162982331589e-05,-1.3600230886368081e-05,7.617461960762739e-05
-6.4295913944079075e-06,-1.7984511941904202e-05,0.0002786166442092508,9.614834561944008e-05,-1.859068106568884e-05,8.362536027561873e-05
-4.412039743328933e-06,-3.6593934055417776e-05,0.0003066892677452415,9.583494102116674e-05,-2.3299926397157833e-05,8.542628347640857e-05
-6.846802079962799e-06,-4.947706838720478e-05,0.00031807852792553604,8.13058577477932e-05,-2.862160181393847e-05,8.36460676509887e-05
-8.304189577756915e-06,-5.778221748187207e-05,0.00030017245444469154,5.8070640079677105e-05,-3.256279887864366e-05,8.370990690309554e-05
-7.2475377237424254e-06,-6.134522845968604e-05,0.00023885250266175717,3.070478487643413e-05,-3.121509507764131e-05,8.280197653220966e-05
-4.476882168091834e-06,-7.024377555353567e-05,0.00014224291953723878,8.420234735240228e-06,-2.911407864303328e-05,7.45533689041622e-05
-1.6774920368334278e-06,-8.481069380650297e-05,6.127936649136245e-05,-4.165940481470898e-06,-2.9571350751211867e-05,5.8944093325408176e-05
2.2832989543530857e-06,-9.746100113261491e-05,3.167928662151098e-05,-9.402539035363588e-06,-3.294139969511889e-05,4.781120878760703e-05
4.542775513982633e-06,-9.955844143405557e-05,3.105591531493701e-05,-1.0523892342462204e-05,-3.963713606935926e-05,4.964133404428139e-05
2.5624776753829792e-06,-9.114780550589785e-05,1.870124469860457e-05,-6.753634806955233e-06,-4.731888839160092e-05,5.158868953003548e-05
-6.793018769712944e-07,-7.599862146889791e-05,-1.1641579476417974e-05,7.91067213867791e-06,-4.9817223043646663e-05,4.622491178452037e-05
-6.107196526272674e-08,-6.343925633700565e-05,-2.786967161227949e-05,2.877363294828683e-05,-4.159102900302969e-05,4.52255189884454e-05
7.146185453166254e-06,-6.098184167058207e-05,-1.871672247943934e-05,4.381288090371527e-05,-2.4047194528975524e-05,5.176464037504047e-05
1.6436359146609902e-05,-6.330171891022474e-05,-8.880097084329464e-06,5.1556275138864294e-05,-5.124216841068119e-06,5.3402480261866e-05
2.1670337446266785e-05,-6.415943789761513e-05,-1.3415200555755291e-05,5.366955520003103e-05,5.444293492473662e-06,4.9453970859758556e-05
2.3014434191281907e-05,-6.317720544757321e-05,-2.1773095795651898e-05,4.396821896079928e-05,7.114264917618129e-06,5.022938421461731e-05
2.3807131583453156e-05,-6.159496842883527e-05,-3.0024701118236408e-05,2.708708052523434e-05,3.848373125947546e-06,5.3325085900723934e-05
2.6352014174335636e-05,-6.828110053902492e-05,-4.2520692659309134e-05,1.6248361134785227e-05,1.244350613660572e-07,5.3160405514063314e-05
3.1560124625684693e-05,-8.478951349388808e-05,-5.936094748903997e-05,1.8508029825170524e-05,2.852353873095126e-06,5.325470192474313e-05
3.549771281541325e-05,-9.153095015790313e-05,-7.583074329886585e-05,3.083414048887789e-05,1.0943351298919879e-05,6.287646829150617e-05
3.775199002120644e-05,-8.25064125820063e-05,-8.953247015597299e-05,4.213270585751161e-05,1.6756721379351802e-05,7.43412965675816e-05
3.965256109950133e-05,-6.673533061984926e-05,-9.907776257023215e-05,4.5240100007504225e-05,1.7739068425726146e-05,7.906676910351962e-05
4.220583286951296e-05,-5.03113042213954e-05,-0.00011544777953531593,4.276298568584025e-05,1.549957596580498e-05,8.168617932824418e-05
4.5146596676204354e-05,-3.933185143978335e-05,-0.00015186145901679993,3.892085078405216e-05,1.1237575563427527e-05,7.956407353049144e-05
4.9944912461796775e-05,-4.554747647489421e-05,-0.0001986536371987313,3.708896110765636e-05,-4.194590019324096e-06,8.139714191202074e-05
5.402356691774912e-05,-6.283800030359998e-05,-0.0002317489852430299,3.5429045965429395e-05,-2.4873510483303107e-05,8.786430407781154e-05
5.63254434382543e-05,-8.5000108811073e-05,-0.0002330345450900495,2.022394437517505e-05,-3.517686855047941e-05,8.595779218012467e-05
5.3983021643944085e-05,-0.00011460962559795007,-0.0001955534826265648,-6.169733751448803e-06,-3.567884778021835e-05,7.076149631757289e-05
4.476138929021545e-05,-0.00013362370373215526,-0.00012574908032547683,-2.733562359935604e-05,-2.909293834818527e-05,5.173832323634997e-05
3.342579657328315e-05,-0.00012553705892059952,-4.89204321638681e-05,-3.86105602956377e-05,-1.4452221876126714e-05,4.426087252795696e-05
2.2593474568566307e-05,-9.588853572495282e-05,1.2118229278712533e-05,-4.3455613194964826e-05,2.4839148409228073e-06,4.601632463163696e-05
1.4396140613825992e-05,-6.170860433485359e-05,6.18470148765482e-05,-5.0774109695339575e-05,1.5876230463618413e-05,4.9673391913529485e-05
1.2800641343346797e-05,-3.7077985325595364e-05,0.00010553871106822044,-6.553149432875216e-05,2.7700172722688876e-05,5.488559327204712e-05
1.86113338713767e-05,-2.9318451197468676e-05,0.00013280147686600685,-8.127351611619815e-05,3.8120222598081455e-05,5.9868823882425204e-05
2.7522119125933386e-05,-3.824211307801306e-05,0.00013608270091935992,-9.099498129216954e-05,4.458411058294587e-05,6.158357427921146e-05
3.252652459195815e-05,-5.6121738452930003e-05,0.00012604985386133194,-7.878238830016926e-05,4.485504177864641e-05,6.17592959315516e-05
2.8186770578031428e-05,-6.218854832695797e-05,0.00012063176109222695,-3.7406309274956584e-05,4.0056227589957416e-05,5.9303001762600616e-05
1.7982383724302053e-05,-4.24025856773369e-05,0.00010663430293789133,1.2061293091392145e-05,3.298872979939915e-05,4.9282713007414714e-05
1.275740305572981e-05,-8.150661415129434e-06,6.469563231803477e-05,4.404038190841675e-05,2.5024410206242464e-05,3.572490095393732e-05
1.8110991732100956e-05,2.5166995328618214e-05,1.428577525075525e-05,6.055614721844904e-05,1.810642788768746e-05,3.0895880627213046e-05
2.7432795832282864e-05,4.853339851251803e-05,-1.4798866686760448e-05,8.641699969302863e-05,1.1688188351399731e-05,3.78856057068333e-05
3.03097658616025e-05,5.770010102423839e-05,-1.7267570001422428e-05,0.00013572566967923194,2.8339557047729613e-06,4.8121499276021495e-05
2.6613217414706014e-05,5.5154690926428884e-05,2.728642130023218e-07,0.0001833338028518483,-6.160312295833137e-06,5.434743070509285e-05
2.369321373407729e-05,4.114911280339584e-05,1.9524253730196506e-05,0.0001888043771032244,-1.3217942978371866e-05,5.798623533337377e-05
2.2719183107255958e-05,3.26953500007221e-06,1.3220574146544095e-05,0.00014784712402615696,-2.1221898350631818e-05,6.0298956668702886e-05
2.3483346012653783e-05,-5.165707989363e-05,-1.811299443943426e-05,9.309725282946602e-05,-2.8571783332154155e-05,5.73423967580311e-05
2.1682839360437356e-05,-7.74961881688796e-05,-2.016186590481084e-05,6.212988955667242e-05,-2.8390877560013905e-05,5.3161944379098713e-05
1.422701734554721e-05,-5.367786798160523e-05,4.5535536628449336e-05,5.7856348576024175e-05,-2.143865822290536e-05,5.720529952668585e-05
5.879799118702067e-06,-1.4130392628430855e-05,0.0001380694011459127,5.3890027629677206e-05,-1.528864049760159e-05,6.693696923321113e-05
-4.536988399195252e-06,9.562052582623437e-06,0.00021579285385087132,4.3665702833095565e-05,-1.5522709873039275e-05,6.998522439971566e-05
-1.1675954738166183e-05,8.921291737351567e-06,0.00028224941343069077,4.464354060473852e-05,-1.599610004632268e-05,6.023157766321674e-05
-9.20603361009853e-06,-7.291290330613265e-06,0.0003400622517801821,5.300830162013881e-05,-1.2402387255860958e-05,4.723645906778984e-05
-5.216938916419167e-06,-2.6692336177802645e-05,0.0003780604456551373,5.819173748022877e-05,-1.0470255801919848e-05,4.4686974433716387e-05
-4.622343681148777e-07,-4.355016062618233e-05,0.00037434560363180935,5.679443711414933e-05,-1.5879806596785784e-05,5.513620999408886e-05
3.944865966332145e-06,-5.242068073130213e-05,0.00031548208789899945,5.769357812823728e-05,-2.4178119929274544e-05,6.876991392346099e-05
7.605915925523732e-06,-5.413286271505058e-05,0.00022324234305415303,6.987692904658616e-05,-2.7016609237762168e-05,7.502875087084249e-05
7.386665856756736e-06,-5.397576023824513e-05,0.0001464216911699623,7.892702706158161e-05,-2.2863994672661647e-05,7.403532072203234e-05
5.312454504746711e-06,-5.147993579157628e-05,0.00011410053411964327,6.280012166826054e-05,-1.897005677164998e-05,7.236538658617064e-05
4.816608907276532e-06,-4.67664904135745e-05,0.00010370467498432845,2.7880712877959013e-05,-2.206651151936967e-05,6.908842624397948e-05
4.561612513498403e-06,-4.700920908362605e-05,7.111111335689202e-05,-2.8201409918438003e-07,-2.674981442396529e-05,6.525001663248986e-05
7.2325774453929625e-06,-5.2139566832920536e-05,1.4087958334130235e-05,-8.679702659719624e-06,-2.7883730581379496e-05,5.967462493572384e-05
1.1541224012034945e-05,-5.798115307698026e-05,-2.5820530936471187e-05,-5.3522434484420955e-08,-2.475938163115643e-05,4.894611265626736e-05
1.7347298125969246e-05,-6.38818892184645e-05,-2.6526544388616458e-05,7.643941899004858e-06,-1.8145366993849166e-05,4.103449828107841e-05
2.2228805391932838e-05,-6.970539834583178e-05,-7.5837401709577534e-06,6.099815550442145e-07,-1.0100809049617965e-05,4.402129343361594e-05
2.63211641140515e-05,-7.235026714624837e-05,-8.108148904284462e-06,-1.4637032109021675e-05,-5.264686478767544e-06,5.188039722270332e-05
2.9766117222607136e-05,-6.916607526363805e-05,-3.807090615737252e-05,-2.4390728867729194e-05,-4.811704911844572e-06,5.7860703236656263e-05
3.190342977177352e-05,-5.905733269173652e-05,-7.094118336681277e-05,-2.667326589289587e-05,-6.20382070337655e-06,6.044741894584149e-05
3.4639651858014986e-05,-4.450365304364823e-05,-9.423839946975932e-05,-1.877837348729372e-05,-7.246838777064113e-06,6.039240543032065e-05
3.968511737184599e-05,-3.242079765186645e-05,-0.00011274822463747114,6.657784069830086e-06,-7.78203957452206e-06,5.919150135014206e-05
4.274019374861382e-05,-3.383089278941043e-05,-0.0001264438615180552,3.858662603306584e-05,-1.0560906048340257e-05,5.4034509958000854e-05
3.932535037165508e-05,-5.3496394684771076e-05,-0.0001387379306834191,5.098684414406307e-05,-1.3878559002478141e-05,4.7311365051427856e-05
3.4154880268033594e-05,-7.980306691024452e-05,-0.00014869873120915145,4.039964551338926e-05,-1.18945999929565e-05,4.3652456952258945e-05
3.794903386733495e-05,-9.451158257434145e-05,-0.00015191957936622202,2.0275267161196098e-05,-7.239302249217872e-06,4.923075903207064e-05
4.750115840579383e-05,-9.72254274529405e-05,-0.00014628784265369177,-3.986199772043619e-06,-6.712336471537128e-06,6.240108632482588e-05
5.1743234507739544e-05,-0.00010044535156339407,-0.00013078410120215267,-2.4416671294602565e-05,-8.312534191645682e-06,6.971674883970991e-05
5.228784721111879e-05,-0.00010156122880289331,-9.922149183694273e-05,-2.0837836927967146e-05,-8.15185921965167e-06,7.116466440493241e-05
5.09967103425879e-05,-9.289949957747012e-05,-1.800713835109491e-05,1.791599061107263e-05,-9.409193808096461e-06,7.696095417486504e-05
4.5736531319562346e-05,-7.731288496870548e-05,0.00010345557529944927,7.780425221426412e-05,-1.4989947885624133e-05,8.302097558043897e-05
3.843255035462789e-05,-6.476761336671188e-05,0.0002043137646978721,0.00012007528857793659,-2.2339230781653896e-05,9.023102757055312e-05
3.046148231078405e-05,-5.75177873542998e-05,0.00024700534413568676,0.00012492052337620407,-2.7490275897434913e-05,0.00010271753126289696
2.5748413463588804e-05,-4.835334402741864e-05,0.00024180137552320957,0.00010642878623912111,-2.8771963116014376e-05,0.00011645025369944051
2.640814273036085e-05,-4.3081356125185266e-05,0.00022454900317825377,8.368655107915401e-05,-2.768418926279992e-05,0.0001207348468597047
3.0051345675019547e-05,-6.613265577470884e-05,0.00019914524455089122,6.9172921939753e-05,-2.5296731109847315e-05,0.0001134480262408033
3.519991150824353e-05,-0.00012224023521412164,0.0001385882933391258,5.6661625421838835e-05,-2.400038647465408e-05,0.00010330924123991281
3.8828333345009014e-05,-0.0001702597801340744,4.724778136733221e-06,3.3539672585902736e-05,-2.5079891202040017e-05,9.253786993212998e-05
3.7521516787819564e-05,-0.00017307206871919334,-0.00015956898278091103,4.285807790438412e-06,-2.897013291658368e-05,8.038192754611373e-05
2.8697559173451737e-05,-0.00013855323777534068,-0.0002483247662894428,-2.270378354296554e-05,-3.279845623183064e-05,6.756958464393392e-05
1.7247464711545035e-05,-8.90909941517748e-05,-0.00023343827342614532,-5.855318158864975e-05,-3.181667852913961e-05,4.991766400053166e-05
1.0425494110677391e-05,-4.5896809751866385e-05,-0.0001714722311589867,-0.00011941473348997533,-2.044965367531404e-05,3.1042211048770696e-05
1.7724762074067257e-05,-3.547007145243697e-05,-0.00011146732867928222,-0.00018879778508562595,-3.330982778493308e-08,2.2984975657891482e-05
3.835018287645653e-05,-7.110363367246464e-05,-6.313082849374041e-05,-0.00021524992189370096,1.5559537132503465e-05,2.0048390069860034e-05
5.818551289848983e-05,-0.00013511894212570041,-2.9883934985264204e-05,-0.00015962126781232655,2.011973447224591e-05,1.4015136002853978e-05
6.893471436342224e-05,-0.00021021378051955253,-1.8145534340874292e-05,-3.309652311145328e-05,1.7022925021592528e-05,6.786683570680907e-06
7.002444181125611e-05,-0.0002664402418304235,-2.626006244099699e-05,0.00010462166392244399,9.470735676586628e-06,1.2538357623270713e-06
6.519213638966903e-05,-0.00025777824339456856,-4.2405034037074074e-05,0.00018904019088950008,1.5551738670183113e-06,7.942272617356139e-08
5.8476482081459835e-05,-0.00017534574726596475,-5.6708871852606535e-05,0.0001970913726836443,-8.531358730579086e-07,8.585932846472133e-06
4.93782245030161e-05,-6.0306538216536865e-05,-5.5641667131567374e-05,0.00015267547860275954,5.607010962194181e-07,2.534975101298187e-05
3.6225206713424996e-05,3.715250932145864e-05,-3.032670429092832e-05,0.00010031601414084435,1.2440895602594537e-07,4.040347630507313e-05
2.3617769329575822e-05,9.482906170887873e-05,4.475973298667668e-07,6.533307896461338e-05,-2.89824038191e-06,4.830671241506934e-05
1.894373599498067e-05,0.00011000321683241054,5.074893124401569e-06,4.3236581404926255e-05,-6.449198735936079e-06,5.077400783193298e-05
2.19642879528692e-05,9.653461165726185e-05,-1.2127606169087812e-05,2.378788121859543e-05,-1.5007509318820667e-05,4.523222378338687e-05
2.0964171199011616e-05,9.022331505548209e-05,-4.847426316700876e-05,8.73118460731348e-06,-2.9778188036289066e-05,3.669987199828029e-05
1.1329059816489462e-05,0.00011409179569454864,-9.124973439611495e-05,4.66158235212788e-06,-4.337344580562785e-05,3.681227099150419e-05
-6.1727100728603546e-06,0.0001536337804282084,-6.414246308850124e-05,9.048137144418433e-06,-4.884379814029671e-05,4.53955763077829e-05
-2.8178976208437234e-05,0.00018268171697854996,4.880689812125638e-05,1.832685484259855e-05,-4.3285268475301564e-05,5.95612837059889e-05
-4.39733084931504e-05,0.0001930503494804725,0.00017711386317387223,2.6742231057141908e-05,-3.238531280658208e-05,7.256931712618098e-05
-4.988151340512559e-05,0.00016358180437237024,0.00025071826530620456,3.839773853542283e-05,-2.5261642804252915e-05,7.361060852417722e-05
-4.51470295956824e-05,8.944395085563883e-05,0.0002611577801872045,5.058834722149186e-05,-2.5746701794560067e-05,6.500876042991877e-05
-3.434977770666592e-05,1.293043442274211e-05,0.00025791043299250305,5.3055930038681254e-05,-2.6081886971951462e-05,6.118980672908947e-05
-2.230384234280791e-05,-3.7817968404851854e-05,0.00025555334286764264,4.60439950984437e-05,-2.1464293240569532e-05,6.4004649175331e-05
-1.2270405022718478e-05,-5.684885763912462e-05,0.0002517404209356755,3.182794898748398e-05,-1.7702937839203514e-05,6.370187475113198e-05
-6.469731488323305e-06,-6.058630970073864e-05,0.00024239468621090055,2.373519237153232e-05,-1.7222300812136382e-05,6.057335849618539e-05
-2.08877281693276e-06,-5.744559894083068e-05,0.0002264424692839384,2.0131783458054997e-05,-1.3406816833594348e-05,6.0574082453968003e-05
3.863694928440964e-06,-5.1669569074874744e-05,0.0001989803567994386,1.263165904674679e-05,-4.256553438608535e-06,6.420630234060809e-05
1.076825265045045e-05,-4.556977000902407e-05,0.00016068093827925622,1.2252081660335534e-06,5.5684240578557365e-06,6.721644604112953e-05
1.53216296894243e-05,-3.984683644375764e-05,0.00011411164450692013,-1.0028545148088597e-05,1.0389005183242261e-05,6.570082769030705e-05
1.6420724932686426e-05,-3.6845365684712306e-05,6.757764640497044e-05,-8.226507816289086e-06,8.97815334610641e-06,6.0779690102208406e-05
1.3896450582251418e-05,-3.7613983295159414e-05,3.551990812411532e-05,1.2295028682274278e-05,2.557110747147817e-06,5.480352774611674e-05
1.2336250620137434e-05,-3.933066545869224e-05,1.952103411895223e-05,4.284825627109967e-05,-5.475285433931276e-06,5.0465136155253276e-05
1.4164680578687694e-05,-3.96754767280072e-05,1.4212608220987022e-05,6.872013909742236e-05,-8.470645298075397e-06,5.1548020564951e-05
1.7685362763586454e-05,-4.320450170780532e-05,1.2890151992905885e-05,8.152672671712935e-05,-5.31086379851331e-06,5.9024601796409115e-05
2.090635462081991e-05,-5.141865403857082e-05,1.4416615158552304e-05,7.980348891578615e-05,-1.9659287318063434e-06,6.753316120011732e-05
2.3010781660559587e-05,-6.249055149964988e-05,1.3094772839394864e-05,6.758898234693334e-05,-1.597630102878611e-06,6.96319475537166e-05
2.4669412596267648e-05,-7.323308091145009e-05,9.83245081442874e-06,5.2229734137654305e-05,-3.7847316889383364e-06,6.594551814487204e-05
2.5729448680067435e-05,-8.271849219454452e-05,4.735264155897312e-06,4.204970537102781e-05,-7.80763821239816e-06,6.185250822454691e-05
2.5073934011743404e-05,-8.714319119462743e-05,-2.3519173737440724e-06,3.774371725739911e-05,-1.0596127140161116e-05,6.069448863854632e-05
2.4000004486879334e-05,-8.616744889877737e-05,-6.391748229361838e-06,3.4049429814331234e-05,-1.2596335182024632e-05,6.637303158640862e-05
2.263747046526987e-05,-8.259207243099809e-05,-1.4182638778947876e-06,3.261617530370131e-05,-1.4226718121790327e-05,7.713828381383792e-05
2.242658047180157e-05,-8.182215970009565e-05,-6.394308911694679e-06,3.1279294489650056e-05,-1.3794038750347681e-05,8.40176289784722e-05
2.3486594727728516e-05,-8.042292029131204e-05,-2.7257681722403504e-05,2.7744355975301005e-05,-1.1244181223446503e-05,8.353460725629702e-05
2.8387850761646405e-05,-7.633951463503763e-05,-4.349905429990031e-05,2.188102553191129e-05,-9.49889454204822e-06,7.841827027732506e-05
3.5430672141956165e-05,-7.15949063305743e-05,-3.360537448315881e-05,1.2239082025189418e-05,-9.593638424121309e-06,7.549278961960226e-05
3.5560366086428985e-05,-7.017934694886208e-05,-8.318997970491182e-06,5.668573521688813e-06,-9.8399714261177e-06,7.032941357465461e-05
3.554128124960698e-05,-7.124121475499123e-05,1.1003179679391906e-05,1.1072316738136578e-05,-8.119429367070552e-06,5.884974234504625e-05
3.9590919186593965e-05,-7.084312528604642e-05,1.7436450434615836e-05,2.7362644686945714e-05,-5.643618351314217e-06,5.38113308721222e-05
4.548154538497329e-05,-7.456572348019108e-05,8.381180123251397e-06,3.404585731914267e-05,-5.620846877718577e-06,5.818757927045226e-05
4.677617107518017e-05,-8.558155241189525e-05,-8.03410785010783e-06,1.9508288460201584e-05,-1.1345373422955163e-05,6.269419827731326e-05
4.1797833546297625e-05,-9.368495375383645e-05,-1.872589018603321e-05,6.285798917815555e-06,-1.7946404113899916e-05,6.250688602449372e-05
3.81076279154513e-05,-9.490429511060938e-05,-9.337738447356969e-06,9.357178896607365e-06,-1.61889947776217e-05,6.270221638260409e-05
3.548090171534568e-05,-9.195316670229658e-05,8.399442776862998e-06,2.2553018425242044e-05,-7.364027169387555e-06,6.298191146925092e-05
3.439871215960011e-05,-8.85982735780999e-05,1.4081812878430355e-05,3.4789813071256503e-05,1.8902009912835638e-07,5.980916466796771e-05
3.576992457965389e-05,-8.626419003121555e-05,8.713579518371262e-06,3.886325430357829e-05,3.7218001125438605e-06,5.598828283837065e-05
3.873423702316359e-05,-8.363094821106642e-05,6.78594142300426e-06,3.91854700865224e-05,5.199210590944858e-06,5.694991705240682e-05
4.012518547824584e-05,-8.060219988692552e-05,1.2470744877646212e-05,3.636232213466428e-05,6.283699349296512e-06,5.840578523930162e-05
3.939812449971214e-05,-7.748704956611618e-05,2.189063889090903e-05,2.8320850105956197e-05,8.721431186131667e-06,5.0554503104649484e-05
3.965215728385374e-05,-7.293161615962163e-05,3.359356560395099e-05,1.6319998394465074e-05,1.0743366146925837e-05,3.9137354178819805e-05
4.2244704673066735e-05,-6.589698750758544e-05,3.742859189515002e-05,1.7047385654223035e-06,1.0380515050201211e-05,3.8228161429287866e-05
4.461513162823394e-05,-6.052958269719966e-05,2.1773365006083623e-05,-1.3102123375574593e-05,1.2340179637249094e-05,4.926229303237051e-05
4.57599526271224e-05,-6.1028571508359164e-05,-3.5616819786810083e-06,-1.295051333727315e-05,1.9766655896091834e-05,6.34472380625084e-05
4.8558715207036585e-05,-7.050322892609984e-05,-2.407902320555877e-05,1.5308412912418135e-05,2.4886599931051023e-05,7.44553399272263e-05
5.4117506806505844e-05,-9.195273742079735e-05,-4.69798433186952e-05,5.9207908634562045e-05,1.6526424587937072e-05,7.784150511724874e-05
5.765424793935381e-05,-0.00011813089804491028,-8.006369171198457e-05,9.188899275613949e-05,-5.164778485777788e-06,7.516073674196377e-05
5.3165156714385375e-05,-0.0001278000563615933,-0.0001028380575007759,9.812883945414796e-05,-2.590197982499376e-05,7.148797158151865e-05
4.2245843360433355e-05,-0.00011827538401121274,-9.589034016244113e-05,8.257964509539306e-05,-4.287478805053979e-05,6.783143180655316e-05
3.3103871828643605e-05,-0.00010220706462860107,-6.803155702073127e-05,5.644746124744415e-05,-5.975983367534354e-05,6.779401883250102e-05
3.191873838659376e-05,-8.357817569049075e-05,-2.55718405242078e-05,3.949115125578828e-05,-6.987643428146839e-05,7.700754940742627e-05
3.436353290453553e-05,-6.301020039245486e-05,3.505331915221177e-05,3.0345123377628624e-05,-6.728043808834627e-05,8.767897816142067e-05
3.44705258612521e-05,-4.5162032620282844e-05,7.779237785143778e-05,6.428200322261546e-06,-5.8605124650057405e-05,8.85187546373345e-05
3.15607940137852e-05,-3.411596844671294e-05,5.241124381427653e-05,-1.9655199139378965e-05,-5.0705661124084145e-05,7.586568972328678e-05
2.439123454678338e-05,-2.8360365831758827e-05,1.912684274429921e-05,-1.953259197762236e-05,-3.291277607786469e-05,6.0694532294292e-05
1.3189624041842762e-05,-2.085827691189479e-05,4.92545950692147e-05,1.0180835488426965e-05,-5.100635917187901e-06,5.2078961743973196e-05
1.7678460153547348e-06,-6.123721959738759e-06,0.00010741631558630615,4.518700370681472e-05,2.2484231521957554e-05,4.6974022552603856e-05
-8.596086445322726e-06,6.441698587877909e-06,0.00014516663213726133,5.9185229474678636e-05,4.577045910991728e-05,3.906318670487963e-05
-1.1343458027113229e-05,1.7785541785997339e-06,0.00014668816584162414,5.385864642448723e-05,6.269643927225843e-05,3.1866919016465545e-05
-6.592149929929292e-06,-3.337350790388882e-05,0.00012446270557120442,4.724675454781391e-05,6.839915295131505e-05,3.259701406932436e-05
-2.187766540373559e-06,-8.023615373531356e-05,0.0001018060720525682,4.996797724743374e-05,6.049535295460373e-05,3.645201286417432e-05
-5.578524451266276e-06,-9.450756624573842e-05,9.378837421536446e-05,5.50228614883963e-05,4.780522431246936e-05,3.708349686348811e-05
-1.5144817552936729e-05,-7.782359170960262e-05,0.00010420131002319977,5.492906711879186e-05,3.661774462671019e-05,3.608092083595693e-05
-1.8447221009409986e-05,-5.51063239981886e-05,0.000131967433844693,4.479040580918081e-05,2.7460630008135922e-05,4.033820368931629e-05
-1.1345435268594883e-05,-3.570348781067878e-05,0.00015185629308689386,2.3659586076973937e-05,1.6779647921794094e-05,4.4081916712457314e-05
-1.4368489473781665e-06,-1.6520481949555688e-05,0.0001383373892167583,-1.9877134036505595e-06,6.174250756885158e-06,4.258938861312345e-05
3.642209549070685e-06,-1.9446965779934544e-06,9.126312215812504e-05,-2.0953273633494973e-05,-2.532977077862597e-06,3.706227653310634e-05
5.119379238749389e-06,2.724521891650511e-06,3.169599949615076e-05,-2.559749918873422e-05,-8.817206435196567e-06,3.2855907193152234e-05
6.115312316978816e-06,2.026730783200037e-07,-1.6438601960544474e-05,-1.957999666046817e-05,-1.5240732864185702e-05,3.297583680250682e-05
8.54301470099017e-06,-2.5766664748516632e-06,-4.075507968082093e-05,-5.434272225102177e-06,-2.221235445176717e-05,3.3469372283434495e-05
1.3827017028233968e-05,-2.5775514131964883e-06,-4.309412543079816e-05,1.8761074898066e-05,-2.634848715388216e-05,3.2834614103194326e-05
1.9546527255442925e-05,-1.2079212297066988e-07,-4.5758159103570506e-05,4.564084520097822e-05,-2.944454172393307e-05,3.465014015091583e-05
1.8242291844217107e-05,4.882974735664902e-06,-6.20920181972906e-05,5.690146645065397e-05,-3.495757482596673e-05,3.9731981814838946e-05
1.0764023500087205e-05,2.51738629231113e-06,-7.226741581689566e-05,5.0705522880889475e-05,-3.963271956308745e-05,4.3066658690804616e-05
3.998183274234179e-06,-1.3959642274130601e-05,-3.466198540991172e-05,4.5886565203545615e-05,-4.171859109192155e-05,4.581364191835746e-05
1.461727521245848e-07,-3.400396599317901e-05,4.9044523620978e-05,4.815359352505766e-05,-4.507125049713068e-05,5.170813892618753e-05
-2.164283841921133e-06,-5.1068647735519335e-05,0.00013365305494517088,4.903986700810492e-05,-4.684416126110591e-05,5.807696652482264e-05
-2.0776299152203137e-06,-7.280721911229193e-05,0.00017123423458542675,4.043555964017287e-05,-4.262687070877291e-05,6.420449062716216e-05
-4.017205412765179e-07,-8.846518903737888e-05,0.00015280877414625138,1.7078531527658924e-05,-2.9846292818547226e-05,7.278227712959051e-05
-2.781603427592927e-07,-8.221247117035091e-05,0.00012012519437121227,-1.2670063824771205e-06,-1.7086569641833194e-05,8.045667345868424e-05
5.144827809999697e-06,-6.119647150626406e-05,9.239740029443055e-05,1.37280776471016e-05,-1.3687133105122484e-05,8.322396752191707e-05
1.8342288967687637e-05,-4.869257827522233e-05,5.2857387345284224e-05,4.06486724386923e-05,-9.677251910034101e-06,8.39867934701033e-05
3.1978448532754555e-05,-5.424731716630049e-05,-2.7406053959566634e-06,4.427650128491223e-05,-2.0823729300900595e-06,8.467465522699058e-05
3.913804539479315e-05,-6.0927122831344604e-05,-5.210375093156472e-05,2.5720470148371533e-05,-6.590162797692756e-07,8.106878522085026e-05
4.172549597569741e-05,-5.902504926780239e-05,-8.48558047437109e-05,-5.788197540823603e-06,-5.649231752613559e-06,7.467856630682945e-05
4.290091237635352e-05,-6.111484981374815e-05,-0.00010435049625812098,-2.4544955522287637e-05,-1.2195926501590293e-05,6.946136272745207e-05
4.156909926678054e-05,-6.927956565050408e-05,-0.00010430574911879376,-7.4540798777888995e-06,-1.5898762285360135e-05,6.827871402492747e-05
4.219408583594486e-05,-9.056065027834848e-05,-8.5427840531338e-05,3.378924884600565e-05,-1.687775511527434e-05,6.978207966312766e-05
4.722080484498292e-05,-0.00011475706560304388,-6.340623804135248e-05,6.146091618575156e-05,-1.3808905350742862e-05,6.993552233325318e-05
5.36628213012591e-05,-0.00011515599180711433,-5.7009940064745024e-05,6.0730806580977514e-05,-1.1148036719532683e-05,6.420344288926572e-05
5.360330760595389e-05,-9.475359547650442e-05,-7.569914305349812e-05,5.1061142585240304e-05,-1.3131224477547221e-05,5.7007149734999985e-05
4.435397931956686e-05,-7.181478576967493e-05,-0.00010427459346828982,4.039057603222318e-05,-1.7429854779038578e-05,5.576748662861064e-05
2.9816994356224313e-05,-4.9452093662694097e-05,-0.00010888062388403341,2.684726132429205e-05,-2.045772271230817e-05,5.6665579904802144e-05
2.2328107661451213e-05,-2.230702739325352e-05,-6.877298437757418e-05,1.9824597984552383e-05,-2.4071081497822888e-05,5.73414727114141e-05
2.6577898097457364e-05,-5.641555276270083e-07,2.27393388740893e-06,2.923775537055917e-05,-2.9113065465935506e-05,6.107231456553563e-05
3.233586176065728e-05,1.005715148494346e-05,8.100464037852362e-05,4.5996734115760773e-05,-3.33456409862265e-05,6.983835919527337e-05
2.915096229116898e-05,1.909271304612048e-05,0.00015080100274644792,4.6629000280518085e-05,-3.1886305805528536e-05,8.046063885558397e-05
1.9925369997508824e-05,3.070931416004896e-05,0.00018742393876891583,1.928401252371259e-05,-2.4064089302555658e-05,8.87679707375355e-05
1.1091440683230758e-05,2.956478056148626e-05,0.00017805673996917903,-1.3862557352695148e-05,-2.0143879737588577e-05,8.937258826335892e-05
3.998027295892825e-06,8.662816981086507e-06,0.00013353544636629522,-6.884813046781346e-06,-2.657408003869932e-05,8.290066034533083e-05
9.507091931482137e-07,-1.9387201973586343e-05,8.364104724023491e-05,5.298691030475311e-05,-3.6158773582428694e-05,7.637577073182911e-05
1.9425644950388232e-06,-4.4325439375825226e-05,7.287670450750738e-05,0.00011173601524205878,-3.680717054521665e-05,7.361354801105335e-05
7.012243258941453e-06,-6.984301580814645e-05,0.00012052994134137407,0.00010763802856672555,-2.894495082728099e-05,7.016975723672658e-05
1.3938761185272597e-05,-9.927341307047755e-05,0.00017924889107234776,3.872157685691491e-05,-1.9639315723907202e-05,6.267931166803464e-05
2.101022437273059e-05,-0.00012697138299699873,0.00018317365902476013,-2.9806695238221437e-05,-1.3086908438708633e-05,5.632933971355669e-05
2.500514528946951e-05,-0.00013711537758354098,0.00012756939395330846,-4.989764420315623e-05,-7.475909569620853e-06,5.520903869182803e-05
2.9923172405688092e-05,-0.0001253107620868832,5.324948506313376e-05,-4.400273610372096e-05,-1.5245536815200467e-06,6.415729149011895e-05
3.079775342484936e-05,-9.85914739430882e-05,1.355158838123316e-05,-4.38803035649471e-05,5.24461120221531e-06,7.237324462039396e-05
2.2294385416898876e-05,-6.662409577984363e-05,1.5899991922196932e-05,-6.326827133307233e-05,9.913552275975235e-06,6.812447827542201e-05
1.2324746421654709e-05,-5.197009886614978e-05,-6.5706854002201e-06,-8.67747439770028e-05,1.0509689673199318e-05,5.4183354222914204e-05
8.95586890692357e-06,-5.306760431267321e-05,-7.560132507933304e-05,-5.650144521496259e-05,8.848004654282704e-06,4.025630551041104e-05
2.1507370547624305e-05,-5.147165575181134e-05,-0.00014122086577117443,2.2462116248789243e-05,1.2516359674918931e-05,4.0394595998805016e-05
4.141849422012456e-05,-4.7126119170570746e-05,-0.00014881843526382,7.628840103279799e-05,2.186986785090994e-05,4.8484162107342854e-05
4.733434980153106e-05,-4.2154100810876116e-05,-8.772279397817329e-05,8.120030543068424e-05,2.3586020688526332e-05,5.4833122703712434e-05
3.960500907851383e-05,-2.4485592803102918e-05,-5.280367986415513e-06,7.250125054270029e-05,1.4892110812070314e-05,5.583808524534106e-05
3.255133196944371e-05,8.658556907903403e-06,2.7264735763310455e-05,7.455856393789873e-05,5.371732640924165e-06,5.337870243238285e-05
2.9797491151839495e-05,3.775492950808257e-05,7.200273557828041e-06,7.094624743331224e-05,3.1177864912024233e-07,4.80382441310212e-05
2.7490241336636245e-05,3.62991304427851e-05,-5.310077540343627e-06,4.9278620281256735e-05,-3.3961632652790286e-06,4.0051563701126724e-05
2.1990947061567567e-05,5.379504727898166e-06,4.253676161170006e-05,3.253846807638183e-05,-1.1030966561520472e-05,3.3720614737831056e-05
1.197390247398289e-05,-2.5038681997102685e-05,0.0001617775997146964,4.224667281960137e-05,-2.1393128918134607e-05,3.086397919105366e-05
1.6108693898786441e-06,-3.649542122730054e-05,0.0002962207654491067,6.673342431895435e-05,-2.5479308533249423e-05,3.14389581035357e-05
-3.0268228101704153e-07,-3.2251697120955214e-05,0.0003655255422927439,8.495726797264069e-05,-1.7022430256474763e-05,3.323773489682935e-05
7.441338311764412e-06,-2.0557008610921912e-05,0.00034881007741205394,9.183206566376612e-05,-4.350198651081882e-06,3.4491404221626e-05
1.3819224477629177e-05,-6.939862032595556e-06,0.0002908545720856637,9.278149082092568e-05,-2.639819172145508e-07,3.464770270511508e-05
9.778495950740762e-06,-4.41320798927336e-06,0.00022805482149124146,8.652594988234341e-05,-4.370621809357544e-06,3.65948180842679e-05
-4.501995363170863e-07,-1.9898296159226447e-05,0.00016648168093524873,6.95072376402095e-05,-8.337129656865727e-06,3.995568476966582e-05
-4.446580078365514e-06,-4.0219409129349515e-05,9.973879787139595e-05,4.640250699594617e-05,-9.196699465974234e-06,4.457257819012739e-05
1.8050704966299236e-06,-4.629454269888811e-05,4.269906276022084e-05,2.600382322270889e-05,-1.0519707757339347e-05,5.3690258937422186e-05
1.2283248906896915e-05,-3.862375160679221e-05,2.298030085512437e-05,1.703043562883977e-05,-1.2645436072489247e-05,6.561556801898405e-05
1.9101293219137006e-05,-3.0758645152673125e-05,3.754883073270321e-05,2.4418010070803575e-05,-1.5869169146753848e-05,7.035575981717557e-05
2.001654138439335e-05,-3.3734664611984044e-05,4.957895362167619e-05,4.2273186409147456e-05,-2.1546440621023066e-05,6.950808165129274e-05
1.8753440599539317e-05,-4.649411130230874e-05,5.6771041272440925e-05,6.127952656242996e-05,-2.5612056560930796e-05,7.464188820449635e-05
2.0089579265913926e-05,-6.146877421997488e-05,6.41710139461793e-05,6.904782640049234e-05,-2.5420566089451313e-05,8.34639577078633e-05
2.3101052647689357e-05,-7.623086275998503e-05,5.2315281209303066e-05,6.374439544742927e-05,-2.3542565031675622e-05,8.059000538196415e-05
2.5986189939430915e-05,-8.109070040518418e-05,1.9096500182058662e-05,5.538260666071437e-05,-2.5388715584995225e-05,6.624239904340357e-05
2.8173573809908703e-05,-7.821614417480305e-05,-1.7708336599753238e-05,4.135986455366947e-05,-2.4033022782532498e-05,5.365323886508122e-05
2.7594403945840895e-05,-7.603171252412722e-05,-4.0017501305555925e-05,2.262482485093642e-05,-2.0322711861808784e-05,4.850470941164531e-05
2.6312563932151534e-05,-7.24347191862762e-05,-4.701121724792756e-05,1.0242911230307072e-05,-2.056420998997055e-05,5.365156175685115e-05
2.3371703719021752e-05,-6.989961548242718e-05,-4.361738683655858e-05,9.235185643774457e-06,-2.2230318791116588e-05,6.219600618351251e-05
1.9449604224064387e-05,-6.995975854806602e-05,-3.735733844223432e-05,1.2861793038609903e-05,-2.3454807887901552e-05,6.68947832309641e-05
1.6063446309999563e-05,-7.230916526168585e-05,-3.442637898842804e-05,7.12773635314079e-06,-1.8671638827072456e-05,6.533516716444865e-05
1.3849838978785556e-05,-7.368014485109597e-05,-3.3285454264841974e-05,-1.353420339000877e-05,-1.0825880963238887e-05,5.59940526727587e-05
1.458251972508151e-05,-7.146796269807965e-05,-3.191228097421117e-05,-5.022184632252902e-05,-8.254240242422384e-07,4.862436981056817e-05
2.059314829239156e-05,-6.943766493350267e-05,-3.010092223121319e-05,-8.63470122567378e-05,6.94473237672355e-06,4.5768756535835564e-05
2.9050048397039063e-05,-6.827752804383636e-05,-2.561507062637247e-05,-8.45415925141424e-05,9.546020010020584e-06,4.475465539144352e-05
3.579828990041278e-05,-6.71825255267322e-05,-1.8882921722251922e-05,-3.641410148702562e-05,5.621931450150441e-06,4.3744548747781664e-05
3.95193237636704e-05,-6.571263656951487e-05,-1.5036213881103322e-05,2.403434154985007e-05,-4.27426448368351e-06,4.167936640442349e-05
3.878585994243622e-05,-6.397732067853212e-05,-1.482221887272317e-05,5.8589037507772446e-05,-1.6829557353048585e-05,3.8062542444095016e-05
3.5087374271824956e-05,-6.317819497780874e-05,-1.3277547623147257e-05,5.3520176152233034e-05,-3.0322979000629857e-05,3.236419433960691e-05
3.2300031307386234e-05,-6.537446461152285e-05,-8.712981070857495e-06,2.648272675287444e-05,-3.9946251490619034e-05,3.0242063076002523e-05
3.108460077783093e-05,-6.878180283820257e-05,-8.812525265966542e-06,1.3001744264329318e-05,-4.501212606555782e-05,3.542810372891836e-05
2.9742082915618084e-05,-6.920007581356913e-05,-1.5196100321190897e-05,2.966588544950355e-05,-4.592168625094928e-05,4.699737110058777e-05
2.7030484488932416e-05,-6.586890231119469e-05,-1.94811091205338e-05,5.780780338682234e-05,-4.203716162010096e-05,5.802804298582487e-05
2.408310683676973e-05,-5.8586225350154564e-05,-2.2326294129015878e-05,7.256387470988557e-05,-3.132791243842803e-05,6.350544572342187e-05
2.4946455596364103e-05,-4.926927067572251e-05,-3.065705459448509e-05,6.95378621458076e-05,-1.52719730976969e-05,6.414554809452966e-05
2.8285319785936736e-05,-4.643447755370289e-05,-4.0391882066614926e-05,5.713075370294973e-05,1.3446334605760057e-06,6.462672172347084e-05
3.332793858135119e-05,-5.07366748934146e-05,-4.557671491056681e-05,4.776347486767918e-05,1.3967275663162582e-05,6.751644104951993e-05
3.661746086436324e-05,-5.742124994867481e-05,-4.859934051637538e-05,4.246602111379616e-05,2.202609357482288e-05,6.981321348575875e-05
3.163859946653247e-05,-6.382582796504721e-05,-4.973616523784585e-05,3.5871416912414134e-05,2.2161935703479685e-05,6.760039104847237e-05
2.587318522273563e-05,-6.780450348742306e-05,-4.5899363612988964e-05,2.9716777135035954e-05,1.622694071556907e-05,7.173850463004783e-05
2.6398665795568377e-05,-6.958231824683025e-05,-3.3910913771251217e-05,2.619313818286173e-05,9.938349649019074e-06,8.297314343508333e-05
2.8838841899414547e-05,-6.886396295158193e-05,-1.9809618606814183e-05,2.75511611107504e-05,5.348673312255414e-06,8.909651660360396e-05
2.7287764169159345e-05,-6.613867299165577e-05,-9.320876415586099e-06,2.887101800297387e-05,2.7992382456432097e-06,9.384689474245533e-05
2.1989702872815542e-05,-6.309897435130551e-05,1.2747427717840765e-05,2.5216413632733747e-05,3.190624738635961e-06,9.908128413371742e-05
2.1017920516896993e-05,-6.572249549208209e-05,5.565200262935832e-05,1.5735398847027682e-05,6.655184733972419e-06,0.00010343441681470722
2.735190537350718e-05,-6.99453812558204e-05,0.00011290998372714967,5.687628345185658e-06,7.703303708694875e-06,9.686459816293791e-05
3.755129728233442e-05,-6.6148437326774e-05,0.00015385185542982072,-4.645749868359417e-06,1.1915983577637235e-06,8.521287236362696e-05
4.299345891922712e-05,-5.504453292815015e-05,0.00015435510431416333,-2.1954470867058262e-05,-1.0234588444291148e-05,8.504818833898753e-05
4.110746522201225e-05,-4.4697982957586646e-05,0.0001341535389656201,-4.5430799218593165e-05,-1.4886367353028618e-05,8.677780715515837e-05
3.6246521631255746e-05,-3.925776036339812e-05,0.00010246746387565508,-7.384261698462069e-05,-1.1543286746018566e-05,7.482345245080069e-05
3.365080556250177e-05,-4.478257687878795e-05,6.198069604579359e-05,-8.982581493910402e-05,-7.160664154071128e-06,4.9060978199122474e-05
3.4283169952686876e-05,-6.837201362941414e-05,3.948491212213412e-05,-7.535314216511324e-05,-5.6976673477038275e-06,2.9612903745146468e-05
3.236941483919509e-05,-9.677031630417332e-05,4.013527723145671e-05,-4.155762871960178e-05,-4.447149876796175e-06,2.7658410544972867e-05
2.5926350645022467e-05,-0.00010506740363780409,2.032173506449908e-05,9.939931260305457e-07,-7.559070240859e-07,3.548446693457663e-05
2.0470755771384574e-05,-8.832864841679111e-05,-2.446168400638271e-05,5.697485903510824e-05,-9.530772331345361e-07,3.547717278706841e-05
1.8117234503733926e-05,-6.211693107616156e-05,-5.063565549789928e-05,0.0001117148858611472,-7.539515081589343e-06,2.4809909518808126e-05
1.8491824448574334e-05,-3.7499699828913435e-05,-4.087212073500268e-05,0.00012809566396754235,-1.0308182027074508e-05,1.8209560948889703e-05
2.1245705283945426e-05,-1.6603766198386438e-05,-1.2004563359369058e-05,9.074752597371116e-05,-4.584618181979749e-06,2.3180527932709083e-05
2.23360002564732e-05,-6.192894943524152e-07,2.1630994524457492e-05,3.654100146377459e-05,1.2156898492321488e-06,3.417166954022832e-05
1.8902490410255268e-05,7.612094123032875e-06,5.777092883363366e-05,3.054148692172021e-05,1.0057971167043434e-06,4.394939242047258e-05
1.2956382306583691e-05,3.7803697523486335e-06,8.836236520437524e-05,9.090195089811459e-05,-2.8803110581065994e-06,4.91739519929979e-05
1.0927488801826257e-05,-8.50181095302105e-06,8.989571506390348e-05,0.00017011672025546432,-7.64483047532849e-06,4.828442251891829e-05
1.4776527677895501e-05,-1.2616563253686763e-05,5.772882650489919e-05,0.00022014923160895705,-1.0514725545363035e-05,4.398436431074515e-05
1.920668910315726e-05,-9.295117706642486e-06,2.6207329938188195e-05,0.00022555900795850903,-9.191940989694558e-06,3.8412468711612746e-05
2.060839869955089e-05,-1.4441701750911307e-05,2.07958510145545e-05,0.00019217981025576591,-8.634653568151407e-06,3.5501660022418946e-05
2.2399855879484676e-05,-2.8267411835258827e-05,3.914497938239947e-05,0.00013962891534902155,-6.0593756643356755e-06,4.262877700966783e-05
2.3814862288418226e-05,-3.655631735455245e-05,5.5597221944481134e-05,9.28855370148085e-05,-3.5372602269490017e-06,5.823332321597263e-05
2.155721085728146e-05,-3.8922862586332485e-05,4.211103805573657e-05,5.704606155632064e-05,-5.256243184703635e-06,6.645693065365776e-05
1.582420190970879e-05,-4.31661210313905e-05,-5.988134944345802e-06,3.718691732501611e-05,-6.8557210397557355e-06,6.261182716116309e-05
1.0996732271451037e-05,-4.096524935448542e-05,-3.360786649864167e-05,2.8941183700226247e-05,-8.478116797050461e-06,5.962793875369243e-05
1.1271084076724946e-05,-3.424950045882724e-05,-1.1531419659149833e-05,1.3114507964928634e-05,-6.523737283714581e-06,6.179332558531314e-05
1.543025064165704e-05,-3.115452636848204e-05,2.3509508537244983e-05,-7.610695320181549e-06,-9.426551059732446e-07,6.382620631484315e-05
1.9667078959173523e-05,-2.8324913728283718e-05,4.445221202331595e-05,-2.6436624466441572e-05,1.9360516034794273e-06,6.182750803418458e-05
2.209775811934378e-05,-3.343399293953553e-05,2.5643783374107443e-05,-3.7597957998514175e-05,-3.480456598481396e-07,5.21704823768232e-05
2.267312265757937e-05,-5.215621058596298e-05,-2.1672824004781432e-05,-3.919786468031816e-05,-7.235501925606513e-06,4.4250860810279846e-05
2.064435466309078e-05,-6.92631583660841e-05,-3.3551496017025784e-05,-2.650205533427652e-05,-1.3146584024070762e-05,4.572566831484437e-05
1.550160777696874e-05,-7.269459456438199e-05,1.629634243727196e-05,-2.4174421469069785e-06,-1.4767812899663113e-05,5.494848664966412e-05
1.3581942766904831e-05,-7.156323408707976e-05,7.574793562525883e-05,1.596899892319925e-05,-1.4953789104765747e-05,6.501742609543726e-05
1.9448529201326892e-05,-7.688268669880927e-05,9.39278252189979e-05,2.2312158762360923e-05,-1.3581053281086497e-05,7.209059549495578e-05
2.7770178348873742e-05,-8.592539234086871e-05,6.62536476738751e-05,2.2261598132899962e-05,-1.1720271686499473e-05,7.650898623978719e-05
3.268371074227616e-05,-9.212785516865551e-05,1.4470791029452812e-05,1.8555321730673313e-05,-1.1298224308120552e-05,7.728358468739316e-05
3.59519399353303e-05,-9.190323180519044e-05,-3.31192604789976e-05,1.6777821656432934e-05,-9.257551027985755e-06,7.460178312612697e-05
4.070439172210172e-05,-8.254811109509319e-05,-5.016165960114449e-05,2.305554698978085e-05,-4.503106083575403e-06,7.205285510281101e-05
4.760750744026154e-05,-6.752004264853895e-05,-3.4177319321315736e-05,3.511929025989957e-05,7.644617312507762e-07,7.313812238862738e-05
5.1952221838291734e-05,-5.900595715502277e-05,-7.734569408057723e-06,4.2093470256077126e-05,3.826156444119988e-06,7.857265154598281e-05
5.043084820499644e-05,-6.615134043386206e-05,1.1673119843180757e-05,3.485627530608326e-05,3.1538825169263873e-06,8.814975444693118e-05
4.8033823986770585e-05,-9.9162120022811e-05,2.1412086425698362e-05,1.848953979788348e-05,-2.3351030904450454e-06,9.504585614195094e-05
4.776380228577182e-05,-0.00016647405573166907,1.0182340702158399e-05,9.055326700035948e-06,-1.3024754480284173e-05,9.124789357883856e-05
4.336220445111394e-05,-0.00023533300554845482,-5.3596955694956705e-05,1.599769530002959e-05,-2.77462513622595e-05,7.586595165776089e-05
3.1641218811273575e-05,-0.0002451934269629419,-0.00014630619261879474,2.709055843297392e-05,-4.134640403208323e-05,5.84107510803733e-05
2.122919431712944e-05,-0.00018955516861751676,-0.00019986974075436592,2.733971268753521e-05,-4.442744466359727e-05,5.313587098498829e-05
2.1656780518242158e-05,-0.000106498395325616,-0.00018296076450496912,1.5223470654746052e-05,-3.137289240839891e-05,6.378017133101821e-05
2.688762833713554e-05,-2.38415250350954e-05,-0.00011416652705520391,-3.348774413325373e-08,-7.1756858233129606e-06,8.254573913291097e-05
2.7767871870310046e-05,4.291950972401537e-05,-4.018320396426134e-05,-1.1201783308933955e-05,1.0516391739656683e-05,0.00010038623440777883
2.564282294770237e-05,7.750387158012018e-05,1.201303894049488e-05,-2.312556898687035e-05,6.396330718416721e-06,9.79254036792554e-05
2.1193718566792086e-05,7.248407928273082e-05,3.213141826563515e-05,-4.558526779874228e-05,-1.1053383786929771e-05,7.675834785914049e-05
1.2400290870573372e-05,7.333733810810372e-05,2.6172589059569873e-05,-7.620456017320976e-05,-2.5325258320663124e-05,4.995059498469345e-05
-5.312597295414889e-06,0.00011564398300834,3.321205440443009e-05,-9.434849198441952e-05,-2.774182939901948e-05,2.998888521688059e-05
-2.332177791686263e-05,0.00016429029346909374,8.242696640081704e-05,-7.941671356093138e-05,-2.5749528504093178e-05,2.8606516934814863e-05
-3.41178456437774e-05,0.0001811778638511896,0.00013688001490663737,-4.139697921345942e-05,-2.5654753699200228e-05,4.3285141146043316e-05
-3.5299690352985635e-05,0.00015315900964196771,0.00016229244647547603,-5.573140697379131e-06,-1.9993392925243825e-05,6.271900929277763e-05
-3.113359343842603e-05,8.856019121594727e-05,0.0002046025765594095,1.89625770872226e-05,-1.0735870091593824e-05,7.18387309461832e-05
-2.929333277279511e-05,2.138667150575202e-05,0.00026360308402217925,4.30946602136828e-05,-4.677558081311872e-06,7.095491309883073e-05
-2.864582529582549e-05,-2.5926297894329764e-05,0.00028324153390713036,7.37917362130247e-05,-8.61415628605755e-06,5.7409790315432474e-05
-2.599345680209808e-05,-5.5664593674009666e-05,0.00025452167028561234,0.00010192844638368115,-1.6967185729299672e-05,3.5187058529118076e-05
-2.2223364794626832e-05,-7.189984171418473e-05,0.000214670886634849,0.00011524996807565913,-2.2046046069590375e-05,2.2243799321586266e-05
-1.858422729128506e-05,-7.689167250646278e-05,0.00018849148182198405,0.00011177048872923478,-2.4770357413217425e-05,3.3399785024812445e-05
-1.0451741218275856e-05,-7.745556649751961e-05,0.00016133097233250737,9.193872392643243e-05,-2.7551308448892087e-05,5.8589637774275616e-05
3.628634658525698e-06,-7.988155266502872e-05,0.00010898114123847336,5.8850437198998407e-05,-2.7774294721893966e-05,7.775112317176536e-05
1.570793210703414e-05,-8.051907934714109e-05,4.3203872337471694e-05,2.1045565517852083e-05,-2.5567678676452488e-05,8.363928645849228e-05
2.0462721295189112e-05,-7.454501610482112e-05,1.9340075596119277e-05,-8.636996426503174e-06,-2.360661164857447e-05,8.107181929517537e-05
2.2857031581224874e-05,-6.664040120085701e-05,7.184861897258088e-05,-2.6643172532203607e-05,-1.9640912796603516e-05,7.540345541201532e-05
2.5137211196124554e-05,-7.025922241155058e-05,0.00016980496002361178,-4.4250660721445456e-05,-1.2472689377318602e-05,6.468965875683352e-05
2.4850183763192035e-05,-9.487463103141636e-05,0.00023842074733693153,-6.015858889441006e-05,-5.616013368126005e-06,4.907868060399778e-05
2.252369449706748e-05,-0.00012717116624116898,0.00023842505470383912,-4.7710203944006935e-05,-4.618623734131688e-06,3.209284841432236e-05
2.2093523512012325e-05,-0.0001499113132013008,0.00019799861183855683,1.0707821274991147e-05,-6.1355008256214205e-06,2.338647573196795e-05
2.263167334604077e-05,-0.0001581199758220464,0.0001543544203741476,9.619223419576883e-05,-6.7479622885002755e-06,2.650202441145666e-05
2.5780153009691276e-05,-0.00014648262003902346,9.578076424077153e-05,0.00016892973508220166,-7.196479600679595e-06,3.280861710663885e-05
3.514127456583083e-05,-0.00012239815259817988,5.619937837764155e-06,0.00019003066699951887,-8.437897122348659e-06,3.167131217196584e-05
4.801580871571787e-05,-9.53988273977302e-05,-7.338705472648144e-05,0.0001615020155441016,-9.96830658550607e-06,2.605645750008989e-05
5.36030056537129e-05,-6.783860590076074e-05,-9.234057506546378e-05,0.00011309453111607581,-1.0164691047975793e-05,2.2859832824906334e-05
5.089286787551828e-05,-4.309965152060613e-05,-6.598600157303736e-05,6.034277976141311e-05,-9.412031431565993e-06,2.366388616792392e-05
4.6087458031252027e-05,-2.786053482850548e-05,-3.771633782889694e-05,-5.373394742491655e-06,-5.7983052101917565e-06,1.8723634639172815e-05
4.008620817330666e-05,-4.461695425561629e-06,-1.7152904547401704e-05,-7.582113175885752e-05,-1.8880879224525415e-06,1.3962004231871106e-05
3.417548941797577e-05,3.06420297420118e-05,-1.579165291332174e-05,-9.922011668095365e-05,2.9707902626796567e-07,2.5425677449675277e-05
2.9836037356290035e-05,4.287779302103445e-05,-4.773536784341559e-05,-6.783958087908104e-05,2.2870360680826707e-06,4.2798103095265105e-05
2.499170477676671e-05,2.2881527911522426e-05,-7.930307765491307e-05,-3.321171607240103e-05,3.3836158763733692e-06,4.750518928631209e-05
1.826831794460304e-05,-6.547229077114025e-06,-8.362234802916646e-05,-7.718374945397954e-06,5.8198579608870205e-06,4.0486589568899944e-05
1.2118067388655618e-05,-1.5643538063159212e-05,-5.3669518820242956e-05,3.2475443731527776e-05,6.133451734058326e-06,3.860630749841221e-05
6.627603852393804e-06,-1.3904143088439014e-05,1.243295719177695e-05,7.715306855970994e-05,4.220740720484173e-06,4.6377579565159976e-05
5.624187451758189e-06,-2.183123433496803e-05,9.860735008260235e-05,0.00010185091377934441,2.906030204030685e-06,6.0555605159606785e-05
9.153093742497731e-06,-4.448408799362369e-05,0.0001577362127136439,0.00011825093679362908,1.4761490092496388e-06,7.64776996220462e-05
1.660226917010732e-05,-7.09121668478474e-05,0.00015691382577642798,0.00013751760707236826,-3.186633648510906e-06,8.777695620665327e-05
2.5686607841635123e-05,-8.816480112727731e-05,0.00011661774624371901,0.00014271130203269422,-6.9967363742762245e-06,9.103862248593941e-05
3.1405972549691796e-05,-9.541834151605144e-05,7.22401455277577e-05,0.00011211269156774506,-7.604350685141981e-06,8.863024413585663e-05
3.3288219128735363e-05,-9.6357092843391e-05,4.122748214285821e-05,5.791290823253803e-05,-8.874968443706166e-06,8.459058153675869e-05
3.7106769013917074e-05,-9.516625141259283e-05,1.9506445823935792e-05,1.1510264812386595e-05,-1.1175111467309762e-05,7.994733459781855e-05
4.253640872775577e-05,-9.285889973398298e-05,2.475178007443901e-06,-9.70301334746182e-06,-9.796108315640595e-06,7.65945587772876e-05
4.134599294047803e-05,-8.861510286806151e-05,-1.4300878319772892e-05,-1.210817299579503e-05,-7.285923857125454e-06,7.551346061518416e-05
3.336907320772298e-05,-8.215182606363669e-05,-3.141052366117947e-05,-1.5150526451179758e-05,-8.354241799679585e-06,7.529714639531448e-05
2.525283707655035e-05,-7.976236520335078e-05,-4.459018964553252e-05,-2.0421766748768277e-05,-9.447840056964196e-06,7.177348015829921e-05
2.0965964722563513e-05,-7.963093230500817e-05,-5.3545780247077346e-05,-1.1499183528940193e-05,-7.6277901825960726e-06,6.510787352453917e-05
2.119635792041663e-05,-8.030442404560745e-05,-6.143984501250088e-05,9.040819350047968e-06,-5.557155873248121e-06,5.610544030787423e-05
2.476941153872758e-05,-9.118516027228907e-05,-5.325588062987663e-05,1.3646766092278995e-05,-7.597512649226701e-06,4.6284840209409595e-05
2.4092460080282763e-05,-0.00010780312732094899,-1.5124199308047537e-05,-1.2253225577296689e-05,-7.835194992367178e-06,4.798653026227839e-05
2.1178986571612768e-05,-0.00010660354746505618,3.526109139784239e-05,-4.781199459102936e-05,-3.362511279192404e-06,6.129141547717154e-05
2.0921914256177843e-05,-8.723646897124127e-05,7.136115164030343e-05,-3.750511314137839e-05,-1.596178321960906e-06,7.457562605850399e-05
2.2596073904423974e-05,-6.611579010495916e-05,7.56633235141635e-05,2.312023025297094e-05,-4.247201104590204e-06,8.445223647868261e-05
2.5317383915535174e-05,-5.906213482376188e-05,5.4003747209208086e-05,6.876526458654553e-05,-9.342859812022652e-06,8.592430094722658e-05
2.761881478363648e-05,-5.9720092394854873e-05,3.7897087167948484e-05,5.254569623502903e-05,-1.37303859446547e-05,7.868708780733868e-05
2.9044549592072144e-05,-4.6670505980728194e-05,2.3640332074137405e-05,3.3549638374097412e-06,-1.100313056667801e-05,6.731058238074183e-05
3.0267779948189855e-05,-3.508369991322979e-05,-3.7184770462772576e-06,-6.4670211941120215e-06,-7.844129868317395e-06,5.864495688001625e-05
3.6017394450027496e-05,-4.7025110688991845e-05,-3.66072854376398e-05,3.712885154527612e-05,-4.154367161390837e-06,5.3331878007156774e-05
4.40895528299734e-05,-7.475996972061694e-05,-4.722788798972033e-05,8.66408518049866e-05,8.123155907924229e-07,4.8674599383957684e-05
4.299954525777139e-05,-8.726947999093682e-05,-2.7512787710293196e-05,9.586970554664731e-05,4.1153384700010065e-06,4.159107993473299e-05
3.1519644835498184e-05,-7.494224701076746e-05,-9.999531357607339e-06,7.024033402558416e-05,4.09004996981821e-06,3.296652721473947e-05
2.143266101484187e-05,-7.716615800745785e-05,-1.0990170267177746e-05,6.117468001320958e-05,1.7507405800643028e-06,3.299113086541183e-05
2.5913208446581848e-05,-0.00011592393275350332,-1.8622184143168852e-05,9.196857718052343e-05,-2.7204586672269215e-07,4.392757182358764e-05
3.9205289795063436e-05,-0.00014879174705129117,-9.99846997729037e-06,0.00013044581282883883,-3.2815241866046563e-06,6.230064172996208e-05
4.5665532525163144e-05,-0.00013410684186965227,1.1023384104191791e-05,0.00013973908789921552,-5.690413217962487e-06,7.779139559715986e-05
4.599675230565481e-05,-8.61714652273804e-05,3.2536048820475116e-05,0.00012000072456430644,-6.9267994149413425e-06,8.521258132532239e-05
4.509059726842679e-05,-3.192720396327786e-05,4.063335290993564e-05,9.089367813430727e-05,-7.602779533044668e-06,8.857905777404085e-05
4.2199135350529104e-05,1.2899165085400455e-05,2.3502554540755227e-05,6.178598414408043e-05,-9.248077731172089e-06,8.909400639822707e-05
3.7365429307101294e-05,5.2591243729693815e-05,-2.1519170331885107e-05,2.970237983390689e-05,-1.1375803296687081e-05,8.371484727831557e-05
2.935622978839092e-05,8.685672946739942e-05,-7.345628546318039e-05,8.390712196160166e-07,-1.5638490367564373e-05,7.543655374320224e-05
1.808976594475098e-05,0.00011237256694585085,-0.00011111154890386388,-1.0643753739714157e-05,-2.066474007733632e-05,7.011486013652757e-05
8.976580829767045e-06,0.00013137188216205686,-0.00013218895765021443,-6.827592358149559e-08,-1.937729939527344e-05,6.998114986345172e-05
2.9736911528743804e-06,0.00014350117999128997,-0.00012689706636592746,6.986385869822698e-06,-1.0165415005758405e-05,6.878950807731599e-05
-3.738524810614763e-06,0.00014414732868317515,-6.364205910358578e-05,-2.936292366939597e-05,1.460409066567081e-06,6.213974847923964e-05
-9.148940080194734e-06,0.00012128995876992121,5.543776205740869e-05,-0.00010998736979672685,1.1850705050164834e-05,5.293443609843962e-05
-9.107285222853534e-06,6.556680455105379e-05,0.0001616231893422082,-0.00015862380678299814,1.1106892088719178e-05,4.554111364996061e-05
-1.6405606402258854e-06,-8.105284337034391e-07,0.00020721848704852164,-0.00010758688586065546,-8.91275249159662e-06,4.469758641789667e-05
7.0754972512077074e-06,-4.177180744591169e-05,0.00020638709247577935,-7.416024800477317e-06,-3.6292331060394645e-05,4.356147110229358e-05
1.0274166015733499e-05,-5.868817970622331e-05,0.00017770996782928705,5.856007192051038e-05,-6.166720413602889e-05,3.447884591878392e-05
1.0516519068914931e-05,-7.188996823970228e-05,0.0001250735658686608,7.636542432010174e-05,-8.243235788540915e-05,2.717766801652033e-05
1.2614320439752191e-05,-8.2373597251717e-05,6.84026672388427e-05,7.377920701401308e-05,-9.491849777987227e-05,3.0071911169216037e-05
1.542758764117025e-05,-8.10365381767042e-05,3.94556118408218e-05,6.526701326947659e-05,-9.437467087991536e-05,3.869714419124648e-05
1.138910465670051e-05,-8.242810145020485e-05,3.348715108586475e-05,5.0397000450175256e-05,-8.375786273973063e-05,4.571425597532652e-05
4.575455932354089e-06,-8.217054710257798e-05,2.1864920199732296e-05,3.537889278959483e-05,-6.644720997428522e-05,4.919126149616204e-05
4.3289342102070805e-06,-7.48529564589262e-05,2.0342571588116698e-05,2.6995539883500896e-05,-3.766647569136694e-05,5.152971425559372e-05
1.0526389814913273e-05,-7.243303844006732e-05,3.499491140246391e-05,2.4442613721475936e-05,-4.326246198615991e-06,5.464499554364011e-05
1.4243895748222712e-05,-7.854570867493749e-05,4.9268375732935965e-05,2.3258860892383382e-05,2.696611227293033e-05,5.734192018280737e-05
1.341616462013917e-05,-8.177782729035243e-05,4.896457903669216e-05,2.2787076886743307e-05,4.8214518756140023e-05,5.7178272982127964e-05
1.2318304470682051e-05,-7.953027670737356e-05,3.920467133866623e-05,2.324028901057318e-05,5.815230906591751e-05,6.303287227638066e-05
1.5522991816396825e-05,-7.705315510975197e-05,2.6677607820602134e-05,2.3925047571538016e-05,5.781997970188968e-05,7.343463221332058e-05
2.376684278715402e-05,-7.64984215493314e-05,5.68368432141142e-06,1.9076847820542753e-05,5.060613693785854e-05,8.216792775783688e-05
3.2165222364710644e-05,-8.495642396155745e-05,-2.9400764105957933e-05,1.0165912499360275e-05,4.172953049419448e-05,8.464323036605492e-05
3.9018406823743135e-05,-0.00010602544352877885,-7.282404112629592e-05,6.059100542188389e-06,3.2946521969279274e-05,8.368327689822763e-05
4.6729284804314375e-05,-0.00012678318307735026,-0.00011613123933784664,9.611214409233071e-06,2.5553406885592267e-05,8.515949593856931e-05
5.5521853937534615e-05,-0.00013091781875118613,-0.00014764349907636642,1.6535374015802518e-05,1.8189375623478554e-05,8.615208935225382e-05
6.228791608009487e-05,-0.00012051216617692262,-0.000150991982081905,2.0864512407570146e-05,1.2096552381990477e-05,8.577766857342795e-05
6.816819950472564e-05,-0.00011291635019006208,-0.000130868298583664,1.7809035853133537e-05,5.934015916864155e-06,8.940295083448291e-05
7.233876385726035e-05,-0.00012189750850666314,-0.00010622937406878918,5.944842087046709e-06,-8.457261628791457e-07,9.866379696177319e-05
7.221667328849435e-05,-0.00013796440907754004,-7.500020728912205e-05,-2.3289796899916837e-06,-9.981969924410805e-06,0.00010736366675700992
6.877080159028992e-05,-0.0001430398115189746,-1.5260533473338e-05,4.518110927165253e-06,-2.336124271096196e-05,0.00011234647536184639
6.355787627398968e-05,-0.00012973786215297878,5.215561031945981e-05,1.8747565263765864e-05,-4.109212750336155e-05,0.00011039082164643332
5.065908044343814e-05,-9.767505980562419e-05,6.658611528109759e-05,2.4974870029836893e-05,-5.815505937789567e-05,0.00010064229718409479
3.0101400625426322e-05,-5.0387170631438494e-05,1.2847434845753014e-05,3.1947201932780445e-05,-6.593716534553096e-05,8.746243111090735e-05
1.3018011486565229e-05,-7.622445536981104e-06,-3.605244273785502e-05,4.9738639063434675e-05,-6.15581011516042e-05,7.892293069744483e-05
6.227677658898756e-06,1.4938292224542238e-05,-3.217323683202267e-05,5.721679190173745e-05,-5.034515561419539e-05,7.669186743441969e-05
4.262596121407114e-06,2.5754870875971392e-05,7.02887791703688e-06,2.9961136533529498e-05,-3.641838702606037e-05,7.807929068803787e-05
8.5045428477315e-08,3.653200110420585e-05,4.91545106342528e-05,-1.9782155504799448e-05,-2.2690875994157977e-05,7.490161078749225e-05
-8.733776667213533e-06,4.477776383282617e-05,7.886067760409787e-05,-5.31279765709769e-05,-7.837948942324147e-06,6.0953367210458964e-05
-1.9985574908787385e-05,4.799008820555173e-05,0.00011525382433319464,-5.1523387810448185e-05,-7.666769761272008e-07,4.594702477334067e-05
-2.6507597794989124e-05,3.090792597504333e-05,0.00016315202810801566,-4.064420500071719e-05,3.6984934013162274e-06,3.132108395220712e-05
-2.4774051780696027e-05,-8.291569429275114e-06,0.00020043397671543062,-4.128559157834388e-05,1.2391566087899264e-05,5.66535027246573e-06
-1.8764387277769856e-05,-5.312952271196991e-05,0.00020370044512674212,-4.545738556771539e-05,1.8612079657032155e-05,-2.7351703465683386e-05
-1.4002567695570178e-05,-8.528002217644826e-05,0.00018234430172014982,-2.0453595425351523e-05,2.167264392483048e-05,-4.7992780309868976e-05
-7.20877324056346e-06,-9.551423863740638e-05,0.0001805312786018476,5.7610021030995995e-05,1.6056954336818308e-05,-4.301137596485205e-05
8.20583682070719e-06,-0.00010177526564802974,0.00021823143470101058,0.00015192544378805906,8.154936040227767e-06,-2.0988260075682774e-05
2.8182603273307905e-05,-0.00010292142542311922,0.00028189088334329426,0.00021434316295199096,3.999637556262314e-06,-2.1076222367355513e-07
4.082902887603268e-05,-9.196237078867853e-05,0.0003459624422248453,0.00022497361351270229,6.832115104771219e-07,1.4748110515938606e-05
4.166066719335504e-05,-7.49458558857441e-05,0.00037737676757387817,0.00018611182167660445,-5.265172603685642e-06,3.096295040450059e-05
3.1970168492989615e-05,-5.6623473938088864e-05,0.00033577258000150323,0.00012085239723091945,-1.6825613784021698e-05,4.447790342965163e-05
2.0002489691250958e-05,-4.4194333895575255e-05,0.0002498311805538833,6.295441562542692e-05,-2.8785621907445602e-05,5.2318435336928815e-05
1.2671813237830065e-05,-3.989889955846593e-05,0.00018859814736060798,3.1233674235409126e-05,-3.078196459682658e-05,5.5150172556750476e-05
1.0953918717859779e-05,-3.722232941072434e-05,0.00014624581672251225,1.9777302441070788e-05,-2.4080176444840617e-05,5.6127730204025283e-05
1.2250652616785374e-05,-2.5910174372256733e-05,8.45792455947958e-05,1.492466344643617e-05,-1.854097718023695e-05,5.5471617088187486e-05
1.2591103768500034e-05,-6.708346063533099e-06,1.7376620235154405e-05,1.3937887160864193e-05,-1.9208649973734282e-05,5.01566864841152e-05
1.1194279977644328e-05,1.0722983461164404e-05,-1.5522893590969034e-05,2.771340950857848e-05,-1.8033560991170816e-05,4.300553337088786e-05
1.0324815775675233e-05,1.1719156645995099e-05,-5.3478111112781335e-06,5.951243292656727e-05,-1.086450538423378e-05,4.215076478431001e-05
1.4011200619279407e-05,-1.512151811766671e-05,2.4496506739524193e-05,9.015087562147528e-05,-6.86333078192547e-06,5.1309794798726216e-05
2.3534896172350273e-05,-5.962245995760895e-05,3.455483238212764e-05,9.915528062265366e-05,-8.349179552169517e-06,6.3123537984211e-05
3.3827080187620595e-05,-9.983436029870063e-05,-3.790048808127722e-08,8.442676335107535e-05,-9.129650607064832e-06,6.76426207064651e-05
3.446486152824946e-05,-0.00012115643039578572,-5.321341086528264e-05,5.104318188386969e-05,-1.0984527762047946e-05,6.323708657873794e-05
2.9970045943628065e-05,-0.00012285352568142116,-6.480146112153307e-05,1.6247071471298113e-05,-1.579312447574921e-05,6.124841456767172e-05
3.173201912431978e-05,-0.00012222706573083997,-2.44989205384627e-05,-3.1215581657306757e-06,-2.047559610218741e-05,6.84867482050322e-05
3.711355020641349e-05,-0.000124649828649126,3.193566226400435e-05,-1.451373282179702e-05,-2.306219539605081e-05,7.595042552566156e-05
4.019309926661663e-05,-0.00011508512397995219,7.863489008741453e-05,-2.684454739210196e-05,-1.8876928152167238e-05,8.048098243307322e-05
4.065227767569013e-05,-9.113970736507326e-05,9.125758515438065e-05,-3.131239645881578e-05,-1.1467072908999398e-05,8.848137804307044e-05
4.1417959437239915e-05,-8.958519174484536e-05,6.980701436987147e-05,-2.0020688680233434e-05,-1.073901785275666e-05,8.992909715743735e-05
4.1503019019728526e-05,-0.0001167615337180905,8.725980478629936e-06,1.2527202670753468e-05,-1.7485937860328704e-05,8.482815610477701e-05
3.679630390251987e-05,-0.00012247092672623694,-0.00010031193232862279,6.257675704546273e-05,-1.9596138372435234e-05,8.001032256288454e-05
2.833649341482669e-05,-9.682236122898757e-05,-0.00015515023551415652,0.00010099988867295906,-1.0889541954384185e-05,8.37154730106704e-05
2.223004230472725e-05,-6.584224320249632e-05,-0.00011051014735130593,0.00010209535685135052,-3.865512553602457e-06,9.796983795240521e-05
1.6018046153476462e-05,-3.979423127020709e-05,-5.927597885602154e-05,7.176000508479774e-05,-1.2788993444701191e-05,0.00010595085768727586
4.643628471967531e-06,-6.72260239298339e-06,-5.578328273259103e-05,4.171757973381318e-05,-3.3582280593691394e-05,9.967452206183225e-05
-2.9879386147513287e-06,3.331433254061267e-05,-6.250855949474499e-05,2.9073908081045374e-05,-4.5636796130565926e-05,9.181586938211694e-05
-2.5619397092668805e-06,5.610524021903984e-05,-3.2780113542685285e-05,3.204301538062282e-05,-4.8277161113219336e-05,9.100091847358271e-05
2.700299546631868e-06,5.204758417676203e-05,2.2846428691991605e-05,3.961974653066136e-05,-5.38966924068518e-05,9.202683577314019e-05
9.36792366701411e-06,4.127340798731893e-05,6.284767005126923e-05,3.850590655929409e-05,-5.948812759015709e-05,8.871982572600245e-05
1.2615839295904152e-05,3.9814731280785054e-05,3.020159238076303e-05,1.377727858198341e-05,-5.728293035645038e-05,7.994705811142921e-05
1.5091218301677145e-05,3.966473013861105e-05,-8.875907224137336e-05,-3.762668711715378e-05,-4.688870831159875e-05,7.045266102068126e-05
2.298856088600587e-05,2.5876390282064676e-05,-0.00022919831098988652,-8.624469774076715e-05,-3.2764466595835984e-05,6.172321445774287e-05
3.2342148188035935e-05,-2.9292766612343257e-06,-0.00030984083423390985,-9.769458847586066e-05,-1.7694817870506085e-05,5.0070404540747404e-05
3.7522342609008774e-05,-4.2728741391329095e-05,-0.000315697630867362,-7.62470081099309e-05,-3.266075282226666e-06,3.6845529393758625e-05
3.704457776620984e-05,-8.483839337714016e-05,-0.00028001194004900753,-7.038743933662772e-05,1.3523136658477597e-05,2.7947718990617432e-05
3.43737774528563e-05,-0.00012490428343880922,-0.00022625172277912498,-0.00010887042299145833,3.434746395214461e-05,2.2864507627673447e-05
3.61767815775238e-05,-0.00017209410725627095,-0.00015334071940742433,-0.00015975227870512754,5.502674321178347e-05,1.0060811291623395e-05
4.408662425703369e-05,-0.0002191589737776667,-7.667190948268399e-05,-0.0001747689238982275,6.935481360414997e-05,-1.3831344404025003e-05
5.384674295783043e-05,-0.00024683456285856664,-4.636231096810661e-05,-0.00013832167314831167,7.522464147768915e-05,-3.347591700730845e-05
6.275622581597418e-05,-0.0002386267442489043,-5.1869472372345626e-05,-5.199325460125692e-05,7.672328501939774e-05,-3.194337114109658e-05
6.902058521518484e-05,-0.00017877611389849335,-3.6406301660463214e-05,4.538128632702865e-05,7.546832057414576e-05,-8.347609764314257e-06
6.683077663183212e-05,-8.885892748367041e-05,1.3754428209722391e-06,0.00010359052248531953,6.423648301279172e-05,1.52573011291679e-05
5.3410371037898585e-05,-4.828462351724738e-06,3.80148776457645e-05,0.00012392019561957568,4.6429406211245805e-05,2.5263325369451195e-05
3.4319924452574924e-05,5.9346133639337495e-05,6.283308903221041e-05,0.00012040008732583374,2.7524118195287883e-05,2.884730201913044e-05
1.790706483006943e-05,0.0001151335090980865,8.472222543787211e-05,0.00011124014417873695,4.036859991174424e-06,3.6113578971708193e-05
8.973325975603075e-07,0.00016593720647506416,7.999915396794677e-05,9.82836281764321e-05,-1.601890653546434e-05,4.508391793933697e-05
-2.0655998014262877e-05,0.00018829912005458027,7.391987310256809e-05,7.330239895964041e-05,-2.6286556021659635e-05,4.8024368879850954e-05
-3.492246469249949e-05,0.00017095128714572638,0.00012625519593711942,5.4886546422494575e-05,-2.862706060113851e-05,4.299287320463918e-05
-3.566415762179531e-05,0.00013229252363089472,0.00015461677685379982,4.470098065212369e-05,-2.5660503524704836e-05,4.092458766535856e-05
-3.181361171300523e-05,9.598900214768946e-05,0.00010965542605845258,3.288816878921352e-05,-2.1875441234442405e-05,4.6327182644745335e-05
-2.49832355621038e-05,3.8081405364209786e-05,4.544875264400616e-05,2.8788153940695338e-05,-1.8872329746955074e-05,5.534502270165831e-05
-1.0665463378245477e-05,-3.6974335671402514e-05,3.0048029657336883e-05,5.518124453374185e-05,-1.74428441823693e-05,6.92558751325123e-05
1.1263516171311494e-05,-9.352428605780005e-05,9.676364425104111e-05,0.0001017443573800847,-1.7113185094785877e-05,8.464027632726356e-05
2.9036302294116467e-05,-0.00012078084546374157,0.000209212361369282,0.00012994174903724343,-1.9034307115362026e-05,9.462111484026536e-05
3.4791301004588604e-05,-0.0001269038039026782,0.0002943510771729052,0.00013130689330864698,-2.168160062865354e-05,9.423619485460222e-05
3.3196465665241703e-05,-0.00011630378139670938,0.0003012597735505551,0.00012511112436186522,-2.3285532734007575e-05,9.12329342099838e-05
2.8166459742351435e-05,-9.08617876120843e-05,0.0002420724486000836,0.0001233250804943964,-2.727611718000844e-05,9.068156214198098e-05
2.153873174393084e-05,-6.0419093642849475e-05,0.0001595964713487774,0.00013343137106858194,-3.110264879069291e-05,9.104491618927568e-05
1.6433914424851537e-05,-3.533948984113522e-05,7.968366116983816e-05,0.0001433959841961041,-2.9020320653216913e-05,9.305938147008419e-05
1.3067935469734948e-05,-2.335280987608712e-05,1.3318652236193884e-05,0.00012373662320896983,-2.35200332099339e-05,9.594135917723179e-05
1.1620402801781893e-05,-3.0261751817306504e-05,-2.273657446494326e-05,7.551636372227222e-05,-2.0238308934494853e-05,9.792557830223814e-05
1.540693483548239e-05,-6.341694825096056e-05,-2.1612237105728127e-05,3.081280738115311e-05,-1.8536931747803465e-05,9.939537267200649e-05
2.238760316686239e-05,-0.00011901175457751378,2.244362576675485e-06,2.360047983529512e-05,-1.8592190826893784e-05,0.00010388461669208482
2.92624445137335e-05,-0.0001840502372942865,2.624322587507777e-05,5.6756820413284004e-05,-1.8469832866685465e-05,0.00011096705566160381
3.8443267840193585e-05,-0.00024410391051787883,5.8891993830911815e-05,0.00010107048001373187,-1.6017082089092582e-05,0.00011474135681055486
5.051223706686869e-05,-0.0002835712512023747,0.00012199486081954092,0.0001233074435731396,-1.561292083351873e-05,0.00011021480895578861
5.879350646864623e-05,-0.000279831001535058,0.00019092690490651876,0.00011028095468645915,-2.459384995745495e-05,0.00010294869571225718
6.182703509693965e-05,-0.00022515241289511323,0.00023537775268778205,6.766372098354623e-05,-3.724927591974847e-05,0.00010386618669144809
6.876086990814656e-05,-0.0001369965320918709,0.00027079068240709603,1.4081873814575374e-05,-3.955442298320122e-05,0.00012093771510990337
7.716883555985987e-05,-4.5105829485692084e-05,0.0002930988557636738,-3.354486034368165e-05,-3.2171436032513157e-05,0.00014282572374213487
7.600148092024028e-05,2.9964370696689002e-05,0.00026588697801344097,-6.228360143722966e-05,-1.8549299056758173e-05,0.00014877879584673792
5.617936039925553e-05,9.795328514883295e-05,0.00017443738761357963,-7.190534961409867e-05,-8.442257239948958e-06,0.00013052287977188826
2.363049497944303e-05,0.00016758765559643507,7.094016473274678e-05,-6.411107460735366e-05,-8.893900485418271e-06,9.388277248945087e-05
5.701280088032945e-07,0.00021203650976531208,1.1519592590047978e-05,-3.950557220377959e-05,-9.72380530583905e-06,5.384137693908997e-05
-3.6749329410667997e-06,0.00018424908921588212,9.413844964001328e-06,-2.2372714738594368e-05,1.1038168601373854e-08,3.196707257302478e-05
7.128139259293675e-06,9.38737066462636e-05,4.5597582357004285e-05,-1.9514576706569642e-05,1.2962151231477037e-05,3.0046354368096218e-05
1.885153687908314e-05,3.963706149079371e-06,9.169390250463039e-05,-1.4804277270741295e-05,1.3297237273945939e-05,2.7648096875054762e-05
2.283266258018557e-05,-5.970378697384149e-05,0.00013383262557908893,-1.453207187296357e-05,1.014348708849866e-05,1.756234632921405e-05
1.9431967302807607e-05,-8.28838674351573e-05,0.00014250677486415952,-5.133715603733435e-05,1.604373028385453e-05,3.2128430120792473e-06
1.2623629118024837e-05,-7.584619015688077e-05,0.00011269052629359066,-0.00014545544399879873,2.7171457986696623e-05,-1.6675090591888875e-05
5.3259136620908976e-06,-5.288342435960658e-05,5.496825178852305e-05,-0.00025004346389323473,2.749090526776854e-05,-5.461896216729656e-05
-2.491302666385309e-07,-2.104874511132948e-05,-2.3397804397973232e-05,-0.0002744035446085036,1.2970711395610124e-05,-9.222435619449243e-05
-6.668816240562592e-06,1.491156672273064e-05,-9.799464896786958e-05,-0.00016030149708967656,-5.527957455342403e-06,-0.00010064808884635568
-1.0477020623511635e-05,4.129214721615426e-05,-0.00012055265688104555,5.6328084610868245e-05,-1.722534216241911e-05,-7.431157428072765e-05
-7.649146027688403e-06,4.862136847805232e-05,-9.26055945456028e-05,0.00025818037101998925,-2.0707091607619077e-05,-2.953614603029564e-05
-5.866081664862577e-06,4.2883853893727064e-05,-6.930862582521513e-05,0.00034937221789732575,-2.2738049665349536e-05,6.947785550437402e-06
-1.1630731933109928e-05,2.6645593607099727e-05,-8.188454376067966e-05,0.0003256276831962168,-2.7646976377582178e-05,2.1765188648714684e-05
-1.9520730347721837e-05,1.380493699798535e-06,-0.00012531546235550195,0.00024447511532343924,-3.2953877962427214e-05,2.1735080736107193e-05
-2.008352203120012e-05,-3.201964500476606e-05,-0.00016184858395718038,0.0001521833910373971,-3.306441067252308e-05,1.9643564883153886e-05
-1.6353995306417346e-05,-6.541458424180746e-05,-0.00015322193212341517,6.079298327676952e-05,-2.9141101549612358e-05,1.9368140783626586e-05
-1.534981856821105e-05,-8.69481882546097e-05,-0.00011025396815966815,-2.62604789895704e-05,-2.01578968699323e-05,2.4433373255305924e-05
-1.4530252883560024e-05,-8.940599218476564e-05,-7.301407458726317e-05,-8.568627526983619e-05,-6.171085715322988e-06,3.652999293990433e-05
-2.135337354047806e-06,-9.001888247439638e-05,-4.513560634222813e-05,-8.022728434298187e-05,8.335548045579344e-06,4.959425496053882e-05
2.20214351429604e-05,-9.996951121138409e-05,-2.2736006940249354e-05,-1.195760523842182e-05,1.5837576938793063e-05,5.636013520415872e-05
4.373554475023411e-05,-0.00011220312444493175,-2.692460111575201e-05,5.994071761961095e-05,9.298157237935811e-06,5.70181873627007e-05
4.864516813540831e-05,-0.00011261180770816281,-7.050066051306203e-05,8.694457937963307e-05,-9.6498060884187e-06,5.3766001656185836e-05
4.005550727015361e-05,-0.00011155362881254405,-0.00011296619777567685,6.905737973283976e-05,-2.4113529434544034e-05,5.1294071454321966e-05
3.206257679266855e-05,-0.00011011537571903318,-0.0001117042193072848,4.0857030398910865e-05,-2.9525261197704822e-05,5.39268585271202e-05
3.087905133725144e-05,-0.00010086796100949869,-7.277644181158394e-05,3.448312418186106e-05,-2.8450311219785362e-05,6.284528353717178e-05
3.28292662743479e-05,-9.927015344146639e-05,-2.7842470444738865e-05,5.4417832870967686e-05,-2.6817531761480495e-05,6.507933721877635e-05
3.18896745739039e-05,-0.0001278566342080012,-3.0520002383127576e-06,6.399045378202572e-05,-3.1245457648765296e-05,6.395177479134873e-05
2.5194975023623556e-05,-0.00016702827997505665,-1.5698237803007942e-06,4.029065166832879e-05,-3.669974103104323e-05,6.840169953648001e-05
2.446079633955378e-05,-0.0001855815207818523,1.3251643622425036e-06,1.3291611139720771e-05,-3.732530967681669e-05,8.130748028634116e-05
2.7467765903566033e-05,-0.0001795545540517196,1.0090349860547576e-05,7.184099104051711e-06,-2.9161972634028643e-05,0.00010105417459271848
2.1893140001338907e-05,-0.00016117477207444608,5.368036909203511e-06,1.4525040569424164e-05,-2.3657839847146533e-05,0.00011131903011118993
1.2771274668921251e-05,-0.00013900506019126624,-3.6709373034682358e-06,1.7648510038270615e-05,-2.6989568141289055e-05,0.0001122244939324446
1.0377319995313883e-05,-0.00011014147457899526,-1.6544889547276398e-07,8.672259355080314e-06,-3.246363121434115e-05,0.00010916878818534315
1.7791537175071426e-05,-7.837775774532929e-05,2.5385859771631658e-05,-1.978766158572398e-05,-3.0261520805652253e-05,9.877639968181029e-05
2.848115582310129e-05,-5.050635809311643e-05,7.434013241436332e-05,-6.198148184921592e-05,-2.0583482182701118e-05,8.079901454038918e-05
3.451661177678034e-05,-2.3481981770601124e-05,0.00013752977247349918,-9.365442383568734e-05,-1.3875763215764891e-05,6.44101164652966e-05
3.505570566630922e-05,5.962632258160738e-06,0.00017932942137122154,-8.532073843525723e-05,-1.0484654922038317e-05,6.87022038619034e-05
3.4918390156235546e-05,2.5463699785177596e-05,0.00016487350512761623,-3.431854202062823e-05,-5.128258635522798e-06,9.32954644667916e-05
3.202200969099067e-05,3.0054139642743394e-05,0.00010828184895217419,3.216582990717143e-05,-2.69242104877776e-06,0.00010856355220312253
2.2208459995454177e-05,1.5925657862680964e-05,4.626521695172414e-05,7.801842730259523e-05,-1.1716170774889179e-05,9.622480865800753e-05
9.571284863341134e-06,-3.2768719393061474e-05,5.885964583285386e-06,8.835268818074837e-05,-2.746501559158787e-05,7.280162390088663e-05
6.31691705166304e-07,-0.00011005589476553723,1.2004806194454432e-05,7.430416735587642e-05,-3.7408048228826374e-05,6.249966827454045e-05
-3.206075007256004e-06,-0.00016313890228047967,7.266746979439631e-05,4.935874676448293e-05,-3.655215186881833e-05,7.083717355271801e-05
1.0626055200191331e-06,-0.00016130360017996281,0.00016132628661580384,2.8450918762246147e-05,-2.969467095681466e-05,8.514796354575083e-05
1.4756476048205514e-05,-0.00013385496276896447,0.0002531707868911326,4.07768675358966e-05,-2.174168730562087e-05,9.544149361317977e-05
3.0169730962370522e-05,-0.00012079377484042197,0.00032450215076096356,8.849710138747469e-05,-1.9545936083886772e-05,0.00010705332533689216
3.8341069739544764e-05,-0.00011491332406876609,0.0003371667116880417,0.00011997318506473675,-2.4256807591882534e-05,0.00012132685515098274
3.787850801018067e-05,-8.279292524093762e-05,0.0002898364036809653,0.00010733606904977933,-2.4712182494113222e-05,0.0001263611193280667
3.94904418499209e-05,-2.8093860237277113e-05,0.00020638786372728646,8.148951746989042e-05,-1.3763430615654215e-05,0.00011070960317738354
5.302742647472769e-05,1.5588542737532407e-05,0.0001088523495127447,5.996226900606416e-05,5.83284645472304e-06,8.140724094118923e-05
6.708836008328944e-05,2.0296769434935413e-05,2.0727942683151923e-05,8.7313483163598e-06,3.023625868081581e-05,5.458711166284047e-05
6.986028893152252e-05,-1.495603282819502e-05,-7.47545127524063e-05,-6.935435521882027e-05,4.856721716350876e-05,3.248138091294095e-05
6.337420199997723e-05,-3.6450270272325724e-05,-0.00014308410754892975,-9.185315866488963e-05,4.946156695950776e-05,1.4533028661389835e-05
5.76457787246909e-05,-3.094446947216056e-05,-0.00011664752673823386,-4.00483695557341e-05,4.006130257039331e-05,1.3294995369506069e-05
5.570077337324619e-05,-7.017234020167962e-05,-2.9045750125078484e-05,7.630844265804626e-06,3.248921348131262e-05,2.135138856829144e-05
5.3596104407915846e-05,-0.0001632010971661657,5.141714427736588e-05,1.3911067071603611e-05,3.071614628424868e-05,2.237897933810018e-05
5.221604078542441e-05,-0.00022447558876592666,9.073739784071222e-05,-1.4821288459643256e-05,3.574914808268659e-05,1.1910727153008338e-05
5.004858030588366e-05,-0.00020690981182269752,7.8588753240183e-05,-5.825719563290477e-05,3.816221214947291e-05,-9.537055802866234e-07
4.4338325096759945e-05,-0.0001344357879133895,-5.0843768804043066e-06,-0.00010345283226342872,3.0858216632623225e-05,-1.0470798770256806e-05
3.852159352391027e-05,-5.0330254453001544e-05,-0.0001205169246532023,-0.00010966285481117666,1.8967701180372387e-05,-1.333278305537533e-05
3.7494672142202035e-05,1.2639180567930453e-05,-0.00017479766393080354,-4.375329444883391e-05,1.4198705684975721e-05,2.5028448362718336e-06
4.0534421714255586e-05,5.900943506276235e-05,-0.00014840463700238615,5.511020572157577e-05,1.6296955436700955e-05,3.315857611596584e-05
3.908691360265948e-05,9.273907926399261e-05,-0.0001204313084599562,0.00012319003872107714,5.389378657127963e-06,6.319642125163227e-05
2.7195070288144052e-05,0.00011744192306650802,-0.00013477886386681348,0.00014873746840748936,-2.343405139981769e-05,8.419279765803367e-05
9.033791684487369e-06,0.0001474180753575638,-0.00012274672917556018,0.0001638356625335291,-5.245625652605668e-05,0.0001015567104332149
-8.147213520715013e-06,0.00017799735360313207,-2.596871490823105e-05,0.00017648139328230172,-6.812703213654459e-05,0.00011247427755733952
-1.8358436136622913e-05,0.00018631691636983305,0.00010355874837841839,0.00017754457076080143,-7.531845039920881e-05,0.00011057624942623079
-2.1217021640040912e-05,0.00016950329882092774,0.0001551643799757585,0.00016518706979695708,-7.854084833525121e-05,0.00010334882972529158
-2.2479855033452623e-05,0.00014291697880253196,0.00010330860095564276,0.00014240777818486094,-7.493343582609668e-05,9.955341374734417e-05
-2.461729309288785e-05,0.00011343076766934246,2.629189839353785e-05,0.00010002768249250948,-6.183898949529976e-05,9.939105075318366e-05
-2.441901233396493e-05,8.631456148577854e-05,8.59049214341212e-06,4.161027754889801e-05,-4.180111500318162e-05,0.00010065757669508457
-1.880572563095484e-05,6.020977525622584e-05,7.530312723247334e-05,2.066482693408034e-06,-2.2726297174813226e-05,0.00010115742043126374
-1.0413110430818051e-05,1.9660776160890236e-05,0.00018417095998302102,1.421606975782197e-05,-1.0728323104558513e-05,9.670387953519821e-05
-5.913563200010685e-06,-2.9979943064972758e-05,0.00024293478054460138,5.756265454692766e-05,-7.106445536919637e-06,8.19698761915788e-05
-5.666835477313725e-06,-6.560650945175439e-05,0.00021141085017006844,8.165433973772451e-05,-8.697422344994266e-06,6.132029375294223e-05
-3.848526830552146e-06,-8.446839638054371e-05,0.00015108485240489244,5.125819006934762e-05,-4.449836524145212e-06,4.2696705349953845e-05
4.751718734041788e-06,-8.975019591161981e-05,0.00012598292960319668,-4.179068127996288e-05,1.3521541404770687e-05,3.121052941423841e-05
2.0566370949381962e-05,-8.796484326012433e-05,0.00012830537161789834,-0.00016590781160630286,3.5795699659502134e-05,3.028905666724313e-05
3.5563356505008414e-05,-8.761493518250063e-05,9.89315813058056e-05,-0.0002406222774880007,4.856879240833223e-05,3.47921704815235e-05
4.044807064929046e-05,-9.016629337565973e-05,3.888225546688773e-05,-0.00021014054073020816,4.993846596335061e-05,3.895071495207958e-05
4.0066563087748364e-05,-0.0001121455425163731,3.6133642424829304e-06,-0.0001319990842603147,4.4396765588317066e-05,3.9942286093719304e-05
3.837200711132027e-05,-0.00015531988174188882,-2.5408669898752123e-05,-7.906524842837825e-05,3.518472294672392e-05,3.275307608419098e-05
3.655514228739776e-05,-0.0001972118188859895,-6.563337228726596e-05,-4.380529935588129e-05,2.3888575015007518e-05,1.5045628970256075e-05
3.4849239455070347e-05,-0.0002310844574822113,-9.578261233400553e-05,9.557909834256861e-06,1.0067191396956332e-05,-1.3386038517637644e-06
3.2527845178265125e-05,-0.0002324455272173509,-0.00011516539234435186,9.849481284618378e-05,-6.204080818861257e-06,-3.321501935715787e-06
2.9958851882838644e-05,-0.00019850401440635324,-0.00011011236347258091,0.00018596122390590608,-1.9433957277215086e-05,1.4798070878896397e-05
2.8518976250779815e-05,-0.00015006323519628495,-6.805396697018296e-05,0.00022137004998512566,-2.411012610537e-05,4.2634172132238746e-05
2.941255661426112e-05,-9.244900138583034e-05,-1.907911973830778e-05,0.00019642594270408154,-2.406859493930824e-05,5.9928213886450976e-05
2.6934405468637124e-05,-2.9975790312164463e-05,-1.20674906156637e-06,0.00015578627062495798,-2.5300236302427948e-05,6.39436548226513e-05
2.272045094287023e-05,2.4501647203578614e-05,-1.5928027323752758e-06,0.00013217126252129674,-2.9803944926243275e-05,6.768083403585479e-05
2.212781873822678e-05,6.2298342527356e-05,5.371764473238727e-06,0.00012135504221078008,-3.373811341589317e-05,7.752611418254673e-05
2.300511914654635e-05,8.137450640788302e-05,1.7912541807163507e-05,0.00010506915714358911,-3.306470171082765e-05,8.417134813498706e-05
2.131630026269704e-05,8.354616875294596e-05,1.748669455992058e-05,8.090996561804786e-05,-3.0011393391760066e-05,7.869364344514906e-05
1.6506086467416026e-05,7.472030847566202e-05,-1.881262846836762e-06,5.7813555031316355e-05,-2.6049945518025197e-05,6.371864583343267e-05
1.0467774700373411e-05,5.126450923853554e-05,-2.8145119358669035e-05,3.1395080441143364e-05,-1.9576444174163043e-05,5.193361721467227e-05
8.175016773748212e-06,1.2776748917531222e-05,-4.57180394732859e-05,1.8198113593825838e-06,-1.0673560609575361e-05,5.1037626690231264e-05
1.211355902341893e-05,-3.023660246981308e-05,-4.822212940780446e-05,-2.3249669538927265e-05,-2.120572389685549e-06,5.3229305194690824e-05
1.6499529010616243e-05,-6.372519419528544e-05,-4.269198689144105e-05,-3.801238926826045e-05,6.04862691488961e-07,4.962372258887626e-05
1.5943658581818454e-05,-8.545136370230466e-05,-4.852177880820818e-05,-4.2975931137334555e-05,-4.0028648982115556e-06,4.4673241063719615e-05
1.805061037885025e-05,-9.888132626656443e-05,-7.298722630366683e-05,-3.1552743166685104e-05,-7.277036274899729e-06,4.1621380660217255e-05
2.837119063769933e-05,-0.00011065581202274188,-9.29973684833385e-05,-8.71417341841152e-06,-3.1081874567462364e-06,4.074315438629128e-05
4.261854701326229e-05,-0.00011858094512717798,-9.078116272576153e-05,1.5727129721199162e-05,4.287521278456552e-06,4.8804016842041165e-05
5.412998507381417e-05,-0.00011783678928622976,-6.848364137113094e-05,3.817331889877096e-05,9.435724678041879e-06,6.136137380963191e-05
5.4407002608058974e-05,-0.00011779611668316647,-4.18744093622081e-05,6.30627473583445e-05,8.274298124888446e-06,6.780411786166951e-05
5.124570452608168e-05,-0.0001465598907088861,-6.456510163843632e-06,7.84324438427575e-05,-1.8007918924922706e-06,7.405404903693125e-05
5.605243859463371e-05,-0.00019102146325167269,6.601103814318776e-05,8.042860281420872e-05,-1.1809574061771855e-05,8.990463538793847e-05
6.0906568251084536e-05,-0.00020732531265821308,0.00015014676318969578,8.532068022759631e-05,-1.094436265702825e-05,0.0001124772970797494
5.2859311836073175e-05,-0.00021238911722321063,0.00021988684602547437,9.145022340817377e-05,-1.0804815246956423e-05,0.0001340994203928858
3.481280873529613e-05,-0.00020983049762435257,0.00026177361723966897,8.25245151645504e-05,-1.8748156435322016e-05,0.00014323648065328598
2.664413841557689e-05,-0.00019242191046942025,0.00023705548665020615,5.39974462299142e-05,-2.8773474696208723e-05,0.00013626836880575866
4.4547174184117466e-05,-0.00019527849508449435,0.00012839733972214162,1.6256331946351565e-05,-3.101485708612017e-05,0.00012309830344747752
8.377982157981023e-05,-0.00020827385014854372,-3.499401645967737e-05,-2.4057208065642044e-06,-2.659677375049796e-05,0.00010695309902075678
0.00011993510997854173,-0.00019292908837087452,-0.00015109441301319748,1.4836133232165594e-05,-2.8386013582348824e-05,9.175539889838547e-05
0.0001310752850258723,-0.00012943350884597749,-0.00015206886746454984,5.75257909076754e-05,-3.608917904784903e-05,8.62690358189866e-05
0.0001125680937548168,-2.8184138500364497e-05,-0.0001099940127460286,8.530982449883595e-05,-4.293073288863525e-05,9.086769568966702e-05
7.532211748184636e-05,7.832171831978485e-05,-0.00013194566417951137,7.033537258394063e-05,-4.25739235652145e-05,9.103159391088411e-05
3.587138053262606e-05,0.00016713219520170242,-0.00022118783090263605,2.73788482445525e-05,-3.412202204344794e-05,8.07379256002605e-05
4.3838390411110595e-06,0.0002205211203545332,-0.0002803512034006417,-2.3363298168987967e-05,-2.003923145821318e-05,7.433522114297375e-05
-1.9245744624640793e-05,0.00021628063404932618,-0.0002167246857425198,-7.579043449368328e-05,-5.732884801545879e-06,7.99140107119456e-05
-4.065187749802135e-05,0.0001637269015191123,-7.770708907628432e-05,-0.00011972126958426088,5.61150181965786e-06,8.926343434723094e-05
-6.304023554548621e-05,9.647165279602632e-05,2.683301136130467e-05,-0.00011451583850430325,7.536716566391988e-06,9.485985356150195e-05
-8.266336953965947e-05,4.044959496241063e-05,9.41887847147882e-05,-3.911890962626785e-05,-2.2926489151586793e-08,9.466132905799896e-05
-9.222607332048938e-05,1.1362031727912836e-05,0.00018870606436394155,4.810974496649578e-05,-8.355003046744969e-06,8.39597632875666e-05
-8.913569763535634e-05,-1.909506181618781e-06,0.0003172775905113667,6.52518356218934e-05,-1.5416397218359634e-05,6.027542258379981e-05
-7.586403808090836e-05,-2.6599496777635068e-05,0.00043882732279598713,-5.545719886868028e-06,-2.2144155082060024e-05,2.9755599825875834e-05
-5.188916111364961e-05,-5.7989767810795456e-05,0.000506536103785038,-0.00012604435323737562,-2.1818241293658502e-05,9.833906005951576e-06
-1.9019116734853014e-05,-7.192383782239631e-05,0.00048011611215770245,-0.00020183609740342945,-9.582956408848986e-06,5.14310568178189e-06
1.1282139894319698e-05,-7.329471554839984e-05,0.0003717333311215043,-0.0001398752210661769,4.074259322806029e-06,3.3528078802191885e-06
2.726867387536913e-05,-7.651630585314706e-05,0.00022124068345874548,1.8161161278840154e-05,8.921480002754834e-06,3.085455091422773e-06
3.030547122762073e-05,-8.755335147725418e-05,8.275647996924818e-05,0.00013089735875837505,1.2209045962663367e-05,3.1093427423911635e-06
2.8679460228886455e-05,-0.00011413060565246269,1.9898350728908554e-05,0.0001337122084805742,2.396121999481693e-05,-1.8887877786255558e-06
2.6543784770183265e-05,-0.00014874970656819642,3.8766513171140105e-05,7.925691897980869e-05,3.338517853990197e-05,-1.0235155059490353e-05
2.879175553971436e-05,-0.00016219077224377543,8.95535122253932e-05,4.6992361603770405e-05,2.5409352019778453e-05,-2.3563348804600537e-05
3.896260022884235e-05,-0.0001466094981878996,0.00011458612425485626,6.019702777848579e-05,1.0051539902633522e-05,-2.8973418011446483e-05
4.7716072003822774e-05,-0.0001146904905908741,9.960553143173456e-05,7.356394780799747e-05,2.3063885237206705e-06,-2.7232901629759e-05
5.1122875447617844e-05,-8.277595770778134e-05,6.583202048204839e-05,8.143617014866322e-05,1.8359125988354208e-06,-2.401343772362452e-05
5.3363088227342814e-05,-5.3651081543648615e-05,2.392477290413808e-05,0.00011449126759544015,1.9350261482031783e-06,-1.3453719475364778e-05
4.852741403738037e-05,-6.285234849201515e-05,-3.822326834779233e-05,0.0001381027395837009,-4.850416189583484e-06,-3.236282509533339e-06
3.647083940450102e-05,-0.00012342639092821628,-0.00012968230294063687,0.00011547724716365337,-1.6987542039714754e-05,7.280757017724682e-06
1.936986700457055e-05,-0.00016558609786443412,-0.00019870187679771334,6.666412809863687e-05,-3.039886178157758e-05,1.8790251488098875e-05
5.715649876947282e-06,-0.00014839474170003086,-0.00019694396178238094,2.4139953893609345e-05,-3.5981494875159115e-05,3.367543831700459e-05
-1.0564492640696699e-06,-0.00010140939411940053,-0.00010054988524643704,-1.6569194485782646e-05,-2.9994360374985263e-05,5.011432585888542e-05
-5.497794973052805e-06,-6.872013909742236e-05,6.506617501145229e-05,-6.149282853584737e-05,-1.5302073734346777e-05,6.524279160657898e-05
-7.539582838944625e-06,-6.171272980282083e-05,0.00020727317314594984,-9.762098488863558e-05,-2.4291957743116654e-06,7.321372686419636e-05
5.425027893579681e-07,-4.775161505676806e-05,0.0002567174378782511,-9.884054452413693e-05,3.8843436414026655e-06,6.1134371208027e-05
2.1452357032103464e-05,3.135454107905389e-06,0.0002253485581604764,-5.933966167503968e-05,8.045414688240271e-06,3.60027261194773e-05
4.1477840568404645e-05,7.749826181679964e-05,0.0001562691613798961,5.658116606355179e-06,1.0311380719940644e-05,2.4059512725216337e-05
4.848646858590655e-05,0.00013820649473927915,6.876200495753437e-05,6.709904118906707e-05,7.31015552446479e-06,3.198556441930123e-05
4.316855120123364e-05,0.00015535818238276988,-2.795471482386347e-05,8.429415902355686e-05,-4.33006391631352e-07,4.172842454863712e-05
3.876983464579098e-05,0.00012004829477518797,-0.00011964116856688634,4.284078750060871e-05,-5.313992005540058e-06,4.28354469477199e-05
3.9911825297167525e-05,5.5308726587099954e-05,-0.0001871864660643041,-1.1759459084714763e-05,-6.223130185389891e-06,4.161083052167669e-05
3.46957785950508e-05,7.318745701923035e-06,-0.00020864204270765185,-2.15555883187335e-05,-9.321191100752912e-06,4.4323001930024475e-05
1.5124051060411148e-05,-2.7596595373324817e-06,-0.00018446105241309851,9.77811487246072e-06,-1.780849379429128e-05,5.27820157003589e-05
-5.703267561329994e-06,5.369149221223779e-06,-0.00015561701729893684,5.0191491027362645e-05,-2.306638089066837e-05,7.06518258084543e-05
-9.99370422505308e-06,2.034732233369141e-06,-0.00012180016346974298,8.939997496781871e-05,-2.1587944502243772e-05,9.408509504282847e-05
1.329260271631938e-06,-3.0159451853251085e-05,-3.9943395677255467e-05,0.0001257598341908306,-1.968093783943914e-05,0.00011356326285749674
1.4353350707096979e-05,-0.00010237695096293464,8.120229904307052e-05,0.00013366925122682005,-2.5595682018320076e-05,0.00011856164201162755
2.4916707843658514e-05,-0.00020064582349732518,0.00019236233492847532,0.00011410457955207676,-3.7276662624208257e-05,0.00011058706149924546
3.0398772651096806e-05,-0.0002965881139971316,0.0002784373064059764,8.70194926392287e-05,-4.8795536713441834e-05,0.00010034099977929145
3.066883436986245e-05,-0.00035842848592437804,0.0003344331926200539,6.593648140551522e-05,-6.105841748649254e-05,9.025811596075073e-05
3.6537909181788564e-05,-0.0003295201458968222,0.0003036080743186176,5.9931480791419744e-05,-6.355008372338489e-05,9.09675654838793e-05
4.574752529151738e-05,-0.0002476999943610281,0.00017742993077263236,4.657589670387097e-05,-5.412178143160418e-05,0.00010583703988231719
4.681489372160286e-05,-0.0001698483101790771,6.401201062544715e-07,1.3779890650766902e-05,-4.355671990197152e-05,0.0001183098356705159
4.553748294711113e-05,-6.372484494931996e-05,-0.00017158461560029536,-1.0070101780002005e-05,-3.6231638659955934e-05,0.00012198425247333944
3.8328045775415376e-05,5.150975630385801e-05,-0.0002549129130784422,-2.7087060516350903e-05,-3.5289584047859535e-05,0.00012180595513200387
2.1298686988302507e-05,0.00013724154268857092,-0.0002334160526515916,-5.778291597380303e-05,-2.9866554541513324e-05,0.00011462455586297438
9.746447176439688e-06,0.00018321620882488787,-0.00013854439021088183,-8.345019887201488e-05,-1.818071905290708e-05,9.207710536429659e-05
6.632173153775511e-06,0.00020478575606830418,-7.4152162596874405e-06,-7.531950541306287e-05,-7.823162377462722e-06,7.088551501510665e-05
-1.1311705065963906e-06,0.00019327347399666905,9.739216329762712e-05,-4.271797661203891e-05,-3.416869276406942e-06,6.278108776314184e-05
-1.9024704670300707e-05,0.0001328001235378906,0.00011153556260978803,1.9620213720372703e-07,-8.561568392906338e-06,6.542201299453154e-05
-3.8117294025141746e-05,3.6337427445687354e-05,7.354804256465286e-05,4.924048334942199e-05,-2.1390511392382905e-05,6.75826013321057e-05
-4.446693492354825e-05,-5.846165367984213e-05,5.527959729079157e-05,9.846785542322323e-05,-3.1083352951100096e-05,6.714271876262501e-05
-3.255140836699866e-05,-0.00010624622518662363,6.213175947777927e-05,0.00012184677325421944,-2.580785076133907e-05,7.316438859561458e-05
-1.0305479918315541e-05,-9.460151341045275e-05,7.485448441002518e-05,7.761358574498445e-05,-4.443343641469255e-06,8.017969958018512e-05
