1.0377460057497956e-05,-5.101259739603847e-05,2.4955239496193826e-05,-4.613115743268281e-05,5.0901890062959865e-05,0.00012934264668729156
1.7759406546247192e-05,-4.965574771631509e-05,2.371522168687079e-05,-6.625161768170074e-05,7.455953164026141e-05,0.00016011213301680982
2.570221658970695e-05,-4.489491766435094e-05,2.1965441192151047e-05,-5.2951454563299194e-05,8.933998469728976e-05,0.00018919212743639946
3.80226229026448e-05,-4.027238173875958e-05,2.8264435968594626e-05,-2.2234873540583067e-05,0.00010269642370985821,0.0001806300861062482
4.96611392009072e-05,-3.9044211007421836e-05,3.8707807107130066e-05,1.4521010598400608e-05,0.00010904279770329595,0.00010640767868608236
5.190078081795946e-05,-3.707935320562683e-05,4.508410347625613e-05,4.4297819840721786e-05,0.00010197769734077156,-6.235275941435248e-05
4.254546729498543e-05,-2.957611286547035e-05,3.986635056207888e-05,5.899028474232182e-05,7.785410707583651e-05,-0.0002858158841263503
2.7438245524535887e-05,-1.7352243958157487e-05,2.4736542400205508e-05,3.7580019125016406e-05,4.081638326169923e-05,-0.0004379083984531462
1.5919998986646533e-05,-7.349246970989043e-06,1.0615938663249835e-05,-1.7714335172058782e-06,7.338047453231411e-06,-0.00040411815280094743
1.0051655408460647e-05,-6.400493930414086e-06,5.569087988988031e-06,-1.5375522707472555e-05,-1.2882243026979268e-05,-0.0002482854179106653
7.744993126834743e-06,-2.1981712052365765e-05,5.0270009523956105e-06,1.0788246981974225e-05,-2.5472380002611317e-05,-0.00010631190525600687
7.644973265996668e-06,-5.596370101557113e-05,7.424500836350489e-06,4.79939226352144e-05,-3.389810080989264e-05,-6.988287623244105e-06
7.949148312036414e-06,-8.476456423522905e-05,1.6174704796867445e-05,6.022919114911929e-05,-3.691328674904071e-05,8.972721116151661e-05
1.0422812010801863e-05,-7.320914301089942e-05,3.0610950489062816e-05,3.914800254278816e-05,-3.4412514651194215e-05,0.00016950280405580997
1.263891226699343e-05,-3.0254004741436802e-05,4.427175736054778e-05,-3.6309331790107535e-06,-2.9853703381377272e-05,0.00018414649821352214
1.3248160939838272e-05,-8.509648068866227e-06,5.188427530811168e-05,-4.737148265121505e-05,-2.7903599402634427e-05,0.00014273500710260123
1.4810191714786924e-05,-3.261726305936463e-05,5.555331154027954e-05,-6.814905646024272e-05,-2.7241239877184853e-05,9.532995318295434e-05
1.6787435015430674e-05,-7.320962322410196e-05,5.8374207583256066e-05,-5.731785495299846e-05,-2.6277602955815382e-05,6.054580444470048e-05
1.3686526472156402e-05,-9.481020970270038e-05,5.5027248890837654e-05,-3.153748912154697e-05,-2.7539323127712123e-05,1.799930578272324e-05
8.663642802275717e-06,-9.111384133575484e-05,4.359149534138851e-05,-1.0416745226393687e-06,-3.117930100415833e-05,-2.7862020942848176e-05
1.1727520359272603e-05,-7.233927317429334e-05,3.686922718770802e-05,3.037145870621316e-05,-3.106025542365387e-05,-2.903112726926338e-05
1.786928260116838e-05,-5.1584156608441845e-05,4.010350312455557e-05,5.1545790483942255e-05,-2.75490583589999e-05,2.231293183285743e-05
1.6711052012396976e-05,-4.0535775042371824e-05,4.249696939950809e-05,4.965626067132689e-05,-2.65829439740628e-05,6.456067058024928e-05
7.824887688911986e-06,-3.828552144113928e-05,4.16517214034684e-05,2.853057230822742e-05,-2.678989403648302e-05,5.7997913245344535e-05
2.638444129843265e-06,-3.811683927779086e-05,4.356336285127327e-05,1.2970958778169006e-06,-2.1667961846105754e-05,2.240908725070767e-05
6.577654858119786e-06,-3.3644435461610556e-05,4.5932796638226137e-05,-1.2603691175172571e-05,-1.378560409648344e-05,1.0241205927741248e-05
1.4952984201954678e-05,-2.6025565603049472e-05,4.541890666587278e-05,-9.771441909833811e-06,-8.128994522849098e-06,5.1732662541326135e-05
2.1061468942207284e-05,-1.7606387700652704e-05,4.638088648789562e-05,-4.211671864595701e-07,-5.0784015002136584e-06,0.0001288289058720693
1.8750017261481844e-05,-3.0965918540459825e-06,4.441317287273705e-05,7.062843451421941e-06,-5.548923581955023e-06,0.00018945886404253542
1.7432201275369152e-05,2.0929544916725717e-05,3.804756488534622e-05,2.5024995920830406e-05,-1.4858213035040535e-05,0.00022614948102273047
1.9150586012983695e-05,5.493014759849757e-05,3.501748142298311e-05,5.669216989190318e-05,-3.274422851973213e-05,0.00023056739883031696
1.676793363003526e-05,6.241347728064284e-05,3.107953671133146e-05,7.867946987971663e-05,-4.838581298827194e-05,0.00017242251487914473
1.2027994671370834e-05,1.1068330422858708e-05,2.3461176169803366e-05,7.829921378288418e-05,-5.948468970018439e-05,0.00010395325080025941
6.058528470020974e-06,-5.314723603078164e-05,1.6328067431459203e-05,7.080534123815596e-05,-6.0188540373928845e-05,0.00011228668881813064
4.258374701748835e-06,-0.00010791504610097036,8.774412890488748e-06,5.9342179156374186e-05,-4.975505362381227e-05,0.0002029057068284601
7.686205208301544e-06,-0.00012655847240239382,9.112250722864701e-07,2.2448932213592343e-05,-3.8748723454773426e-05,0.0002697045565582812
7.595820989081403e-06,-8.88932408997789e-05,4.222079496685183e-06,-1.0794955414894503e-05,-3.1078812753548846e-05,0.00023779438924975693
1.465598757022235e-06,-5.9739693824667484e-05,2.303155997651629e-05,-4.013965735794045e-06,-2.487088022462558e-05,0.0001430865959264338
-1.297836092817306e-06,-7.215645746327937e-05,4.8476103984285146e-05,2.688503263925668e-05,-1.5064445506141055e-05,5.530190173885785e-05
5.691376259164826e-07,-9.986100485548377e-05,6.651553849224001e-05,4.691394497058354e-05,-3.3844296467577806e-06,-1.5100607015483547e-05
5.647772468364565e-06,-0.00010914616723312065,7.012784044491127e-05,4.4227908801985905e-05,5.6053891057672445e-06,-8.149121276801452e-05
1.4380281754711177e-05,-0.00010114905308000743,6.463992758654058e-05,2.4651810235809535e-05,1.1643515790638048e-05,-0.00013491751451510936
2.4709142962819897e-05,-8.991367212729529e-05,5.4758842452429235e-05,-9.317416697740555e-06,1.4641475900134537e-05,-0.0001576584327267483
3.111379555775784e-05,-8.256654109572992e-05,4.36387381341774e-05,-4.8602832976030186e-05,1.5597976016579196e-05,-0.00012524222256615758
3.195276076439768e-05,-7.264736632350832e-05,3.6094737879466265e-05,-6.439233402488753e-05,1.702013105386868e-05,-4.19978350691963e-05
3.2229156204266474e-05,-5.8652345614973456e-05,3.512033435981721e-05,-3.706574716488831e-05,1.7662110622040927e-05,4.82869400002528e-05
3.3275209716521204e-05,-4.685700696427375e-05,3.718681546160951e-05,1.21948532978422e-05,1.4853128959657624e-05,0.00011019685189239681
3.292345718364231e-05,-4.122632890357636e-05,3.932155232178047e-05,5.1141123549314216e-05,1.0427133929624688e-05,0.00011603548773564398
2.953640250780154e-05,-4.213786814943887e-05,3.896650378010236e-05,6.70380613883026e-05,5.8812715906242374e-06,4.207881283946335e-05
2.3966338630998507e-05,-4.557384454528801e-05,3.4150238207075745e-05,7.455374725395814e-05,1.985825292649679e-06,-5.105729724164121e-05
2.0582125216606073e-05,-5.0553790060803294e-05,2.910205876105465e-05,9.608739492250606e-05,-7.378913551292499e-07,-8.651141251903027e-05
2.1322310203686357e-05,-5.7335386372869834e-05,2.7334486730978824e-05,0.00013255818339530379,-2.9842763069609646e-06,-7.460755296051502e-05
2.4036939066718332e-05,-7.063845987431705e-05,2.7678943297360092e-05,0.0001709333446342498,-6.276933618210023e-06,-3.2307812944054604e-05
3.021642260137014e-05,-8.252662519225851e-05,2.739181036304217e-05,0.00019950988644268364,-1.0515550457057543e-05,1.3972123269923031e-05
3.2882511732168496e-05,-8.905078720999882e-05,2.5016770450747572e-05,0.0001978299842448905,-1.5246876500896178e-05,-5.624294772132998e-06
2.953553484985605e-05,-8.700854232301936e-05,2.026302354352083e-05,0.0001574263587826863,-2.120071258104872e-05,-2.3459026124328375e-05
3.116593143204227e-05,-7.832674600649625e-05,1.8204262232757173e-05,0.00011812595039373264,-2.5055893274839036e-05,4.6970544644864276e-05
4.048425398650579e-05,-6.713679613312706e-05,2.180918090743944e-05,0.00010599377128528431,-2.4348119040951133e-05,0.0001306725898757577
5.476263686432503e-05,-6.218039925443009e-05,2.23944825847866e-05,0.0001005182130029425,-2.0411303921719082e-05,0.00017377716721966863
6.504398334072903e-05,-6.850626232335344e-05,2.2226848159334622e-05,7.497393380617723e-05,-1.5328487279475667e-05,0.00017936615040525794
6.385082815540954e-05,-7.389158417936414e-05,2.5343168090330437e-05,3.5767352528637275e-05,-9.472987585468218e-06,0.00016685941955074668
5.242367114988156e-05,-6.245276017580181e-05,3.215256583644077e-05,1.2919505934405606e-05,-4.155212081968784e-06,0.00014498474774882197
3.889277286361903e-05,-2.976863288495224e-05,3.846357503789477e-05,1.0386937901785132e-05,-4.2294582272006664e-06,0.00011361148062860593
3.1499555916525424e-05,6.0633287830569316e-06,3.580361953936517e-05,1.4466095308307558e-05,-1.0172475413128268e-05,8.071050251601264e-05
2.434179805277381e-05,2.3750651962473057e-05,2.9335042199818417e-05,1.5837105820537545e-05,-1.566923674545251e-05,4.193829954601824e-05
1.8700833606999367e-05,1.5351239198935218e-05,2.7493564630276524e-05,2.048670830845367e-05,-1.5811729099368677e-05,1.0669044968381058e-05
2.017238330154214e-05,-1.656983295106329e-05,3.0199080356396735e-05,2.4834764190018177e-05,-1.095796687877737e-05,9.057212082552724e-06
2.6626516046235338e-05,-4.9878926802193746e-05,2.9165470550651662e-05,2.16039643419208e-05,-8.247481673606671e-06,4.018545587314293e-05
2.96842772513628e-05,-6.0170514188939705e-05,2.1778558220830746e-05,1.6477182725793682e-05,-8.920510481402744e-06,7.633373752469197e-05
2.6804651497513987e-05,-5.2330517064547166e-05,1.6380163287976757e-05,1.6188143490580842e-05,-9.084565135708544e-06,0.00010736122203525156
2.3795439119567163e-05,-5.1585033361334354e-05,1.7473068510298617e-05,7.60116972742253e-06,-8.240661372838076e-06,0.00014146322791930288
2.5033006750163622e-05,-7.264142914209515e-05,1.6601774404989555e-05,-2.183854849135969e-05,-8.842606803227682e-06,0.00017646266496740282
3.10420582536608e-05,-8.374838944291696e-05,1.3129857507010456e-05,-5.005026105209254e-05,-9.022223821375519e-06,0.00019285005691926926
3.81490244762972e-05,-4.957766577717848e-05,1.6191363101825118e-05,-4.88014702568762e-05,-4.6988811845949385e-06,0.00016235842485912144
3.830180867225863e-05,-1.004632667900296e-05,2.51386718446156e-05,-2.3487675207434222e-05,8.303427989631018e-08,8.656935096951202e-05
2.927831701526884e-05,-2.2124020688352175e-05,3.462350650806911e-05,-4.872862064075889e-06,-2.0799927824555198e-06,1.679141314525623e-05
1.998228435695637e-05,-5.74975747440476e-05,4.5655760914087296e-05,-5.3076137191965245e-06,-6.401989594451152e-06,-5.270865131024038e-06
1.2730964954243973e-05,-5.323231380316429e-05,5.142926602275111e-05,-1.544575388834346e-05,-6.271228812693153e-06,2.6637169412424555e-06
4.9859986575029325e-06,-1.6260901247733273e-05,4.448849358595908e-05,-2.181799936806783e-05,-6.11610948908492e-06,2.4052576918620616e-05
1.7884600538309314e-06,-1.7787913009215117e-07,3.203155574738048e-05,-1.4920149624231271e-05,-8.941507076087873e-06,4.216275556245819e-05
5.328330644260859e-06,-9.514653356745839e-06,2.5223011107300408e-05,4.075066954101203e-06,-1.4155272765492555e-05,3.995125007349998e-05
8.898925443645567e-06,-6.572888196387794e-06,2.5136283511528745e-05,2.3171904103946872e-05,-1.8697555788094178e-05,2.4889894120860845e-05
1.2524418707471341e-05,1.4789017768634949e-05,2.9638278647325933e-05,2.8409413062036037e-05,-2.0607069018296897e-05,3.4786044125212356e-06
1.634820000617765e-05,9.332308763987385e-06,3.2981122785713524e-05,2.462241900502704e-05,-1.820000215957407e-05,-2.769587081274949e-05
1.6888325262698345e-05,-3.844001184916124e-05,2.832518111972604e-05,2.923742613347713e-05,-1.7633792595006526e-05,-4.644348518922925e-05
1.3025262887822464e-05,-8.599985449109226e-05,2.391507769061718e-05,3.68756809621118e-05,-2.0135723389103077e-05,-8.710559995961376e-06
1.0475221642991528e-05,-0.00012299232184886932,2.3357884856523015e-05,3.27958696288988e-05,-1.9766164768952876e-05,6.41490551060997e-05
1.594827335793525e-05,-0.0001544043334433809,2.511303682695143e-05,9.591906746209133e-06,-1.8024680684902705e-05,0.00011247218208154663
2.478121496096719e-05,-0.00014996503887232393,3.149148324155249e-05,-2.2591590095544234e-05,-1.553869151393883e-05,0.0001208258472615853
3.0479701308649965e-05,-9.784608118934557e-05,4.059806087752804e-05,-4.664495645556599e-05,-9.801812666410115e-06,0.00012135801080148667
2.9995735530974343e-05,-4.374900890979916e-05,4.427978637977503e-05,-5.2906882046954706e-05,-6.145803126855753e-06,0.00012715053162537515
2.496701927157119e-05,-2.3588761905557476e-05,4.3137133616255596e-05,-4.734782123705372e-05,-5.574958777287975e-06,0.00012574641732499003
2.0587893232004717e-05,-2.5203300538123585e-05,4.0801565774017945e-05,-3.965246651205234e-05,-4.149973392486572e-06,0.00011851846647914499
1.6727102774893865e-05,-3.406621908652596e-05,3.69663248420693e-05,-2.6952982807415538e-05,-4.115456249564886e-06,0.00011502228153403848
1.0075907084683422e-05,-4.809353413293138e-05,3.135262886644341e-05,-2.329458538952167e-06,-1.0769736036309041e-05,0.00012580901966430247
2.600024799903622e-06,-6.23450760031119e-05,2.4837780074449256e-05,2.7208163373870775e-05,-1.9278726540505886e-05,0.00014601160364691168
-1.210733671541675e-06,-6.742775440216064e-05,2.3238413632498123e-05,5.0307124183746055e-05,-2.2569876819034107e-05,0.00016715929086785764
3.9748564972796885e-07,-6.388539623003453e-05,2.8459624445531517e-05,6.875117105664685e-05,-2.310691161255818e-05,0.0001799477613531053
9.705020602268633e-06,-5.6384651543339714e-05,3.527673470671289e-05,9.440112626180053e-05,-2.2574566173716448e-05,0.00017101544653996825
2.5394716431037523e-05,-4.878364416072145e-05,3.9448805182473734e-05,0.00012651138240471482,-1.9668741515488364e-05,0.00012522813631221652
3.580655175028369e-05,-4.261513822712004e-05,4.2383555410197005e-05,0.00014076958177611232,-1.594408240634948e-05,5.544132727663964e-05
3.360492701176554e-05,-4.0754755900707096e-05,4.2655876313801855e-05,0.0001242732396349311,-1.5924515537335537e-05,-7.920774805825204e-06
2.829338700394146e-05,-4.578215884976089e-05,3.7406622141133994e-05,8.406597044086084e-05,-1.832351517805364e-05,-3.980032488470897e-05
2.5718381948536262e-05,-5.2776103984797373e-05,3.0778472137171775e-05,3.542377089615911e-05,-1.6476948076160625e-05,-1.8461454601492733e-05
1.9662757040350698e-05,-5.565531682805158e-05,2.6807683752849698e-05,-7.512103820772609e-06,-7.366868885583244e-06,5.283602877170779e-05
5.397817858465714e-06,-5.6843644415494055e-05,2.2745627575204708e-05,-3.2655647373758256e-05,-1.8073718592859223e-06,0.00011280454054940492
-9.444547686143778e-06,-5.664639320457354e-05,2.247381053166464e-05,-3.502855179249309e-05,-2.7333692287356826e-06,0.00011211211676709354
-9.046510967891663e-06,-4.838283348362893e-05,3.374150037416257e-05,-9.218705599778332e-06,-1.3986714293423574e-06,9.750221943249926e-05
9.148430763161741e-06,-3.8978803786449134e-05,4.2840485548367724e-05,3.171774005750194e-05,3.346765197420609e-06,0.00010590296005830169
2.3779335606377572e-05,-3.9940059650689363e-05,3.666599513962865e-05,4.5879245590185747e-05,5.092927040095674e-06,0.00010114381439052522
2.2510424969368614e-05,-4.272029400453903e-05,2.9328326490940526e-05,2.716230483201798e-05,2.8118106456531677e-06,7.09148880559951e-05
1.4535286027239636e-05,-4.215864828438498e-05,2.9408889531623572e-05,1.3575609955296386e-05,2.1544587980315555e-06,2.094906994898338e-05
1.0539465620240662e-05,-4.587366129271686e-05,3.1338200642494485e-05,2.389921064605005e-05,3.492461928544799e-06,-4.5997556298971176e-05
1.2501596756919753e-05,-4.9136204324895516e-05,3.4781918657245114e-05,4.3939398892689496e-05,3.2004447803046787e-06,-0.00013796324492432177
1.4673672922072e-05,-4.8758720367914066e-05,4.087003617314622e-05,5.980933929095045e-05,-1.0307945785825723e-06,-0.00020057254005223513
1.407608033332508e-05,-4.9348058382747695e-05,4.210195766063407e-05,6.83521429891698e-05,-1.060323393176077e-05,-0.00014615547843277454
8.834178515826352e-06,-5.4193573305383325e-05,3.964979623560794e-05,6.973426934564486e-05,-1.9200444512534887e-05,-3.202210791641846e-05
3.5761574963544263e-06,-5.576775220106356e-05,3.8237980334088206e-05,5.8570662076817825e-05,-2.0335879526101053e-05,4.602551780408248e-05
3.985715920862276e-06,-4.690281639341265e-05,3.607726830523461e-05,2.965270323329605e-05,-1.6118830899358727e-05,6.384033622452989e-05
1.4506113075185567e-05,-3.264671977376565e-05,3.114813080173917e-05,6.568996582245745e-07,-1.2031354344799183e-05,4.094478572369553e-05
3.060173548874445e-05,-2.5083763830480166e-05,2.4589257009210996e-05,-8.383082786167506e-06,-9.435430911253206e-06,5.2328541642054915e-06
4.175241701886989e-05,-2.9719183658016846e-05,2.105374187522102e-05,-9.024371934174269e-07,-8.091212293948047e-06,-3.833415121334838e-06
4.501024159253575e-05,-3.761583866435103e-05,1.9928847905248404e-05,1.2135835277149454e-05,-7.734672180959024e-06,2.1320382074918598e-05
4.584432463161647e-05,-3.951099279220216e-05,1.7229218428838067e-05,3.1980376661522314e-05,-7.575077233923366e-06,5.178100036573596e-05
4.6841367293382064e-05,-3.121280678897165e-05,1.5983343473635614e-05,5.923593926127069e-05,-7.299243861780269e-06,7.65528020565398e-05
4.5520577259594575e-05,-1.6485628293594345e-05,2.1071635273983702e-05,9.246431000065058e-05,-6.710084562655538e-06,0.00010007374658016488
4.4055632315576077e-05,-6.0070342442486435e-06,2.7841648261528462e-05,0.00011847673886222765,-4.8675451580493245e-06,0.00011680323223117739
4.264786184648983e-05,-1.6079507986432873e-05,3.211876901332289e-05,0.0001141674947575666,-2.2822237042419147e-06,0.00011367522529326379
3.944120544474572e-05,-5.876992145203985e-05,3.279170414316468e-05,8.283464558189735e-05,-4.736933078675065e-06,8.134893141686916e-05
3.5400127671891823e-05,-0.00010929676500381902,3.1883053452474996e-05,5.305231752572581e-05,-1.0208254934696015e-05,1.3583790860138834e-05
3.7302685086615384e-05,-0.00011785757669713348,3.5457178455544636e-05,4.0604074456496164e-05,-9.162440619547851e-06,-6.532287807203829e-05
4.0371844079345465e-05,-8.129414345603436e-05,4.651149356504902e-05,3.0864110158290714e-05,-3.427000365263666e-06,-0.00010458222823217511
3.808254768955521e-05,-4.2906944145215675e-05,5.62551140319556e-05,1.5699639334343374e-05,6.300194286268379e-07,-6.326840230030939e-05
3.732071490958333e-05,-3.2876057957764715e-05,5.547399268834852e-05,6.080529601604212e-06,5.657750989485066e-06,3.489831215119921e-05
3.971434853156097e-05,-4.414713112055324e-05,4.159210220677778e-05,1.036686398947495e-06,1.13607820821926e-05,0.00011414771142881364
4.014088699477725e-05,-5.2057861466892064e-05,2.4769895389908925e-05,1.0681256753741764e-05,1.6102199879242107e-05,0.0001353222905891016
3.702664253069088e-05,-3.515226489980705e-05,2.13739913306199e-05,4.881324275629595e-05,1.674275699770078e-05,0.00012407658505253494
3.314745117677376e-05,-6.6584270825842395e-06,2.7856392989633605e-05,8.176807750714943e-05,1.1418230315030087e-05,0.00012111333489883691
2.8284453946980648e-05,4.617915237759007e-06,2.9469696528394707e-05,7.416730659315363e-05,2.0764482542290352e-06,0.00012867269106209278
2.1470266801770777e-05,-2.4179742467822507e-05,2.8945651138201356e-05,4.831800833926536e-05,-8.927728231356014e-06,0.00013521581422537565
1.7612162992008962e-05,-9.100344323087484e-05,2.82533928839257e-05,2.595425939944107e-05,-1.5125603567867074e-05,0.000129692314658314
1.5181029084487818e-05,-0.0001301238953601569,2.1418978576548398e-05,-1.338063975708792e-05,-1.720324689813424e-05,0.00010036084859166294
1.0239507901133038e-05,-0.00010251985804643482,1.5305431588785723e-05,-7.58095266064629e-05,-1.7496584405307658e-05,5.308657273417339e-05
7.073825145198498e-06,-4.814691055798903e-05,1.5572715710732155e-05,-0.00011056355288019404,-1.3944963029643986e-05,3.13313080368971e-06
8.109364898700733e-06,-1.7828837371780537e-05,2.2280104531091638e-05,-8.781015640124679e-05,-9.115347893384751e-06,-3.361580820637755e-05
1.418807096342789e-05,-1.7579384802957065e-05,2.874017991416622e-05,-4.0981296479003504e-05,-6.241503342607757e-06,-4.448461186257191e-05
2.149935062334407e-05,-2.8332309739198536e-05,2.9627783078467473e-05,7.1997978920990136e-06,-6.764621957700001e-06,-1.7743499483913183e-05
2.3198133931146003e-05,-3.544542414601892e-05,3.034240216948092e-05,5.187194619793445e-05,-8.677817277202848e-06,3.147700408590026e-05
1.901281575555913e-05,-3.9285834645852447e-05,3.544417631928809e-05,8.36380640976131e-05,-9.145235708274413e-06,7.489022391382605e-05
1.366061405860819e-05,-4.040039857500233e-05,4.019444531877525e-05,8.481215627398342e-05,-1.1165016076120082e-05,8.966453606262803e-05
9.859340025286656e-06,-3.9994360122364014e-05,3.821315476670861e-05,6.490923988167197e-05,-1.8815757357515395e-05,9.487853094469756e-05
6.8205263232812285e-06,-4.248803452355787e-05,3.181461579515599e-05,5.411992242443375e-05,-2.6429725039633922e-05,0.00012061620509484783
5.102211162011372e-06,-4.9183465307578444e-05,2.3911477910587564e-05,6.468452920671552e-05,-2.897468766605016e-05,0.00013560609659180045
5.647238140227273e-06,-5.931332998443395e-05,1.3997341739013791e-05,7.846362859709188e-05,-2.8203447072883137e-05,8.59290303196758e-05
8.410744158027228e-06,-6.707162538077682e-05,4.583040663419524e-06,7.784993795212358e-05,-2.5174702386721037e-05,1.0570722224656492e-05
1.2872757906734478e-05,-6.773396307835355e-05,9.586966598362778e-07,7.066627586027607e-05,-1.778508158167824e-05,3.827885393548058e-06
1.790362694009673e-05,-5.471510303323157e-05,-2.4839152956701582e-06,6.132385897217318e-05,-9.786201189854182e-06,7.619328243890777e-05
2.0026600395794958e-05,-1.655446794757154e-05,-9.975241482607089e-06,4.103632454643957e-05,-4.627142971003195e-06,0.0001671314239501953
2.087834400299471e-05,2.164866600651294e-05,-9.515992132946849e-06,1.2667879673244897e-05,-1.62757146426884e-06,0.00022802846797276288
2.2536212782142684e-05,-6.308821866696235e-06,4.541407633951167e-06,-1.5168760910455603e-05,6.696313334941806e-07,0.00024373117776121944
2.359802783757914e-05,-6.42328304820694e-05,2.0470530216698535e-05,-4.028414696222171e-05,4.147164418100147e-06,0.00022261760022956878
2.5908650059136562e-05,-6.965162901906297e-05,3.889220897690393e-05,-6.210265564732254e-05,7.361658845184138e-06,0.00019946307293139398
2.7280619178782217e-05,-4.2065537854796275e-05,7.026832463452592e-05,-6.809611659264192e-05,1.261648958461592e-05,0.00020407864940352738
2.3246506316354498e-05,-4.5347627747105435e-05,9.557295561535284e-05,-4.835346408071928e-05,1.2395033081702422e-05,0.0002280407352373004
2.3086948203854263e-05,-7.534606993431225e-05,9.665214747656137e-05,-1.9884930225089192e-05,8.326012903125957e-06,0.0002138420968549326
2.8194082915433683e-05,-8.362982771359384e-05,7.863270730013028e-05,6.557580036314903e-06,2.2259553134063026e-06,0.00013136588677298278
2.718444557103794e-05,-7.374837878160179e-05,5.371015504351817e-05,2.6270672606187873e-05,-1.1906369763892144e-05,4.5086639147484675e-05
2.138204945367761e-05,-7.026202365523204e-05,3.8351212424458936e-05,3.664796895463951e-05,-2.7127276553073898e-05,2.249813223897945e-05
1.535460069135297e-05,-7.574899063911289e-05,3.3730997529346496e-05,4.5869903260609135e-05,-3.5582845157478005e-05,4.994976188754663e-05
1.3238523933978286e-05,-7.847602682886645e-05,3.2572301279287785e-05,6.821846909588203e-05,-3.4054904972435907e-05,6.6652093664743e-05
1.4764294064661954e-05,-7.643709250260144e-05,3.3043113944586366e-05,9.6244846645277e-05,-2.917671372415498e-05,2.8570275389938615e-05
1.6606314602540806e-05,-7.263480074470863e-05,3.205278335371986e-05,0.00010752393427537754,-3.39880061801523e-05,-4.903900116914883e-05
1.7120501070166938e-05,-7.057144830469042e-05,2.8104293960495852e-05,0.0001004677833407186,-5.3127656428841874e-05,-0.00012520865129772574
1.4561063835571986e-05,-6.817018584115431e-05,2.3544302166556008e-05,8.689967944519594e-05,-7.470435957657173e-05,-0.00016651698388159275
1.1072695997427218e-05,-6.584767834283412e-05,2.120856152032502e-05,7.03535697539337e-05,-9.043694444699213e-05,-0.00015995398280210793
1.4268493941926863e-05,-6.607260729651898e-05,1.9560700820875354e-05,4.927565896650776e-05,-9.755576320458204e-05,-0.0001247613545274362
2.5480529075139202e-05,-6.738646334270015e-05,1.7385018509230576e-05,1.9625747881946154e-05,-9.523145854473114e-05,-0.00010813239350682124
3.725333954207599e-05,-6.675347685813904e-05,1.5801180779817514e-05,-1.5171453924267553e-05,-8.279916073661298e-05,-0.00012110375246265903
4.0239585359813645e-05,-5.15784922754392e-05,1.703943962638732e-05,-3.803599247476086e-05,-6.0359961935319006e-05,-0.00012352636258583516
3.1521707569481805e-05,-2.202616451540962e-05,1.9683582650031894e-05,-3.641130024334416e-05,-2.924393083958421e-05,-8.857893408276141e-05
1.6803060134407133e-05,6.958647645660676e-06,1.9369888832443394e-05,-2.289064104843419e-05,7.8850689533283e-06,-3.910810482921079e-05
3.042635398742277e-06,1.602292832103558e-05,1.5451798390131444e-05,-2.9319804525584914e-05,4.1787952795857564e-05,2.5150325200229418e-06
-7.700169817326241e-07,-1.404933300364064e-05,1.1291878763586283e-05,-5.961668284726329e-05,6.736687646480277e-05,5.067113306722604e-05
8.564820745959878e-06,-6.626653339480981e-05,8.896712643036153e-06,-7.872578862588853e-05,8.574901585234329e-05,0.0001162250991910696
1.8562914192443714e-05,-6.32412702543661e-05,9.458329259359743e-06,-6.640299397986382e-05,9.267355198971927e-05,0.00017983355792239308
1.7203916286234744e-05,-1.9032120690098964e-05,1.9965875253546983e-05,-3.5486125852912664e-05,8.452146721538156e-05,0.0002121304569300264
1.0281063623551745e-05,-1.7371012290823273e-05,3.935457789339125e-05,3.0703753850502835e-07,7.056748290779069e-05,0.00020922838302794844
1.0446621672599576e-05,-5.451683318824507e-05,5.861094541614875e-05,3.595374437281862e-05,5.844367478857748e-05,0.00020144482550676912
1.8169257600675337e-05,-7.919513154774904e-05,6.789713370380923e-05,6.302548717940226e-05,4.528489807853475e-05,0.0002120025601470843
2.5939960323739797e-05,-7.209768227767199e-05,6.229491555131972e-05,7.170028402470052e-05,2.6783880457514897e-05,0.00022219994571059942
3.2543019187869504e-05,-6.0335769376251847e-05,5.3501524234889075e-05,7.023713260423392e-05,1.0262533578497823e-05,0.000205187956453301
3.836206087726168e-05,-6.385929737007245e-05,5.0759950681822374e-05,8.024164708331227e-05,-4.735815764433937e-06,0.00015373239875771105
4.113855538889766e-05,-7.350392115768045e-05,4.949479261995293e-05,9.344062709715217e-05,-1.7379268683725968e-05,7.733074016869068e-05
3.997965905000456e-05,-7.304269092855975e-05,5.00201822433155e-05,0.00010185225983150303,-2.251816840725951e-05,-1.4232560715754516e-05
4.164836718700826e-05,-6.549678073497489e-05,5.591322042164393e-05,0.00012155014701420441,-1.9937693650717847e-05,-9.78202951955609e-05
5.0734106480376795e-05,-6.210205174284056e-05,6.22505322098732e-05,0.0001535480550955981,-1.2454778698156588e-05,-0.0001665798044996336
6.105133070377633e-05,-6.656012556049973e-05,6.385966116795316e-05,0.00016985766706056893,-8.0173176684184e-06,-0.00020379775378387421
6.099016172811389e-05,-6.862260488560423e-05,5.762576256529428e-05,0.00014117959653958678,-7.5830953392141964e-06,-0.00017045617278199643
4.4638214603764936e-05,-6.447898340411484e-05,4.6298675442812964e-05,8.509549661539495e-05,-1.0100229701492935e-05,-6.789007602492347e-05
2.0305466023273766e-05,-5.812603558297269e-05,3.335229121148586e-05,4.4360127503750846e-05,-9.590121408109553e-06,5.5965636420296505e-05
5.4933038882154506e-06,-5.72533936065156e-05,2.2419846573029645e-05,3.7194819014985114e-05,-7.667399586352985e-06,0.00016957978368736804
1.03774827948655e-05,-6.511562241939828e-05,1.6085850802483037e-05,3.093665873166174e-05,-7.402048140647821e-06,0.0002616273413877934
2.3168571715359576e-05,-7.103662210283801e-05,1.5199431800283492e-05,1.42688722917228e-05,-8.276955668407027e-06,0.00030592214898206294
2.482950185367372e-05,-6.890961230965331e-05,1.9086057363892905e-05,1.4967509741836693e-05,-1.1176303814863786e-05,0.00027959098224528134
1.7496864529675804e-05,-5.429182419902645e-05,2.3248612706083804e-05,3.55356460204348e-05,-1.3846683941665106e-05,0.00019018541206605732
1.1997154615528416e-05,-2.957489778054878e-05,2.8175698389532045e-05,4.51498017355334e-05,-1.2487851563491859e-05,7.170569006120786e-05
9.153531209449284e-06,-8.690712093084585e-06,3.254483817727305e-05,2.2562842787010595e-05,-1.0504071724426467e-05,-2.812518687278498e-05
5.307474111759802e-06,-9.713318831927609e-06,3.340245530125685e-05,-2.3263433831743896e-05,-1.4644608199887443e-05,-7.705757161602378e-05
2.1847636162419803e-06,-2.6269721274729818e-05,3.360129994689487e-05,-5.7745455706026405e-05,-2.2333942979457788e-05,-8.068102761171758e-05
2.113254595315084e-06,-4.028827606816776e-05,3.486428613541648e-05,-4.868095493293367e-05,-2.656193646544125e-05,-1.7278458471992053e-05
1.9241431346017634e-06,-4.91886239615269e-05,3.2752970582805574e-05,-9.991440492740367e-06,-2.865056012524292e-05,0.00010244492295896634
3.3164169508381747e-06,-5.8325524150859565e-05,2.8362206649035215e-05,2.1330213712644763e-05,-3.891034430125728e-05,0.0001671440404606983
9.996562766900752e-06,-6.483652396127582e-05,2.5543489755364135e-05,2.7104653781861998e-05,-4.957865894539282e-05,0.00013961808872409165
1.8370559700997546e-05,-6.701741949655116e-05,2.5736697352840565e-05,1.4371874385687988e-05,-4.9026388296624646e-05,9.347214654553682e-05
2.2385815100278705e-05,-6.933154509169981e-05,2.7965028493781574e-05,5.061384854343487e-06,-4.212223211652599e-05,6.59852521494031e-05
2.1965219275443815e-05,-7.117391942301765e-05,2.9014567189733498e-05,1.2807186067220755e-05,-3.6527224438032135e-05,5.222245818004012e-05
1.910730861709453e-05,-6.801541894674301e-05,3.1914463761495426e-05,2.5779700081329793e-05,-2.912883610406425e-05,4.3165844545001164e-05
1.6883819625945762e-05,-5.2076411520829424e-05,4.056738180224784e-05,4.463294681045227e-05,-1.7736225345288403e-05,3.719998858286999e-05
1.384370079904329e-05,-1.5805258954060264e-05,4.380093014333397e-05,6.988174573052675e-05,-5.943903033767128e-06,1.7422908058506437e-05
2.0136994862696156e-06,2.3825778043828905e-05,3.926504359696992e-05,9.084367047762498e-05,1.2730691878459766e-06,-3.7416466511785984e-06
-1.2294166481296998e-05,3.604491212172434e-05,3.2153962820302695e-05,9.063792822416872e-05,1.2529405921668513e-06,1.9253726350143552e-05
-1.916375731525477e-05,8.466387953376397e-06,2.412865615042392e-05,7.338183786487207e-05,9.374009550811024e-07,6.127675442257896e-05
-1.6139523722813465e-05,-5.077556852484122e-05,1.8394124708720483e-05,6.081363608245738e-05,3.7541349229286425e-06,6.358465907396749e-05
-3.0232024528231705e-06,-8.114268712233752e-05,1.3409140592557378e-05,5.133548256708309e-05,6.076533736631973e-06,1.3951538676337805e-05
1.165738831332419e-05,-3.9892183849588037e-05,1.2045009498251602e-05,3.9600199670530856e-05,4.480124516703654e-06,-3.782428757403977e-05
2.0853884052485228e-05,7.2254883889399935e-06,1.368497123621637e-05,2.2588508727494627e-05,7.951436487019237e-07,-4.438542964635417e-05
2.4577053409302607e-05,-6.4758569351397455e-06,1.4772763279324863e-05,1.9217090994061437e-06,-2.710567514441209e-06,-1.7236434359801933e-05
2.9676142730750144e-05,-6.248475256143138e-05,1.819954013626557e-05,-9.924321602738928e-06,-5.576136572926771e-06,2.2487545720650814e-05
3.9494298107456416e-05,-0.00011248466762481257,2.567829506006092e-05,-9.917609531839844e-06,-7.069297680573072e-06,6.213533197296783e-05
5.229316957411356e-05,-0.0001330278319073841,3.2315678254235536e-05,-7.361185907939216e-06,-7.042392553557875e-06,9.166627569356933e-05
5.8569497923599556e-05,-0.00011782415822381154,3.402294896659441e-05,-1.5195926607702859e-05,-9.258901627617888e-06,9.577177843311802e-05
5.3090254368726164e-05,-6.795414810767397e-05,3.3635344152571633e-05,-4.566330972011201e-05,-1.4387238479685038e-05,7.740107685094699e-05
4.429712862474844e-05,-1.151909600594081e-05,3.5489276342559606e-05,-8.581230213167146e-05,-1.794591844372917e-05,7.873047434259206e-05
3.9895989175420254e-05,1.2055716979375575e-05,3.9640130125917494e-05,-0.000106359992059879,-1.8727621863945387e-05,0.00013278474216349423
3.910876694135368e-05,-4.704018920165254e-06,4.299137435737066e-05,-0.0001018831244437024,-1.943717143149115e-05,0.00020630522340070456
3.651117003755644e-05,-3.198749618604779e-05,4.0243390685645863e-05,-9.563317144056782e-05,-1.8774962882162072e-05,0.00024354323977604508
3.190286588505842e-05,-4.462276046979241e-05,3.372762876097113e-05,-9.968745143851265e-05,-1.2190824236313347e-05,0.0002370002621319145
3.076256689382717e-05,-4.27246923209168e-05,3.126512820017524e-05,-9.550208051223308e-05,-4.0569170778326225e-06,0.00021088658832013607
3.2432290026918054e-05,-4.0933799027698115e-05,3.41276427207049e-05,-6.024631147738546e-05,-4.587421074120357e-07,0.00017148659389931709
3.197323530912399e-05,-4.688855915446766e-05,3.551969712134451e-05,-8.330802302225493e-06,-3.7749134662590222e-06,0.00011229881783947349
3.2270985684590414e-05,-5.531818533199839e-05,3.376796666998416e-05,3.480566738289781e-05,-8.55371035868302e-06,5.4739717597840354e-05
3.646632467280142e-05,-5.9346471971366554e-05,3.2285672205034643e-05,7.659357652300969e-05,-1.0341046618123073e-05,3.5843007935909554e-05
4.2000705434475094e-05,-5.947810132056475e-05,3.467883652774617e-05,0.0001270194916287437,-8.269455975096207e-06,5.5940079619176686e-05
4.283824091544375e-05,-5.7647983339848e-05,3.9745718822814524e-05,0.00018769757298287004,-6.11621226198622e-06,8.488069579470903e-05
3.776101948460564e-05,-5.7748122344492e-05,4.095829353900626e-05,0.0002116569667123258,-5.758127372246236e-06,9.567514644004405e-05
3.0312834496726282e-05,-5.9393143601482734e-05,3.798385660047643e-05,0.00017291048425249755,-7.753772479190957e-06,8.06111711426638e-05
2.2196181816980243e-05,-5.0665061280597e-05,2.7996489734505303e-05,0.0001167692244052887,-1.5159564100031275e-05,4.1577473893994465e-05
1.1666600585158449e-05,-3.233260940760374e-05,1.5155579603742808e-05,8.016474021133035e-05,-2.5519300834275782e-05,-3.124592694803141e-05
4.787733814737294e-06,-2.0475516066653654e-05,8.98613507160917e-06,8.392803283641115e-05,-3.4908145607914776e-05,-0.00014242999895941466
6.205776571732713e-06,-2.406619933026377e-05,1.1861659004352987e-05,0.00011401512892916799,-3.544950595824048e-05,-0.00030273740412667394
1.2463805433071684e-05,-4.651119888876565e-05,1.7949569155462086e-05,0.0001459341001464054,-3.118544918834232e-05,-0.0004215136868879199
1.7785940144676715e-05,-7.987005665199831e-05,2.1241030481178313e-05,0.00016069499542936683,-2.7404423235566355e-05,-0.0003563661011867225
1.7948670574696735e-05,-9.183726069750264e-05,2.4921298972913064e-05,0.00014927436131983995,-2.5766723410924897e-05,-0.00012724564294330776
1.3467266398947686e-05,-6.42590457573533e-05,2.8569233109010383e-05,0.0001024606463033706,-2.2255639123613946e-05,0.00011489688040455803
5.857138148712693e-06,-2.600868174340576e-05,2.987682819366455e-05,3.7498874007724226e-05,-1.5934901966829784e-05,0.0002772730076685548
-5.729924623665283e-07,-1.8600896510179155e-05,2.9877774068154395e-05,-9.244942702935077e-06,-1.2449543646653183e-05,0.0003540570323821157
-2.4280375328089576e-06,-4.674676529248245e-05,2.9131666451576166e-05,-2.1365014617913403e-05,-1.5647679902031086e-05,0.000343964493367821
1.353799461867311e-06,-8.549771882826462e-05,2.7519430659594946e-05,-8.010345482034609e-06,-2.0654113541240804e-05,0.000263187539530918
9.172982572636101e-06,-0.00010496023605810478,2.7300635338178836e-05,6.624968591495417e-06,-1.8693579477258027e-05,0.00017240965098608285
1.7060032405424863e-05,-8.736570453038439e-05,3.104424467892386e-05,1.0918809493887238e-05,-1.1469292985566426e-05,0.00011389938299544156
2.2555044779437594e-05,-4.7390385589096695e-05,4.081348015461117e-05,1.1291980626992881e-05,-5.111765858600847e-06,6.730110180797055e-05
2.7617847081273794e-05,-1.999262531171553e-05,5.578654236160219e-05,1.9634755517472513e-05,-1.4841002666798886e-06,1.7614258467801847e-05
3.282576290075667e-05,-2.2907694074092433e-05,6.583693902939558e-05,2.9982384148752317e-05,1.392483000017819e-06,-1.0414969437988475e-05
3.257114076404832e-05,-4.816981527255848e-05,5.886973303859122e-05,2.806803968269378e-05,-1.0741846523387721e-07,1.096096275432501e-05
2.2439606254920363e-05,-7.227661262731999e-05,3.676678170450032e-05,4.904916750092525e-06,-7.2323850872635376e-06,6.98632065905258e-05
7.129641744541004e-06,-7.800028834026307e-05,1.457754297007341e-05,-2.2664469724986702e-05,-1.4446452041738667e-05,0.00012075414269929752
8.513097782270052e-07,-7.236719829961658e-05,5.67641563975485e-06,-3.522633414831944e-05,-1.6604815755272284e-05,0.00012758365483023226
9.927863175107632e-06,-6.904993642820045e-05,9.839794074650854e-06,-2.7796872018370777e-05,-1.445103953301441e-05,0.00010497704352019355
2.1805371943628415e-05,-6.289513839874417e-05,1.6385682101827115e-05,-5.704527666239301e-06,-1.0018809007306118e-05,7.861786434659734e-05
2.5885896320687607e-05,-4.302878733142279e-05,2.0248482542228885e-05,1.9548913769540377e-05,-7.301647656277055e-06,6.85310733388178e-05
2.2373851606971584e-05,-2.569119169493206e-05,2.6987770979758352e-05,4.2904681322397664e-05,-4.258788067090791e-06,4.698528937296942e-05
1.8861239368561655e-05,-3.3585554774617776e-05,3.4689426684053615e-05,6.028999268892221e-05,1.4297154393716482e-06,-4.9960440264840145e-06
2.0183872038614936e-05,-7.791344251018018e-05,3.731663309736177e-05,5.9690795751521364e-05,4.4816370063927025e-06,-1.4764649677090347e-05
2.315875462954864e-05,-0.00013271915668155998,3.5364224459044635e-05,4.434577203937806e-05,4.1315643102279864e-06,4.211276245769113e-05
2.525792115193326e-05,-0.00013159424997866154,3.3513329981360584e-05,2.4552979084546678e-05,5.0324642870691605e-06,0.00010097288031829521
2.5253450075979345e-05,-7.314717367989942e-05,3.867091072606854e-05,7.689361154916696e-06,8.234894266934134e-06,0.00010485437815077603
2.6733187041827478e-05,-1.919749229273293e-05,4.7684447054052725e-05,-2.7970036171609536e-06,1.1461567737569567e-05,6.649164424743503e-05
3.1302235584007576e-05,-3.883216777467169e-06,5.313986184773967e-05,-3.861863717702363e-09,7.534912583651021e-06,4.7255263780243695e-05
3.400697460165247e-05,-1.997190156544093e-05,5.234727723291144e-05,1.4446147361013573e-05,-3.0468910949821293e-07,6.925391062395647e-05
3.3575775887584314e-05,-3.567725798347965e-05,4.9392052460461855e-05,1.976121711777523e-05,-5.598649750027107e-06,8.33184749353677e-05
3.25477885780856e-05,-3.281648241681978e-05,4.505538163357414e-05,2.041342668235302e-06,-6.869360731798224e-06,5.5941782193258405e-05
3.200541323167272e-05,-2.2399415684049018e-05,3.914205080945976e-05,-2.0341825802461244e-05,-9.604349543224089e-06,9.275541970055201e-07
3.0037854230613448e-05,-2.1668660338036716e-05,3.383577131899074e-05,-1.6764477550168522e-05,-1.313555912929587e-05,-5.1618306315504014e-05
2.0781120838364586e-05,-2.820095141942147e-05,3.347322854097001e-05,1.1867886314576026e-05,-1.2814809451811016e-05,-8.603346213931218e-05
6.596362709387904e-06,-3.081864269915968e-05,3.867992927553132e-05,3.823257065960206e-05,-9.457281521463301e-06,-0.00011529715993674472
-1.4992376691225218e-06,-3.2373169233324006e-05,4.252645157976076e-05,4.638939572032541e-05,-4.8069009608298074e-06,-0.00015684629033785313
3.1713232147012604e-06,-4.175574940745719e-05,4.121114398003556e-05,4.2284656956326216e-05,-1.6856647562235594e-06,-0.0001959506917046383
1.3871370356355328e-05,-5.519115802599117e-05,3.791150447796099e-05,4.073199306731112e-05,1.2335965493548429e-06,-0.00017797465261537582
1.990444252442103e-05,-5.9576497733360156e-05,3.5785255022346973e-05,5.082082498120144e-05,3.2650443699822063e-06,-7.298916898434982e-05
1.8933287719846703e-05,-5.206463174545206e-05,3.251770249335095e-05,5.7843051763484254e-05,1.4001846011524322e-06,7.191985059762374e-05
1.471759969717823e-05,-4.2418829252710566e-05,2.9479811928467825e-05,5.039919415139593e-05,-7.601424385939026e-06,0.0001779373997123912
1.0514083442103583e-05,-3.8844882510602474e-05,2.437139664834831e-05,3.576744347810745e-05,-2.121112629538402e-05,0.00021670474961865693
9.757179213920608e-06,-4.20250253228005e-05,1.5939227523631416e-05,2.2475962396129034e-05,-3.0535720725310966e-05,0.0002191604144172743
1.3311147995409556e-05,-4.531351078185253e-05,1.2910478289995808e-05,1.986521419894416e-05,-2.8587219276232645e-05,0.00022552142036147416
1.8388307580607943e-05,-4.497381451074034e-05,2.0986193703720346e-05,3.4138993214583024e-05,-2.2423457266995683e-05,0.0002231261896668002
2.2100213755038567e-05,-4.78851143270731e-05,2.9495971830328926e-05,5.69051226193551e-05,-1.6716492609702982e-05,0.00018313765758648515
1.8148499293602072e-05,-5.216438876232132e-05,3.114816718152724e-05,6.998718890827149e-05,-1.6216101357713342e-05,0.00011637139687081799
1.1987131983914878e-05,-5.541232894756831e-05,3.0411867555812933e-05,5.735240483772941e-05,-1.981027889996767e-05,6.811591447331011e-05
1.4309478501672857e-05,-5.682394839823246e-05,2.8946193197043613e-05,3.71264286513906e-05,-1.82066360139288e-05,6.9755369622726e-05
2.5496156013105065e-05,-5.555535972234793e-05,3.203619780833833e-05,2.8279271646169946e-05,-7.8879411375965e-06,9.68815729720518e-05
3.9314469177043065e-05,-5.636929563479498e-05,3.5382763599045575e-05,2.5153480237349868e-05,1.5865202840359416e-06,0.00011522845306899399
4.506450204644352e-05,-5.787142436020076e-05,3.349899634486064e-05,1.9649280147859827e-05,1.0308634728062316e-06,0.00011647259088931605
4.3175437895115465e-05,-5.524612788576633e-05,3.091441612923518e-05,1.1450105375843123e-05,-6.502358701254707e-06,0.00010539909999351948
4.489394632400945e-05,-4.372041075839661e-05,2.787555604299996e-05,5.808944479213096e-06,-1.0588486475171521e-05,9.128730016527697e-05
4.7037483454914764e-05,-2.6735444407677278e-05,2.545695679145865e-05,5.774302735517267e-06,-9.9017870525131e-06,8.227272337535396e-05
4.036491736769676e-05,-1.6406576833105646e-05,2.3016807972453535e-05,8.08491404313827e-06,-7.394554359052563e-06,7.658077083760872e-05
2.8047224986949004e-05,-1.6223551938310266e-05,2.0165556634310633e-05,9.860592399490997e-06,-5.299817530612927e-06,6.916331039974466e-05
2.1455793103086762e-05,-2.2416706997319125e-05,2.0772349671460688e-05,7.904804078862071e-06,-4.066316250828095e-06,6.914062396390364e-05
2.46015188167803e-05,-4.4165124563733116e-05,2.4433107682853006e-05,-1.7547870356793283e-06,-2.870296839319053e-06,8.057897503022105e-05
3.067726720473729e-05,-7.553463365184143e-05,2.716255039558746e-05,-1.725092442939058e-05,-4.747247203340521e-06,9.707875869935378e-05
3.2124054996529594e-05,-7.805237692082301e-05,2.831364872690756e-05,-3.0415088986046612e-05,-7.916411959740799e-06,0.00011709311365848407
3.0278364647529088e-05,-4.8639583837939426e-05,3.286835999460891e-05,-2.977951953653246e-05,-9.16717453947058e-06,0.00013856349687557667
2.697988566069398e-05,-3.131671837763861e-05,4.381992039270699e-05,-1.3124063116265461e-05,-6.174414011184126e-06,0.00015328019799198955
2.030854011536576e-05,-5.006921855965629e-05,5.597580093308352e-05,7.351021849899553e-06,-3.572819878172595e-06,0.00014904917043168098
1.1063872989325318e-05,-8.015772618819028e-05,6.123837374616414e-05,1.543450343888253e-05,-3.8009059153409908e-06,0.00012371507182251662
4.96597021992784e-06,-8.951580093707889e-05,5.424671689979732e-05,9.484653674007859e-06,-6.215628218342317e-06,8.911624900065362e-05
6.005321665725205e-06,-7.599386299261823e-05,3.999217369710095e-05,6.722082616761327e-06,-7.49928494769847e-06,5.721680281567387e-05
1.2915930710732937e-05,-5.765120658907108e-05,2.901562038459815e-05,2.082328501273878e-05,-6.984847914282e-06,2.7748963475460187e-05
2.1626712623401545e-05,-5.0158003432443365e-05,2.4563674742239527e-05,4.567543146549724e-05,-7.255021955643315e-06,1.9361918930371758e-06
2.5372324671479873e-05,-5.081515701021999e-05,2.43619524553651e-05,7.075944449752569e-05,-1.0686145287763793e-05,-1.4342962458613329e-05
2.278806277900003e-05,-4.9658392526907846e-05,2.604827932373155e-05,8.96907877177e-05,-1.1416211236792151e-05,-1.5879026250331663e-05
1.78682676050812e-05,-4.592666300595738e-05,2.8005431886413135e-05,9.596238669473678e-05,-1.139518371928716e-05,-2.614783625176642e-07
1.552473804622423e-05,-4.197638918412849e-05,2.7696612960426137e-05,8.940482075558975e-05,-1.7307653251918964e-05,2.2600743250222877e-05
1.6302772564813495e-05,-3.5077719076070935e-05,2.3017941202851944e-05,7.827979425201192e-05,-2.2574298782274127e-05,3.268978980486281e-05
2.0597408365574665e-05,-3.296601425972767e-05,1.7160473362309858e-05,6.051495802239515e-05,-2.419160955469124e-05,3.303087578387931e-05
2.7696269171428867e-05,-4.319140498409979e-05,1.0107448360940907e-05,3.0695337045472115e-05,-2.277072417200543e-05,4.446410821401514e-05
2.951144597318489e-05,-4.974664989276789e-05,4.472813543543452e-06,-3.4847676033678e-06,-2.4974959160317667e-05,5.4413769248640165e-05
2.6343937861383893e-05,-4.6018158172955737e-05,5.80484766032896e-06,-2.634104384924285e-05,-2.940366175607778e-05,4.776170680997893e-05
2.6775693186209537e-05,-3.0727234843652695e-05,9.053796020452864e-06,-3.490488961688243e-05,-2.666123691597022e-05,4.348137372289784e-05
3.436666156630963e-05,-1.282077300857054e-05,1.3562435015046503e-05,-3.262850805185735e-05,-2.1900244973949157e-05,5.3384228522190824e-05
4.0545281080994755e-05,-1.3199150089349132e-05,2.257577762065921e-05,-2.3062480977387168e-05,-2.1427651518024504e-05,7.049681153148413e-05
3.253651084378362e-05,-5.188474096939899e-05,2.306570422661025e-05,-5.624629920930602e-06,-2.341616345802322e-05,8.423550025327131e-05
1.8051940060104243e-05,-8.831200102576986e-05,9.698820576886646e-06,1.3958027921034954e-05,-2.6432615413796157e-05,8.690456161275506e-05
1.0466851563251112e-05,-6.26701075816527e-05,2.3361264993582154e-06,2.4635319277876988e-05,-2.8942577046109363e-05,8.473025081912056e-05
1.2738460100081284e-05,-3.054008266190067e-05,1.2493231224652845e-05,1.9482928109937347e-05,-2.7150306777912192e-05,8.967777830548584e-05
1.7223565009771846e-05,-5.02118346048519e-05,3.710408418555744e-05,6.231822681002086e-06,-2.6804844310390763e-05,9.831757779465988e-05
1.5900486687314697e-05,-9.651115396991372e-05,6.019083230057731e-05,5.462682111101458e-06,-3.8535847124876454e-05,9.751503239385784e-05
9.488877367402893e-06,-0.00011767443356802687,6.798827234888449e-05,1.804761814128142e-05,-5.8562520280247554e-05,8.443120896117762e-05
6.9196471486066e-06,-0.0001074504543794319,6.128234963398427e-05,3.752133488887921e-05,-7.282448495971039e-05,7.37254522391595e-05
1.5112746950762812e-05,-8.749427070142701e-05,4.8135796532733366e-05,6.504856719402596e-05,-7.417424058075994e-05,7.33683627913706e-05
2.8797567210858688e-05,-7.197301601991057e-05,4.058868216816336e-05,9.675671753939241e-05,-6.418052362278104e-05,8.415031334152445e-05
3.671069134725258e-05,-6.313162884907797e-05,4.108311259187758e-05,0.00010815462883329019,-4.6017335989745334e-05,0.00010713063238654286
3.749796451302245e-05,-5.819938814966008e-05,4.106386040803045e-05,8.104860899038613e-05,-2.250349825771991e-05,0.0001448909315513447
3.786438173847273e-05,-5.574347233050503e-05,3.685652700369246e-05,3.037598253285978e-05,4.751069809572073e-06,0.0001931436127051711
3.769010800169781e-05,-5.0519789510872215e-05,3.6258345062378794e-05,-7.82881943450775e-06,3.415707396925427e-05,0.0002208710793638602
3.575867594918236e-05,-4.2216073779854923e-05,3.9313130400842056e-05,-1.2003864867438097e-05,6.0348742408677936e-05,0.00019389150838833302
3.234121322748251e-05,-3.385639865882695e-05,4.059632192365825e-05,1.413526842952706e-05,7.991268648765981e-05,0.00011592803639359772
3.267978900112212e-05,-2.875568861782085e-05,4.244412775733508e-05,5.5400731071131304e-05,9.498403960606083e-05,1.6267875253106467e-05
3.6508849007077515e-05,-2.7525195037014782e-05,4.731958688353188e-05,9.476496779825538e-05,0.00010251350613543764,-7.743910828139633e-05
3.9403370465151966e-05,-3.309157909825444e-05,5.142927329870872e-05,0.00012213589798193425,9.649204730521888e-05,-0.00014263589400798082
3.728306546690874e-05,-4.2391009628772736e-05,5.4111602366901934e-05,0.00014469798770733178,7.969222497195005e-05,-0.00019886378140654415
2.998630043293815e-05,-5.2992894779890776e-05,5.4326468671206385e-05,0.00017654566909186542,5.944486474618316e-05,-0.00026022864039987326
2.7766085622715764e-05,-5.293419599183835e-05,5.215414421400055e-05,0.00020541533012874424,4.385133433970623e-05,-0.00027125448104925454
2.90818734356435e-05,-4.9214275350095704e-05,4.242919385433197e-05,0.0002037474187090993,3.0447317840298638e-05,-0.00023574341321364045
2.7160302124684677e-05,-4.938724305247888e-05,2.1894149540457875e-05,0.0001506484259152785,1.604662975296378e-05,-0.00017389391723554581
2.1880949134356342e-05,-4.7280769649660215e-05,3.533351900841808e-06,7.392057159449905e-05,2.601746928121429e-06,-9.747294097905979e-05
1.3847927220922429e-05,-4.2823809053516015e-05,-7.11456777935382e-07,3.3143624023068696e-05,-8.664328561280854e-06,-4.017643004772253e-05
5.887420229555573e-06,-3.4470554965082556e-05,8.343039553437848e-06,3.21103616442997e-05,-1.4760529666091315e-05,6.9255897869879846e-06
5.446140676212963e-07,-2.976713039970491e-05,1.8019918570644222e-05,3.2656163966748863e-05,-2.246152507723309e-05,3.365067095728591e-05
-2.7210703592572827e-06,-3.2742998882895336e-05,2.137015871994663e-05,1.657300890656188e-05,-2.817756285367068e-05,5.059906470705755e-05
-2.7799419513030443e-06,-4.313635145081207e-05,1.9831355530186556e-05,-5.456020062410971e-06,-3.2017687772167847e-05,8.672956028021872e-05
4.380947871140961e-07,-5.527756366063841e-05,1.738310675136745e-05,-2.9235945476102643e-05,-3.513570118229836e-05,0.00016901986964512616
7.464934697054559e-06,-6.301287794485688e-05,1.4309058315120637e-05,-5.215097189648077e-05,-3.3642983908066526e-05,0.0002600221778266132
1.8299770090379752e-05,-6.37612392893061e-05,1.2646491086343303e-05,-7.589039159938693e-05,-2.85128644463839e-05,0.00031234376365318894
2.8307189495535567e-05,-5.767769835074432e-05,1.3264595509099308e-05,-9.308239532401785e-05,-2.531408790673595e-05,0.00032892971648834646
3.352238127263263e-05,-5.033853085478768e-05,1.7647111235419288e-05,-8.322294888785109e-05,-2.634754855534993e-05,0.00032635696697980165
3.184361776220612e-05,-4.65171760879457e-05,2.4558788936701603e-05,-4.958727367920801e-05,-3.055469278478995e-05,0.0003020293661393225
2.7403135391068645e-05,-4.647143214242533e-05,3.1513474823441356e-05,-1.3865536857338157e-05,-3.774674405576661e-05,0.0002356219629291445
2.4947148631326854e-05,-4.6090863179415464e-05,3.7956455344101414e-05,1.213480754813645e-05,-4.2633248085621744e-05,0.00011392094893381
2.4873390430002473e-05,-4.500072100199759e-05,4.350080052972771e-05,3.384966476005502e-05,-4.3087511585326865e-05,-6.340989784803241e-05
2.3477699869545177e-05,-4.5334629248827696e-05,4.843682108912617e-05,4.606532820616849e-05,-4.103418905287981e-05,-0.0002375859912717715
2.1504984033526853e-05,-4.835704021388665e-05,4.921131403534673e-05,3.962865230278112e-05,-3.808085239143111e-05,-0.0003033728862646967
2.279934415128082e-05,-5.1452047046041116e-05,4.5479235268430784e-05,2.3425132894772105e-05,-3.333827044116333e-05,-0.0002227403165306896
2.6993680876330473e-05,-5.299485201248899e-05,4.3513831769814715e-05,1.6647230950184166e-05,-2.647753535711672e-05,-9.737805521581322e-05
3.0446679375017993e-05,-5.484423309098929e-05,4.2215346184093505e-05,5.982099537504837e-06,-2.1881560314795934e-05,-1.574712405272294e-05
2.8707596356980503e-05,-5.94183657085523e-05,3.587431274354458e-05,-2.477791167621035e-05,-2.4404405849054456e-05,3.0400935429497622e-05
2.0435358237591572e-05,-6.310211756499484e-05,2.614070035633631e-05,-5.3089177526999265e-05,-3.358892354299314e-05,6.344567373162135e-05
1.3336243682715576e-05,-6.061797830625437e-05,1.967820935533382e-05,-5.892336048418656e-05,-5.0073005695594475e-05,7.405655196635053e-05
1.4324060430226382e-05,-5.534056617761962e-05,2.16304852074245e-05,-3.672941238619387e-05,-7.113401807146147e-05,6.22367297182791e-05
1.7632350136409514e-05,-5.176151171326637e-05,2.751993633864913e-05,-1.015523503156146e-05,-8.431022433796898e-05,4.5563294406747445e-05
1.7825203030952252e-05,-4.983690814697184e-05,3.4721986594377086e-05,7.887755600677337e-06,-7.673438813071698e-05,4.8663154302630574e-05
1.7755530279828236e-05,-5.094326115795411e-05,3.708742224262096e-05,2.6962641641148366e-05,-5.660679380525835e-05,5.947952377027832e-05
1.7341655620839447e-05,-5.300821430864744e-05,3.5990487958770245e-05,3.621900759753771e-05,-3.528331217239611e-05,6.376377132255584e-05
1.7258678781217895e-05,-5.127878830535337e-05,3.479723818600178e-05,4.098011049791239e-05,-1.619300564925652e-05,7.060508505674079e-05
2.0694700651802123e-05,-4.8125053581316024e-05,3.81343525077682e-05,5.1691909902729094e-05,2.6569348392513348e-06,9.030666842591017e-05
2.4480179490637966e-05,-4.753064422402531e-05,4.0739607356954366e-05,7.290823123184964e-05,1.6820908058434725e-05,0.00010801365715451539
2.6139172405237332e-05,-5.094283551443368e-05,3.7508292734855786e-05,8.781161886872724e-05,2.788679012155626e-05,0.00010997687058988959
2.5774756068130955e-05,-5.4569354688283056e-05,3.366373493918218e-05,8.215148409362882e-05,3.828706394415349e-05,0.00010833542182808742
2.421835597488098e-05,-5.4237352742347866e-05,3.117246524197981e-05,5.513907308341004e-05,4.924538734485395e-05,0.0001209519905387424
2.3327957023866475e-05,-5.031095497542992e-05,3.5267079510958865e-05,1.8540184100857005e-05,5.7670888054417446e-05,0.00014183159510139376
2.3804068405297585e-05,-4.391445327200927e-05,4.3586569518083706e-05,-9.76151477516396e-06,5.9148504078621045e-05,0.0001498797646490857
2.3310925826081075e-05,-3.8662939914502203e-05,4.763495235238224e-05,-3.2424268283648416e-05,5.6764198234304786e-05,0.00015226386312860996
2.129452332155779e-05,-3.7163019442232326e-05,4.207665188005194e-05,-5.745140151702799e-05,5.233217234490439e-05,0.00017179068527184427
2.1233372535789385e-05,-3.9160069718491286e-05,3.1952080462360755e-05,-7.865215593483299e-05,4.7193807404255494e-05,0.00021761527750641108
2.2454923964687623e-05,-4.289640855859034e-05,2.4315817427122965e-05,-7.846786320442334e-05,3.8660360587527975e-05,0.00024932457017712295
2.2092317522037774e-05,-4.679712583310902e-05,2.2512744180858135e-05,-5.9738427808042616e-05,2.780788236123044e-05,0.00021554138220380992
2.1576553990598768e-05,-4.757724309456535e-05,2.503628820704762e-05,-2.9112228730809875e-05,1.759684892022051e-05,0.00013218859385233372
2.2033304048818536e-05,-4.5438842789735645e-05,3.000691685883794e-05,9.236858204531018e-06,1.1404787983337883e-05,6.416263931896538e-05
2.0449042494874448e-05,-5.179176514502615e-05,3.454508259892464e-05,3.8710069929948077e-05,2.9750074190815212e-06,2.623424916237127e-05
1.7065040083252825e-05,-6.567005766555667e-05,3.395755629753694e-05,4.226636156090535e-05,-9.904048056341708e-06,-3.2221857964032097e-06
1.6138426872203127e-05,-7.18897208571434e-05,3.0048491680645384e-05,4.6583565563196316e-05,-2.2581449229619466e-05,-4.510928556555882e-05
1.6439289538539015e-05,-6.954521086299792e-05,2.972595211758744e-05,7.440432091243565e-05,-3.0060322387726046e-05,-9.488020441494882e-05
1.629995858820621e-05,-6.583962385775521e-05,2.9690831070183776e-05,0.00010733091039583087,-3.376107633812353e-05,-0.00010574469342827797
1.4996203390182927e-05,-5.716061787097715e-05,2.6896761482930742e-05,0.00012774555943906307,-3.37966630468145e-05,-4.720162905869074e-05
1.5204208466457203e-05,-4.1710318328114226e-05,2.776226756395772e-05,0.000130835163872689,-3.056575224036351e-05,4.486861507757567e-05
1.8225711755803786e-05,-2.2413694750866853e-05,2.8276517696212977e-05,0.0001042066141963005,-2.273743120895233e-05,0.00012216561299283057
2.0880430383840576e-05,-1.3647936611960176e-05,2.4203345674322918e-05,5.066682933829725e-05,-1.4955778169678524e-05,0.0001654868246987462
2.1276360712363385e-05,-2.474544453434646e-05,2.0999583284719847e-05,-2.1775776986032724e-06,-1.4263227967603598e-05,0.00019464170327410102
2.0022906028316356e-05,-4.053955490235239e-05,1.518761200713925e-05,-3.441288572503254e-05,-1.8408238247502595e-05,0.00022221037943381816
1.8299591829418205e-05,-4.778632501256652e-05,1.0594946616038214e-05,-3.516760261845775e-05,-2.153000059479382e-05,0.00024278300406876951
1.7660780940786935e-05,-4.4436495954869315e-05,1.742847598507069e-05,-7.5321036092645954e-06,-2.0318742826930247e-05,0.0002850965829566121
1.9908804461010732e-05,-3.7298166716936976e-05,2.8065862352377735e-05,2.1117753931321204e-05,-1.7060714526451193e-05,0.00032679858850315213
2.155666152248159e-05,-3.2799078326206654e-05,3.07806913042441e-05,3.418374762986787e-05,-1.3877442142984364e-05,0.00030823881388641894
2.339865568501409e-05,-3.246036067139357e-05,3.345864752191119e-05,5.7741541240829974e-05,-1.1498282219690736e-05,0.00023118144599720836
2.6571251510176808e-05,-3.435221879044548e-05,4.203876596875489e-05,0.00011111531057395041,-8.167458872776479e-06,0.00013128749560564756
2.6763183996081352e-05,-3.718677908182144e-05,4.694607559940778e-05,0.00016299528942909092,-6.880315595481079e-06,4.9687176215229556e-05
2.3262537069967948e-05,-4.505452307057567e-05,3.964361167163588e-05,0.00016267469618469477,-1.1155340871482622e-05,9.543185797156184e-07
1.8219150661025196e-05,-5.5960008467081934e-05,2.4224455046351068e-05,0.00010996126366080716,-2.0301029508118518e-05,-5.277239324641414e-05
1.4711307812831365e-05,-5.9893929574172944e-05,1.3190667232265696e-05,5.9157537179999053e-05,-2.8350623324513435e-05,-0.00015920384612400085
1.4313946849142667e-05,-4.8104600864462554e-05,1.1484892638691235e-05,4.962935054209083e-05,-3.0715975299244747e-05,-0.00028666548314504325
1.6873880667844787e-05,-2.8291691705817357e-05,1.5729583537904546e-05,6.18927224422805e-05,-2.7671794669004157e-05,-0.00030860042897984385
2.145610415027477e-05,-1.3534262507164385e-05,1.8493965399102308e-05,6.221882358659059e-05,-2.3424599930876866e-05,-0.0001648864126764238
2.613425749586895e-05,-1.6220497855101712e-05,1.992371107917279e-05,5.399409565143287e-05,-2.108915759890806e-05,2.4578421289334074e-05
2.9562761483248323e-05,-4.277453990653157e-05,2.3674932890571654e-05,5.691664409823716e-05,-2.049876820819918e-05,0.00010905392991844565
2.9958791856188327e-05,-6.219181523192674e-05,2.9651124350493774e-05,6.822243449278176e-05,-1.750583032844588e-05,9.07798093976453e-05
2.5936937163351104e-05,-3.502764957374893e-05,3.415418177610263e-05,7.864870713092387e-05,-9.61075238592457e-06,7.160855602705851e-05
2.0400235371198505e-05,-1.731120619297144e-06,3.252741225878708e-05,8.406797860516235e-05,-5.186954695091117e-06,7.794820703566074e-05
1.8800439647748135e-05,-2.3241487724590115e-05,2.4784299966995604e-05,8.069367322605103e-05,-9.047777894011233e-06,5.922304990235716e-05
2.1349200324038975e-05,-6.572157144546509e-05,1.9274499209132046e-05,7.595775241497904e-05,-1.3252621101855766e-05,6.249029411264928e-06
2.4042517907219008e-05,-6.97467548889108e-05,1.7093254427891225e-05,6.877987470943481e-05,-1.5643563529010862e-05,-5.223730840953067e-05
2.4282431695610285e-05,-2.874911660910584e-05,1.5364683349616826e-05,5.424644041340798e-05,-2.1864656446268782e-05,-9.379591210745275e-05
2.0021037926198915e-05,1.2799065189028624e-05,1.7385049432050437e-05,4.015126614831388e-05,-2.8326267056399956e-05,-9.851669892668724e-05
1.727798553474713e-05,-1.6310548744513653e-05,2.7895652237930335e-05,3.1642895919503644e-05,-2.8430389647837728e-05,-4.6612000005552545e-05
2.0647528799599968e-05,-0.00012685831461567432,4.2211155232507735e-05,1.8966975403600372e-05,-2.1638004909618758e-05,2.3230420993058942e-05
2.569462412793655e-05,-0.00022733725199941546,5.044071804150008e-05,4.922512175653537e-08,-1.8452488802722655e-05,4.892554716207087e-05
2.886683796532452e-05,-0.00021579551685135812,5.055695874034427e-05,-1.3030630725552328e-05,-2.3799175323802046e-05,3.977019514422864e-05
2.528678669477813e-05,-0.00012876949040219188,4.824419738724828e-05,-1.0599287634249777e-05,-2.6296316718799062e-05,2.822205533448141e-05
1.8243910744786263e-05,-6.870254583191127e-05,5.090199192636646e-05,1.3696310361410724e-06,-2.364461397519335e-05,2.4342662072740495e-05
1.5612791685271077e-05,-4.095524127478711e-05,5.984881136100739e-05,1.217170665768208e-05,-1.645936026761774e-05,2.901966217905283e-05
1.785812492016703e-05,-1.9069511836278252e-05,6.88698492012918e-05,1.9704169972101226e-05,-7.64776996220462e-06,4.3869826185982674e-05
2.2905105652171187e-05,-6.727313120791223e-06,6.750274769729003e-05,1.7581225620233454e-05,-1.5092055036802776e-06,6.237350316951051e-05
2.7624704671325162e-05,-1.2814060028176755e-05,5.741462155128829e-05,7.0527826210309286e-06,-1.101323391594633e-06,7.853521674405783e-05
2.8492966521298513e-05,-2.8454267521738075e-05,4.927493500872515e-05,-1.853414119068475e-06,-5.0583744268806186e-06,0.00010266864410368726
2.6460629669600166e-05,-4.347219146438874e-05,5.165779293747619e-05,-1.341670099463954e-06,-5.984788458590629e-06,0.00013183808187022805
2.437757939333096e-05,-4.965873449691571e-05,5.786377005279064e-05,3.0336252621054882e-06,-2.977587655550451e-06,0.00014037321670912206
2.3046575734042563e-05,-4.896001337328926e-05,5.6475379096809775e-05,7.066816579026636e-06,-4.860448257204553e-07,0.00010823176853591576
2.2226362489163876e-05,-4.772389729623683e-05,4.659380283555947e-05,1.024102220981149e-05,-9.513437504438116e-08,5.588557178271003e-05
2.2586846171179786e-05,-4.7468729462707415e-05,3.541564001352526e-05,1.6172021787497215e-05,1.5063639011714258e-06,2.4756925995461643e-05
2.471767038514372e-05,-4.602513217832893e-05,3.046420715691056e-05,2.2438740415964276e-05,6.4170585574174765e-06,2.2818510842625983e-05
2.6469597287359647e-05,-4.143092519370839e-05,3.34034557454288e-05,1.6241212506429292e-05,1.3351489542401396e-05,2.5426765205338597e-05
2.5511022613500245e-05,-3.752449993044138e-05,3.9937607652973384e-05,-1.8341994518777938e-06,1.414068083249731e-05,3.7486002838704735e-05
2.25701805902645e-05,-3.855060276691802e-05,4.2994121031370014e-05,-1.5303148757084273e-05,7.55296923671267e-06,8.937594975577667e-05
2.0966253941878676e-05,-4.469644773053005e-05,3.80527380912099e-05,-2.1488673155545257e-05,2.1617270817841927e-07,0.00016385132039431483
2.0301073163864203e-05,-5.148775744601153e-05,2.5098250262090005e-05,-2.9582557544927113e-05,-7.343585821217857e-06,0.00019811933452729136
1.902391522889957e-05,-5.9086760302307084e-05,1.066518325387733e-05,-3.7008332583354786e-05,-1.6461097402498126e-05,0.00017485696298535913
1.8733684555627406e-05,-6.467095954576507e-05,3.866293354803929e-06,-3.2874882890610024e-05,-1.9643732230179012e-05,0.00013988238060846925
2.2563728634850122e-05,-6.639237835770473e-05,7.709873898420483e-06,-1.2283033356652595e-05,-1.5165715922194067e-05,0.00011628236825345084
2.8519185434561223e-05,-6.438971468014643e-05,1.7831396689871326e-05,1.6755897377151996e-05,-1.1596035619731992e-05,0.00012120190513087437
3.2294738048221916e-05,-6.170695996843278e-05,2.367811066505965e-05,5.4233965784078464e-05,-1.2815441550628748e-05,0.0001476558536523953
3.450911390245892e-05,-5.976040120003745e-05,2.2492065909318626e-05,0.00010834520071512088,-1.6200376194319688e-05,0.00015974178677424788
3.65755295206327e-05,-5.9473914006957784e-05,2.4419075998594053e-05,0.00015935102419462055,-1.4447630746872164e-05,0.0001352702092844993
3.420831490075216e-05,-5.6193377531599253e-05,2.7248110200162046e-05,0.00018434414232615381,-1.3285990462463815e-05,7.114229811122641e-05
2.5286375603172928e-05,-4.8114081437233835e-05,3.087938603130169e-05,0.00017385875980835408,-1.4159751117404085e-05,3.5692584788193926e-05
2.1087807908770628e-05,-3.504623964545317e-05,3.325138095533475e-05,0.0001132184115704149,-1.1484126844152343e-05,6.180136551847681e-05
2.4023618607316166e-05,-2.5150098736048676e-05,2.787428820738569e-05,4.575289131025784e-05,-1.1112634638266172e-05,9.85517690423876e-05
2.7134077754453756e-05,-2.9603617804241367e-05,1.878903822216671e-05,9.44351722864667e-06,-1.553119727759622e-05,0.00011937466479139403
2.662065344338771e-05,-4.1370214603375643e-05,1.0550292245170567e-05,-2.215472522948403e-05,-2.2464750145445578e-05,0.00013100728392601013
2.1866988390684128e-05,-4.814533167518675e-05,7.523966814915184e-06,-7.524234388256446e-05,-2.5339431886095554e-05,0.0001320267911069095
1.6831012544571422e-05,-4.641205305233598e-05,7.654217370145489e-06,-0.00012975088611710817,-2.2994699975242838e-05,0.0001291775406571105
1.6887719539226964e-05,-3.985852163168602e-05,6.042543191142613e-06,-0.00015307925059460104,-1.6853964552865364e-05,0.00013959543139208108
2.1123008991708048e-05,-3.0544651963282377e-05,6.2004751271160785e-06,-0.00013334144023247063,-1.0989180736942217e-05,0.0001333643594989553
2.6186035029240884e-05,-2.7498648705659434e-05,1.225585765496362e-05,-9.36928772716783e-05,-5.6704593589529395e-06,6.45445252303034e-05
3.13373893732205e-05,-3.892113090842031e-05,2.0970470359316096e-05,-5.445740316645242e-05,-4.1772503323045385e-07,-4.200891271466389e-05
3.2591928174952045e-05,-4.1908460843842477e-05,2.6093888664036058e-05,-1.1087031452916563e-05,1.581209971845965e-06,-0.00013215972285252064
2.8059146643499844e-05,-2.0432717064977624e-05,2.730337655520998e-05,3.116914740530774e-05,-1.3862685364074423e-06,-0.00019574094039853662
2.0225141270202585e-05,-6.7383853092906065e-06,3.150777774862945e-05,5.27175325260032e-05,-5.234674063103739e-06,-0.00024998519802466035
1.2212340152473189e-05,-3.067030411330052e-05,4.211410123389214e-05,4.669043846661225e-05,-5.698798304365482e-06,-0.0002911764313466847
7.066318630677415e-06,-7.500009087380022e-05,5.5919077567523345e-05,3.5716853744816035e-05,-5.91829029872315e-06,-0.000301232939818874
9.931566637533251e-06,-9.6373405540362e-05,6.362743442878127e-05,4.2464289435883984e-05,-6.652205229329411e-06,-0.00027772359317168593
1.891480314952787e-05,-7.543638639617711e-05,5.994124148855917e-05,6.822030991315842e-05,-7.104937594704097e-06,-0.00021454696252476424
2.25909570872318e-05,-3.7796449760207906e-05,4.7886191168799996e-05,8.952990174293518e-05,-3.651067345344927e-06,-0.0001099584624171257
1.515460553491721e-05,-2.0575876988004893e-05,3.82880461984314e-05,8.885980787454173e-05,3.7159254588914337e-06,-4.100112619198626e-06
8.133462870318908e-06,-2.594308534753509e-05,3.611244756029919e-05,6.794833461754024e-05,9.503112778475042e-06,5.151496225153096e-05
1.252751644642558e-05,-4.02564910473302e-05,3.8518923247465864e-05,4.7571076720487326e-05,1.323610467807157e-05,7.060290954541415e-05
2.579891042842064e-05,-5.8219684433424845e-05,4.243089642841369e-05,3.299462332506664e-05,1.8330285456613638e-05,0.00010706328612286597
3.368484613019973e-05,-6.918580766068771e-05,4.5000066165812314e-05,1.722274100757204e-05,2.1071196897537448e-05,0.00016574068285990506
3.0318338758661412e-05,-6.400084384949878e-05,4.4433279981603846e-05,5.073188731330447e-06,1.5473378880415112e-05,0.00022884175996296108
2.4798031518002972e-05,-4.902532964479178e-05,4.2217860027449206e-05,1.7924339772434905e-05,2.4964222120615887e-06,0.00027297413907945156
2.571076220192481e-05,-4.326155612943694e-05,4.134954360779375e-05,6.103345731389709e-05,-8.278528184746392e-06,0.00027263822266831994
3.2132422347785905e-05,-5.1300638006068766e-05,3.920413655578159e-05,9.617061004973948e-05,-1.4261405340221245e-05,0.0002478112874086946
3.6128425563219935e-05,-6.258191569941118e-05,4.2591353121679276e-05,9.641548967920244e-05,-1.841836274252273e-05,0.00023496778158005327
3.42456296493765e-05,-6.55640906188637e-05,4.7935853217495605e-05,7.874879520386457e-05,-2.4626915546832606e-05,0.0002567213959991932
2.6923700715997256e-05,-6.095457501942292e-05,4.027805698569864e-05,5.806511398986913e-05,-2.9965927751618437e-05,0.0002913865027949214
1.684912604105193e-05,-5.9799745940836146e-05,1.9599317965912633e-05,4.187274316791445e-05,-3.2729665690567344e-05,0.0002917928504757583
7.269474281201838e-06,-6.056631900719367e-05,3.484039780232706e-06,3.869342981488444e-05,-3.429093339946121e-05,0.000236774911172688
-2.433510815080808e-07,-5.728545875172131e-05,4.5356487134995405e-06,4.633123899111524e-05,-3.2603398722130805e-05,0.00015221630746964365
-7.91350885265274e-06,-4.984077895642258e-05,1.841363155108411e-05,5.681753464159556e-05,-3.0802126275375485e-05,6.458948337240145e-05
-9.19474314287072e-06,-4.28690982516855e-05,3.2361000194214284e-05,6.238980131456628e-05,-3.1252890039468184e-05,-1.68731185112847e-05
-4.690782020588813e-07,-3.640471550170332e-05,3.659578942460939e-05,5.8090441598324105e-05,-3.125952571281232e-05,-8.754653390496969e-05
1.7613019736018032e-05,-3.330553590785712e-05,3.249930523452349e-05,4.767317295772955e-05,-2.725562262639869e-05,-0.00013831672549713403
3.8093290640972555e-05,-3.68571090803016e-05,2.6595595045364462e-05,3.593493966036476e-05,-2.461214899085462e-05,-0.00015578759484924376
4.669838017434813e-05,-4.078435085830279e-05,2.289736039529089e-05,2.9141945560695603e-05,-3.3545813494129106e-05,-0.00012588799290824682
4.1470033465884626e-05,-4.2170402593910694e-05,2.1959074729238637e-05,3.573909270926379e-05,-5.1028706366196275e-05,-6.299357482930645e-05
3.838232805719599e-05,-4.658885518438183e-05,2.5234674467355944e-05,4.731040098704398e-05,-6.672025483567268e-05,-1.4630291843786836e-05
4.6441691665677354e-05,-5.5727177823428065e-05,2.8907361411256716e-05,4.534803156275302e-05,-7.634177018189803e-05,-9.857903933152556e-07
5.0996746722375974e-05,-5.8621761127142236e-05,2.881052205339074e-05,3.1111689168028533e-05,-7.407549855997786e-05,-2.291705413881573e-06
3.3520133001729846e-05,-4.058605190948583e-05,2.820690679072868e-05,2.2021828044671565e-05,-5.7621593441581354e-05,2.7901101020688657e-06
-1.9297106064186664e-06,-5.874854196008528e-06,2.9429671485559084e-05,1.8367660231888294e-05,-3.466182533884421e-05,1.0388704140495975e-05
-2.202234281867277e-05,3.067057332373224e-05,2.7027846954297274e-05,1.359494672215078e-05,-1.1681255273288116e-05,1.723089735605754e-05
-5.8309001360612456e-06,6.343787390505895e-05,2.082691753457766e-05,1.0800727068271954e-05,1.572611290612258e-05,3.3242882636841387e-05
2.683925413293764e-05,7.225268200272694e-05,1.472701296734158e-05,7.88861871114932e-06,4.8534573579672724e-05,5.8365516451885924e-05
3.813980583800003e-05,3.8809343095635995e-05,8.217657523346134e-06,-1.916398332468816e-06,7.522516534663737e-05,7.163891132222489e-05
2.0607843907782808e-05,-3.83074366254732e-05,-2.0583279365382623e-06,-8.021397661650553e-06,8.327227988047525e-05,7.107578858267516e-05
5.150242486706702e-06,-0.00012664237874560058,-9.012753253045958e-06,-1.2970800526090898e-05,7.544674735981971e-05,5.99566446908284e-05
9.355189831694588e-06,-0.00010942263907054439,1.714188968549024e-08,-1.9962797523476183e-05,6.350383773678914e-05,6.462981400545686e-05
1.9613749827840365e-05,-3.262732207076624e-05,2.1376265067374334e-05,-1.562369470775593e-05,5.127443000674248e-05,0.00011228938092244789
2.4212671632994898e-05,-2.009592208196409e-05,4.168300802120939e-05,7.655589229216275e-07,4.047614129376598e-05,0.0001772631803760305
2.194517401221674e-05,-4.517224442679435e-05,5.641610187012702e-05,1.834516297094524e-05,3.28241876559332e-05,0.00022810620430391282
2.2598233044845983e-05,-7.096972694853321e-05,6.73880276735872e-05,3.3774140320019796e-05,2.719692565733567e-05,0.00026309132226742804
2.8524886147351936e-05,-7.75620574131608e-05,7.678644033148885e-05,4.838804670725949e-05,2.2568039639736526e-05,0.00028268585447221994
3.602503420552239e-05,-8.266990334959701e-05,7.729616481810808e-05,5.098608380649239e-05,1.672521830187179e-05,0.0002876405487768352
3.925801138393581e-05,-9.192436118610203e-05,6.375506200129166e-05,3.6297860788181424e-05,6.341541393339867e-06,0.0002742407377809286
3.580264819902368e-05,-9.391851926920936e-05,4.884182271780446e-05,2.4237533580162562e-05,-7.08802053850377e-06,0.00023403686645906419
2.8897189622512087e-05,-8.169729699147865e-05,4.427661042427644e-05,2.885775211325381e-05,-1.7422125893062912e-05,0.0001699056738289073
1.9817482098005712e-05,-9.623190271668136e-05,4.662304127123207e-05,2.776132350845728e-05,-2.5649524104665034e-05,9.828633483266458e-05
1.3639475582749583e-05,-0.00014333732542581856,4.3965981603832915e-05,-5.026657618145691e-06,-3.37630117428489e-05,3.8810743717476726e-05
1.0539099093875848e-05,-0.00016341712034773082,3.4563949157018214e-05,-5.1013321353821084e-05,-3.806676249951124e-05,2.0842228423134657e-06
9.730860256240703e-06,-0.00012313510524109006,2.6176548999501392e-05,-6.923538603587076e-05,-3.9390288293361664e-05,-2.7534233595361002e-05
9.026465704664588e-06,-6.510803359560668e-05,2.2689067918690853e-05,-4.64869081042707e-05,-4.587379589793272e-05,-6.98276053299196e-05
9.552749361319002e-06,-4.438769610715099e-05,2.2055837689549662e-05,-4.687864475272363e-06,-5.715422230423428e-05,-9.531935211271048e-05
1.2691183655988425e-05,-5.6219283578684554e-05,2.4594766728114337e-05,2.8253991331439465e-05,-6.293439219007269e-05,-6.852152000647038e-05
2.045801556960214e-05,-7.147143332986161e-05,3.121526970062405e-05,4.1979012166848406e-05,-5.828290886711329e-05,-8.770306521910243e-06
2.8143402232672088e-05,-7.240146078402176e-05,3.765729343285784e-05,4.520311995293014e-05,-4.6589560952270404e-05,3.013880086655263e-05
2.8205462513142265e-05,-6.906835187692195e-05,3.8737329305149615e-05,4.5675751607632264e-05,-3.334577559144236e-05,4.141228419030085e-05
2.3193762899609283e-05,-6.51780137559399e-05,3.383081275387667e-05,4.1726492781890556e-05,-2.1740923330071382e-05,5.39516331627965e-05
1.920369322760962e-05,-6.272998143685982e-05,2.4820934413583018e-05,3.35763834300451e-05,-1.1992023246421013e-05,6.194054003572091e-05
1.9025073925149627e-05,-5.80450396228116e-05,2.1002035282435827e-05,2.8708416721201502e-05,-2.7548362595553044e-06,5.064561264589429e-05
2.3152751964516938e-05,-5.428623626357876e-05,2.5987965273088776e-05,3.4814966056728736e-05,5.408094239101047e-06,3.646427330750157e-06
2.4949729777290486e-05,-4.70435043098405e-05,3.152733188471757e-05,4.657245153794065e-05,7.570741217932664e-06,-9.683473035693169e-05
2.2562431695405394e-05,-4.2910087358905e-05,3.157573883072473e-05,4.642127169063315e-05,2.8579238460224587e-06,-0.00017044517153408378
1.784011874406133e-05,-4.354497650638223e-05,2.8911788831464946e-05,2.314065204700455e-05,-2.9617817745020147e-06,-0.00010674852092051879
1.0426226253912318e-05,-5.180439256946556e-05,2.689327629923355e-05,5.492881427926477e-06,-5.078054073237581e-06,2.3415390387526713e-05
9.417100045538973e-06,-5.934706859989092e-05,2.6030256776721217e-05,8.393275493290275e-06,3.799655701186566e-07,9.531179966870695e-05
1.5875892131589353e-05,-6.096188735682517e-05,2.6076528229168616e-05,8.327780960826203e-06,1.0707845831348095e-05,0.0001090370788006112
2.1124915292602964e-05,-6.111070251790807e-05,2.4723911337787285e-05,-9.28679401113186e-06,1.8902916053775698e-05,0.00010427943198010325
2.1773763364763e-05,-6.271101301535964e-05,2.4507942725904286e-05,-2.9074959456920624e-05,1.646628516027704e-05,0.00012384579167701304
2.1407928215921856e-05,-6.0749818658223376e-05,2.4514605684089474e-05,-2.172989843529649e-05,5.788016096630599e-06,0.000161224597832188
1.9807486751233228e-05,-4.692135189543478e-05,2.3212569431052543e-05,3.256805712226196e-06,-3.865039161610184e-06,0.0001825098297558725
1.786356915545184e-05,-2.7107233108836226e-05,1.8771712348097935e-05,2.5296276362496428e-05,-9.14431075216271e-06,0.0001757445716066286
1.555769267724827e-05,-1.2163203791715205e-05,1.3949952517577913e-05,5.455013524624519e-05,-9.404551747138612e-06,0.000143192577525042
1.2556914953165688e-05,-1.19011656352086e-05,1.2643819900404196e-05,9.585951193002984e-05,-8.736398740438744e-06,9.463966125622392e-05
1.0042829671874642e-05,-2.902943560911808e-05,1.527419954072684e-05,0.00012597921886481345,-1.0399589882581495e-05,4.848726894124411e-05
9.679321919975337e-06,-5.96131467318628e-05,2.1405670850072056e-05,0.00012955095735378563,-1.6961201254162006e-05,3.123495844192803e-05
1.0436569937155582e-05,-8.426722342846915e-05,2.779496935545467e-05,0.00012004438758594915,-2.2848607841297053e-05,3.9500628190580755e-05
9.685568329587113e-06,-8.17200998426415e-05,3.49739239027258e-05,0.00011923371494049206,-2.13956900552148e-05,4.788300793734379e-05
7.763557732687332e-06,-5.582247467827983e-05,4.433104913914576e-05,0.00012481107842177153,-1.6432000847999007e-05,5.23683920619078e-05
7.580631063319743e-06,-3.715614366228692e-05,5.285665247356519e-05,0.00012008977500954643,-1.6034126019803807e-05,7.453892612829804e-05
1.2577730558405165e-05,-3.982819180237129e-05,5.176285048946738e-05,9.145142394118011e-05,-2.1028208720963448e-05,0.00010866484080906957
1.9223769413656555e-05,-3.488029324216768e-05,3.802257924689911e-05,4.019351035822183e-05,-2.6568028260953724e-05,0.00011963358701905236
2.335189128643833e-05,-1.9835360944853164e-06,2.4893475710996427e-05,-1.4495291907223873e-05,-2.8612477763090283e-05,9.497403516434133e-05
2.354815114813391e-05,1.401063764205901e-05,2.8578666388057172e-05,-5.216023055254482e-05,-2.390501140325796e-05,6.597710307687521e-05
2.270286131533794e-05,-1.9521216017892584e-05,4.401597834657878e-05,-6.490470696007833e-05,-1.7532567653688602e-05,6.222640513442457e-05
2.164930810977239e-05,-6.336646765703335e-05,5.4255193390417844e-05,-5.2568426326615736e-05,-1.4210542758519296e-05,7.366840145550668e-05
2.3067794245434925e-05,-6.842709990451112e-05,5.219116064836271e-05,-1.3524153473554179e-05,-8.877541404217482e-06,5.545706153498031e-05
2.7489031708682887e-05,-4.723388337879442e-05,4.085940236109309e-05,5.027021688874811e-05,-9.4634879133082e-07,5.4352631195797585e-06
2.9060929591651075e-05,-5.1094353693770245e-05,2.679941098904237e-05,0.0001216080563608557,3.740260353879421e-06,-4.9586280510993674e-05
2.745155325101223e-05,-8.74601537361741e-05,1.7543772628414445e-05,0.0001669783378019929,3.3398528103134595e-06,-9.71622284851037e-05
2.2957445253268816e-05,-0.00013469054829329252,1.1021243153663818e-05,0.00018080015433952212,-6.945435302441183e-07,-8.928882743930444e-05
1.932487248268444e-05,-0.00015506433555856347,3.521623511915095e-06,0.00016834228881634772,-4.315825208323076e-06,-1.564843114465475e-05
2.1759182345704176e-05,-0.00011098816321464255,-4.917218575428706e-06,0.0001275022077606991,-1.1003988220181782e-05,6.765247962903231e-05
2.6179744963883422e-05,-2.8420434318832122e-05,-7.719791028648615e-06,8.04520896053873e-05,-1.611857624084223e-05,0.00014346202078741044
2.4753901016083546e-05,3.182287036906928e-05,1.0861836926778778e-05,9.437047992832959e-05,-1.164288096333621e-05,0.00019128875283058733
2.2558724595000967e-05,1.5468307537958026e-05,4.409410757943988e-05,0.0001565548445796594,-3.8224657146201935e-06,0.00017746169760357589
2.6702442482928745e-05,-3.9836759242461994e-05,6.643189408350736e-05,0.00016315341053996235,1.2762774304064806e-06,0.00011897191870957613
3.534862116794102e-05,-6.401690188795328e-05,6.849922647234052e-05,9.40354511840269e-05,2.375970780121861e-06,5.8590812841430306e-05
4.557457214104943e-05,-4.9461090384284034e-05,6.0834005125798285e-05,-2.1304488200257765e-06,3.1333911465480924e-06,1.8370303223491646e-05
5.178764695301652e-05,-2.932160350610502e-05,4.9790087359724566e-05,-7.9201468906831e-05,1.668175173108466e-06,-3.171904609189369e-05
5.122091170051135e-05,-1.4969995390856639e-05,3.695040140883066e-05,-0.00011598556739045307,-3.446587925282074e-06,-0.00010047946125268936
4.7541092499159276e-05,1.0801775715663098e-05,3.1335333915194497e-05,-0.00011081064440077171,-6.36591539660003e-06,-0.00011482168338261545
4.443322177394293e-05,3.8618618418695405e-05,3.495861528790556e-05,-8.427553984802216e-05,-3.705798235387192e-06,-3.1175870390143245e-05
4.2146595660597086e-05,4.17732480855193e-05,3.962764094467275e-05,-6.72409005346708e-05,1.64110929290473e-06,9.529066301183775e-05
4.055414683534764e-05,1.9749470084207132e-05,3.971900878241286e-05,-6.840951391495764e-05,3.2818813906487776e-06,0.00019294022058602422
3.6792942410102114e-05,-9.045824640452338e-07,3.861000368488021e-05,-6.798162939958274e-05,2.4998951175803086e-07,0.00023074477212503552
3.2185685995500535e-05,-1.3372477042139508e-05,4.199490285827778e-05,-5.4333762818714604e-05,-4.1999387576652225e-06,0.00022125594841782004
2.97935948765371e-05,-2.4446942916256376e-05,4.7534787881886587e-05,-4.022684879601002e-05,-6.457946710725082e-06,0.00019113825692329556
2.8572414521477185e-05,-3.697603096952662e-05,4.8117733967956156e-05,-3.187594484188594e-05,-7.422812359436648e-06,0.00015135796274989843
2.5027606170624495e-05,-4.743144381791353e-05,4.247516335453838e-05,-1.990148302866146e-05,-7.587545951537322e-06,9.51607507886365e-05
1.9048027752432972e-05,-5.212820542510599e-05,3.890366497216746e-05,6.36883396509802e-06,-7.801868378010113e-06,1.4441391613218002e-05
1.0179185665037949e-05,-4.988992077414878e-05,3.9077447581803426e-05,2.9673095923499204e-05,-1.1810462638095487e-05,-8.40232169139199e-05
-1.30725663893827e-06,-4.826482472708449e-05,3.4654101909836754e-05,2.08572564588394e-05,-1.971953133761417e-05,-0.0001733716344460845
-8.375139259442221e-06,-4.856972009292804e-05,2.4764211048022844e-05,-1.7029084119712934e-05,-2.643945481395349e-05,-0.0002172605600208044
-7.738352906017099e-06,-5.2262257668189704e-05,1.688995871518273e-05,-5.427102587418631e-05,-2.9955201171105728e-05,-0.00015170610276982188
-4.805131993634859e-06,-5.9101443184772506e-05,1.425308710167883e-05,-8.171761146513745e-05,-3.2944433769444004e-05,1.6191268514376134e-05
-4.9246127673541196e-06,-6.15585595369339e-05,1.2095340935047716e-05,-0.00010452418791828677,-3.5976139770355076e-05,0.00016918206529226154
-1.9680380773934303e-06,-5.9894478908972815e-05,1.2030523976136465e-05,-0.00011660085874609649,-3.7930287362542003e-05,0.00023704816703684628
9.966471225197893e-06,-5.686552685801871e-05,1.5513320249738172e-05,-9.267915447708219e-05,-3.18538150168024e-05,0.0002306273381691426
2.4484830646542832e-05,-5.37356645509135e-05,1.8011958673014306e-05,-3.514524723868817e-05,-2.173903885704931e-05,0.00017038463556673378
3.4308239264646545e-05,-5.0988950533792377e-05,1.7622018276597373e-05,2.3235315893543884e-05,-1.8098233340424486e-05,5.5837230320321396e-05
3.772115087485872e-05,-5.235853313934058e-05,1.122611229220638e-05,6.287117867032066e-05,-2.2724880182067864e-05,-5.34260252607055e-05
3.781880150199868e-05,-6.805630982853472e-05,4.063162123202346e-06,8.783387602306902e-05,-2.5491279302514158e-05,-9.009893256006762e-05
3.75831441488117e-05,-7.188938616309315e-05,7.1115969149104785e-06,0.00011306950909784064,-2.2566520783584565e-05,-7.988286961335689e-05
3.288797597633675e-05,-4.29929859819822e-05,2.13810180866858e-05,0.00012924475595355034,-1.5957730283844285e-05,-5.3367817599792033e-05
2.584379762993194e-05,-2.0766217858181335e-05,3.612785803852603e-05,0.00012449212954379618,-5.391329978010617e-06,1.9182361938874237e-06
2.1913827367825434e-05,-3.6256693420000374e-05,4.4960961531614885e-05,0.00010324666800443083,1.3966516689833952e-06,7.076025212882087e-05
1.9535986211849377e-05,-7.238985563162714e-05,4.735936090582982e-05,7.786992500768974e-05,3.4810032047971617e-06,0.00011120096314698458
1.6176325516426004e-05,-9.371160558657721e-05,4.474880552152172e-05,4.9090758693637326e-05,2.5614010610297555e-06,0.00012143849016865715
1.2531970241980162e-05,-9.01682797120884e-05,4.035251185996458e-05,2.6414931198814884e-05,1.1414490472816397e-06,0.00012848380720242858
1.038613208947936e-05,-7.32401676941663e-05,3.66301646863576e-05,1.8553850168245845e-05,-2.1654948341165436e-06,0.0001459194754716009
1.1523027751536574e-05,-6.036172271706164e-05,3.4334807423874736e-05,1.5594634533044882e-05,-5.019800482841674e-06,0.00015343385166488588
1.4834139619779307e-05,-5.9724505263147876e-05,3.5151260817656294e-05,7.120583632058697e-06,-5.257385055301711e-06,0.00012008322664769366
2.015898826357443e-05,-6.64052422507666e-05,3.9902693970361724e-05,-8.892735081644787e-07,-3.8862021938257385e-06,3.862307494273409e-05
2.5630533855292015e-05,-7.075136818457395e-05,4.612379052559845e-05,5.502457952388795e-06,-4.556608928396599e-06,-3.1439936719834805e-05
2.7480458811623976e-05,-6.655107426922768e-05,4.898251427221112e-05,3.0491219149553217e-05,-8.913636520446744e-06,-2.092879185511265e-06
2.541025787650142e-05,-5.3104875405551866e-05,4.703634840552695e-05,6.686129199806601e-05,-1.2416138815751765e-05,0.00011787949915742502
2.13825060200179e-05,-3.831735375570133e-05,4.271326542948373e-05,8.847012941259891e-05,-1.0340567314415239e-05,0.0002245322975795716
1.9281640561530367e-05,-3.388650657143444e-05,3.642187948571518e-05,7.37922455300577e-05,-4.956252723786747e-06,0.0002537724212743342
2.133622911060229e-05,-3.870937507599592e-05,3.062669566133991e-05,3.2684783946024254e-05,-3.987117906945059e-06,0.0002145679172826931
2.3702834369032644e-05,-4.9163489165948704e-05,2.622063402668573e-05,4.998492840968538e-06,-5.4402216846938245e-06,0.00013919401681050658
2.3492246327805333e-05,-6.415502139134333e-05,2.7357977160136215e-05,2.645303902681917e-05,-4.408474978845334e-06,6.0560145357158035e-05
2.5349245333927684e-05,-8.005489507922903e-05,3.8282552850432694e-05,8.512971544405445e-05,3.596281885620556e-06,-1.2390536539896857e-05
2.8452968763303943e-05,-8.660765888635069e-05,5.0734470278257504e-05,0.00013029352703597397,1.0314694009139203e-05,-6.919011502759531e-05
2.5452700356254354e-05,-7.911439752206206e-05,4.6153556468198076e-05,0.00012992833217140287,3.3163178159156814e-06,-9.397586109116673e-05
1.629915277590044e-05,-5.974696978228167e-05,2.6232379241264425e-05,8.409470319747925e-05,-1.1538732906046789e-05,-7.782335160300136e-05
8.34042475617025e-06,-4.274840102880262e-05,9.792624950932804e-06,1.657651773712132e-05,-2.3959944883245043e-05,-3.9558883145218715e-05
7.901345270511229e-06,-4.422673009685241e-05,3.832442416751292e-06,-3.9354035834548995e-05,-2.7535435947356746e-05,-1.8029728380497545e-05
1.408273874403676e-05,-5.414025145000778e-05,1.1010457455995493e-05,-5.736572711612098e-05,-2.0643612515414134e-05,-2.0143883375567384e-05
1.6595397028140724e-05,-5.9574223996605724e-05,2.439907257212326e-05,-3.675509651657194e-05,-1.1206290764675941e-05,-3.55308766302187e-05
9.954888810170814e-06,-5.6808468798408285e-05,3.535832365741953e-05,4.538271696219454e-06,-3.460537072896841e-06,-4.186301157460548e-05
1.123003926295496e-06,-5.307335595716722e-05,4.1542556573404e-05,4.190979598206468e-05,-1.4213427448339644e-06,-1.7327320165350102e-05
-2.8171959911560407e-06,-4.9611146096140146e-05,3.828452099696733e-05,6.368227332131937e-05,-2.385431344009703e-06,3.193613883922808e-05
2.6086049729201477e-06,-4.761596937896684e-05,3.057748472201638e-05,7.221863779705018e-05,-3.4366248655715026e-06,9.512614633422345e-05
1.4967611605243292e-05,-4.802204421139322e-05,2.3844204406486824e-05,7.176419603638351e-05,-4.063444521307247e-06,0.00019251792400609702
2.6996154701919295e-05,-4.9044629122363403e-05,2.0059183952980675e-05,6.662631494691595e-05,-4.528192221187055e-06,0.0003077902947552502
3.538066448527388e-05,-5.2280858653830364e-05,1.9645991415018216e-05,5.6882985518313944e-05,-3.447796416367055e-06,0.0003913181717507541
4.043994704261422e-05,-5.480239269672893e-05,2.041298102994915e-05,4.779631126439199e-05,-3.3191372494911775e-07,0.0004110787995159626
4.8716567107476294e-05,-5.53440440853592e-05,2.166467675124295e-05,5.14040220878087e-05,2.0210377442708705e-06,0.0003573527210392058
6.06436951784417e-05,-5.257767770672217e-05,2.5836663553491235e-05,7.333388202823699e-05,2.8717231543851085e-06,0.0002491293998900801
6.873125676065683e-05,-5.0857895985245705e-05,3.388294135220349e-05,9.760726970853284e-05,2.717118377404404e-06,0.00010771266533993185
6.870711513329297e-05,-5.353545202524401e-05,4.103584433323704e-05,0.00010696353274397552,4.239942370531935e-07,-2.4993514671223238e-05
6.257798668229952e-05,-5.941087147220969e-05,4.3573963921517134e-05,9.699314250610769e-05,-5.071546638646396e-06,-8.27197145554237e-05
5.1509337936295196e-05,-5.7179848226951435e-05,4.204304059385322e-05,7.545814150944352e-05,-8.82423591974657e-06,-3.9710641431156546e-05
3.734145866474137e-05,-3.491913230391219e-05,3.952785118599422e-05,5.343409429769963e-05,-1.3030617083131801e-05,4.143601836403832e-05
2.2417194486479275e-05,8.594734936195891e-06,3.762348569580354e-05,4.602634362527169e-05,-2.589562427601777e-05,6.337154627544805e-05
1.0057815416075755e-05,5.157298073754646e-05,3.64724182873033e-05,5.9249225159874186e-05,-4.7269935748772696e-05,-1.3110989129927475e-05
8.645313755550887e-06,4.974071998731233e-05,3.1983403459889814e-05,7.739385182503611e-05,-6.708170258207247e-05,-9.440975554753095e-05
1.7408754501957446e-05,-1.8693424863158725e-05,2.4739454602240585e-05,8.690793765708804e-05,-7.760136213619262e-05,-8.667060319567099e-05
2.163321005355101e-05,-0.00010443197970744222,2.4909089916036464e-05,8.647350477986038e-05,-7.998703949851915e-05,-3.81971440219786e-05
1.6364037946914323e-05,-0.0001477176701882854,2.914847937063314e-05,6.739018863299862e-05,-7.88811594247818e-05,1.1605971849348862e-05
2.0737750674015842e-05,-0.00012660650827456266,2.8108264814363793e-05,2.2378962967195548e-05,-6.650410796282813e-05,0.0001173465425381437
3.8558413507416844e-05,-6.335913349175826e-05,2.544124799896963e-05,-1.0434197065478656e-05,-4.121476013096981e-05,0.00025384352193214
4.595820792019367e-05,-1.8427372197038494e-05,2.1862191715626977e-05,-2.084767766064033e-05,-1.4596760593121871e-05,0.00031601754017174244
3.8727310311514884e-05,-3.457728962530382e-05,1.5224462913465686e-05,-4.314451143727638e-05,9.676339686848223e-06,0.00024561729514971375
3.6402936530066654e-05,-9.632221917854622e-05,7.957253728818614e-06,-6.458872667280957e-05,3.330726394779049e-05,0.00011238617298658937
4.6018085413379595e-05,-9.716697968542576e-05,1.3141490853740834e-05,-6.651313742622733e-05,5.429244629340246e-05,3.746367656276561e-05
4.94525047542993e-05,-2.6695186534198e-05,2.9906030249549076e-05,-5.1595427066786215e-05,7.05486090737395e-05,-8.421863640251104e-06
3.412606383790262e-05,8.876660103851464e-06,4.3513195123523474e-05,-4.045595051138662e-05,7.413106504827738e-05,-0.00010390170791652054
7.183407888078364e-06,-1.659089684835635e-05,4.819419700652361e-05,-4.5500662963604555e-05,6.290704914135858e-05,-0.00023146887542679906
-1.0059242413262837e-05,-5.654630876961164e-05,4.412055932334624e-05,-5.476944716065191e-05,4.446754610398784e-05,-0.0003253099275752902
-4.287320734874811e-06,-7.276912947418168e-05,3.6365985579323024e-05,-5.2314931963337585e-05,2.614966251712758e-05,-0.00034041565959341824
9.43956729315687e-06,-8.084338332992047e-05,2.8625145205296576e-05,-3.5322620533406734e-05,1.1214401638426352e-05,-0.0002820066874846816
1.250861259904923e-05,-9.358379611512646e-05,2.7196887458558194e-05,-5.2510226851154584e-06,-1.01198463653418e-06,-0.00019127542327623814
2.2386318505596137e-06,-0.00010017762542702258,3.117814048891887e-05,3.963703420595266e-05,-9.939249139279127e-06,-9.609272819943726e-05
-9.013182534545194e-06,-8.538307884009555e-05,3.635452958405949e-05,8.382034138776362e-05,-1.534436160000041e-05,-5.702563612430822e-06
-1.2683406566793565e-05,-6.239210051717237e-05,3.877689960063435e-05,9.558997408021241e-05,-1.7711125110508874e-05,6.551611295435578e-05
-6.546392341988394e-06,-5.532465729629621e-05,3.8865448004798964e-05,6.003997987136245e-05,-1.8211239876109175e-05,0.00010213154018856585
2.3052666620060336e-06,-6.476748239947483e-05,4.137050564168021e-05,6.732454494340345e-06,-1.6652616977808066e-05,0.00010716083488659933
3.569256705304724e-06,-7.413175626425073e-05,4.761358650284819e-05,-1.6769598005339503e-05,-1.622880699869711e-05,0.00010701148130465299
-4.924469976685941e-06,-7.077840564306825e-05,5.1657058065757155e-05,4.827186785405502e-06,-1.9237175365560688e-05,0.00012350430188234895
-1.3371312888921238e-05,-5.605045225820504e-05,4.673403236665763e-05,3.667019336717203e-05,-2.3347090973402373e-05,0.0001592335756868124
-1.242061443917919e-05,-3.8665053580189124e-05,3.660314905573614e-05,4.787389116245322e-05,-2.3920236344565637e-05,0.00019175306078977883
-9.477203093410935e-07,-3.0112258173176087e-05,3.122329508187249e-05,4.785904093296267e-05,-1.972643622139003e-05,0.00016725818568374962
1.6161673556780443e-05,-2.8404452677932568e-05,3.5146691516274586e-05,5.8028184866998345e-05,-1.6946582036325708e-05,8.037783118197694e-05
2.9391620046226308e-05,-2.581562330306042e-05,4.201928459224291e-05,6.515860877698287e-05,-1.8709875803324394e-05,2.191568273701705e-05
3.726442082552239e-05,-2.7898147891392e-05,4.4253578380448744e-05,5.2838946430711076e-05,-2.2530841306434013e-05,3.246941923862323e-05
4.3491152609931305e-05,-4.21819495386444e-05,4.092844756087288e-05,3.949563324567862e-05,-2.8068674509995617e-05,5.603745739790611e-05
5.301089186104946e-05,-4.426027226145379e-05,3.4042233892250806e-05,5.717265230487101e-05,-3.123129135929048e-05,5.3350264352047816e-05
5.574930037255399e-05,-2.950515590782743e-05,2.9228971470729448e-05,7.452218414982781e-05,-2.8443913834053092e-05,3.3438838727306575e-05
3.955489955842495e-05,-1.9243030692450702e-05,2.6138835892197676e-05,3.753210694412701e-05,-3.1218089134199545e-05,4.3897696741623804e-05
1.7467276848037727e-05,-5.193525794311427e-06,2.4665918317623436e-05,-4.258359240338905e-06,-3.743384513654746e-05,8.615818660473451e-05
6.410146397684002e-06,8.681594408699311e-06,3.000000651809387e-05,1.0988482245011255e-05,-3.508974623400718e-05,0.000116057759441901
9.300221790908836e-06,-6.263652721827384e-06,3.5594614018918946e-05,5.8249017456546426e-05,-2.7265028620604426e-05,0.00011373715824447572
1.7740447219694033e-05,-4.446379534783773e-05,3.933656989829615e-05,7.920939970063046e-05,-2.2183363398653455e-05,8.770326530793682e-05
2.199334994656965e-05,-8.50378128234297e-05,3.798036414082162e-05,5.0338923756498843e-05,-2.250910984002985e-05,6.706896965624765e-05
2.119607597705908e-05,-8.784024976193905e-05,3.376037784619257e-05,-3.427767296670936e-06,-2.3337632228503935e-05,6.398600089596584e-05
1.8534859918872826e-05,-5.037461232859641e-05,3.37200217472855e-05,-4.7957881179172546e-05,-2.2443875423050486e-05,6.23384621576406e-05
1.577722650836222e-05,-2.49717959377449e-05,4.155888018431142e-05,-6.96904317010194e-05,-1.785690437827725e-05,4.2264018702553585e-05
1.4428953363676555e-05,-3.8210273487493396e-05,5.3281954023987055e-05,-7.361925236182287e-05,-1.3964244317321572e-05,3.202421066816896e-05
1.505878935859073e-05,-6.613782170461491e-05,6.0084152210038155e-05,-5.8596895541995764e-05,-9.78014122665627e-06,6.809557089582086e-05
1.8788972738548182e-05,-7.650056068086997e-05,5.570495341089554e-05,-3.243936225771904e-05,-5.462818080559373e-06,0.00014094037760514766
2.11655624298146e-05,-6.670991569990292e-05,4.220175469527021e-05,-1.2870909813500475e-05,-4.031504886370385e-06,0.00019812410755548626
1.9091714420937933e-05,-5.285150109557435e-05,2.8065574952051975e-05,-2.5517433641653042e-06,-7.1832359935797285e-06,0.00021273276070132852
1.827277992560994e-05,-4.888171315542422e-05,2.1184863726375625e-05,1.2894267456431407e-05,-1.0624797141645104e-05,0.00021331933385226876
1.8964587070513517e-05,-5.384552787290886e-05,2.3686208805884235e-05,3.803067374974489e-05,-1.1044083294109441e-05,0.00022108280973043293
1.858622272266075e-05,-6.137950549600646e-05,3.055819252040237e-05,5.759239866165444e-05,-1.0746454790933058e-05,0.00023137941025197506
1.880238596640993e-05,-6.479151488747448e-05,3.575389928300865e-05,6.803093128837645e-05,-9.915864211507142e-06,0.000244834489421919
2.2311873181024566e-05,-6.38281344436109e-05,3.6677232856163755e-05,8.278164023067802e-05,-1.0000074325944297e-05,0.00026550900656729937
2.488318750692997e-05,-5.946457531535998e-05,3.4890159440692514e-05,9.96652088360861e-05,-7.52686310079298e-06,0.00026611879002302885
2.5261095288442448e-05,-5.205902562011033e-05,3.2782532798592e-05,0.0001085074691218324,-7.421910481753002e-07,0.0002266539668198675
3.350467886775732e-05,-4.104419713257812e-05,3.757246304303408e-05,0.00011992095824098215,7.685580385441426e-06,0.00017179030692204833
5.1398059440543875e-05,-3.24893590004649e-05,4.2960033169947565e-05,0.00013022607890889049,1.2458353012334555e-05,0.00010135782940778881
6.22470979578793e-05,-3.3590797102078795e-05,3.5790333640761673e-05,0.00010993854812113568,8.795186658971943e-06,-1.9159127987222746e-05
6.135925650596619e-05,-4.6339504478964955e-05,1.7316398952971213e-05,5.411658639786765e-05,-4.748626906803111e-06,-0.0001385437062708661
5.541758946492337e-05,-6.287056748988107e-05,-7.495312388527964e-07,7.052036380628124e-06,-1.661219539528247e-05,-0.0001709482748992741
4.970292866346426e-05,-6.269080768106505e-05,-6.13205338595435e-06,1.1050430657633115e-05,-1.3691295862372499e-05,-0.00010763994214357808
4.5516473619500175e-05,-4.949765934725292e-05,-9.638737310524448e-07,3.6895689845550805e-05,-6.195307832967956e-06,3.01939326163847e-06
4.170935426373035e-05,-3.9003443816909567e-05,3.131662197120022e-06,3.983506030635908e-05,-9.609322660253383e-06,0.0001163768902188167
3.9585891499882564e-05,-3.093126724706963e-05,2.584087269497104e-06,2.9527016522479244e-05,-2.0937304725521244e-05,0.00018544877821113914
3.3366672141710296e-05,-2.152040360670071e-05,1.7397675264874124e-06,2.7501137083163485e-05,-2.9377953978837468e-05,0.00017046653374563903
2.299364859936759e-05,-3.03528577205725e-06,5.626107849820983e-06,3.515505522955209e-05,-2.814994331856724e-05,8.719486504560336e-05
1.0784290680021513e-05,9.984963980969042e-06,5.6348681027884595e-06,3.212719821021892e-05,-2.19998892134754e-05,-1.7607193512958474e-05
8.02276008471381e-06,-3.057685944440891e-06,-7.219397843982733e-07,1.11925210148911e-05,-1.4954724974813871e-05,-0.00011214545520488173
1.6517162293894216e-05,-3.768656824831851e-05,-8.875713319866918e-06,-1.0635659236868378e-05,-1.064204207068542e-05,-0.0002007506409427151
2.1699284843634814e-05,-5.449554737424478e-05,-8.698166311660316e-06,-9.587541171640623e-06,-5.893268280487973e-06,-0.0002647167129907757
1.642050119698979e-05,-4.958741192240268e-05,4.175018602836644e-06,1.357822293357458e-05,-3.9051070643836283e-07,-0.0002640359743963927
3.9771189221937675e-06,-5.417193460743874e-05,2.7421381673775613e-05,5.3669897170038894e-05,2.9850991722923936e-06,-0.00020171150390524417
-3.7614224766002735e-06,-6.742647383362055e-05,5.4860476666362956e-05,0.00010631653276504949,4.317347702453844e-06,-0.00013628150918520987
-2.2675926629744936e-06,-7.162730616983026e-05,7.689861377002671e-05,0.0001590619795024395,6.502922133222455e-06,-0.000122845231089741
6.876799488964025e-06,-7.561060920124874e-05,8.517617970937863e-05,0.00019319431157782674,9.883143320621457e-06,-0.00014860215014778078
2.015772224694956e-05,-9.467108611715958e-05,7.611976616317406e-05,0.00018974285922013223,1.1648254258034285e-05,-0.0001386375806760043
3.699135413626209e-05,-0.00010841058247024193,5.821758895763196e-05,0.00014213111717253923,1.1959889889112674e-05,-4.7001929488033056e-05
5.202980537433177e-05,-9.801093983696774e-05,4.292287485441193e-05,5.942125790170394e-05,1.1773397091019433e-05,7.867231761338189e-05
5.6875367590691894e-05,-8.159440039889887e-05,3.359617039677687e-05,-2.9785178412566893e-05,1.0292102160747163e-05,0.00016169282025657594
5.023365156375803e-05,-9.0503875981085e-05,2.558781488914974e-05,-9.935256821336225e-05,4.628147962648654e-06,0.0001945544790942222
4.220343544147909e-05,-0.00012819879339076579,1.7999922420131043e-05,-0.0001332362589892,-4.2636711441446096e-06,0.00020903002587147057
3.7212354072835296e-05,-0.00017308976384811103,1.1164278475916944e-05,-0.00013254563964437693,-1.5421146599692293e-05,0.000196926761418581
2.233599116152618e-05,-0.00018815670046024024,1.2574805623444263e-05,-0.00010897520405706018,-2.0857911295024678e-05,0.0001512363087385893
-9.923853212967515e-06,-0.00015299221558962017,2.350904469494708e-05,-7.871464913478121e-05,-1.9323793821968138e-05,0.0001116851854021661
-4.38320312241558e-05,-6.0107056924607605e-05,3.667816417873837e-05,-5.590888758888468e-05,-1.8274200556334108e-05,0.00010870042751776055
-4.938921847497113e-05,7.371976971626282e-05,4.462250944925472e-05,-4.465628808247857e-05,-1.8006645404966548e-05,0.00012661008804570884
-2.4445433155051433e-05,0.00016740938008297235,4.701624857261777e-05,-3.162285065627657e-05,-1.4447322428168263e-05,0.00016124245303217322
-5.200068699195981e-06,0.00014246744103729725,4.587602961692028e-05,-2.197039748352836e-06,-1.0212117558694445e-05,0.00019912718562409282
-2.6983200314134592e-06,4.9798822146840394e-05,4.498467387747951e-05,4.542446549749002e-05,-8.424222869507503e-06,0.0001882390060927719
3.470454998932837e-07,-9.878356650006026e-06,3.482246393105015e-05,9.517689613858238e-05,-9.485629561822861e-06,0.00013179499364923686
5.114253781357547e-06,-2.8533483487080957e-07,1.534904913569335e-05,0.00012739733210764825,-1.0777816896734294e-05,7.956338959047571e-05
7.358955372183118e-06,3.3577274734852836e-05,5.775085355708143e-06,0.00012783815327566117,-7.391020517388824e-06,5.542177677853033e-05
5.6665944612177555e-06,3.549033863237128e-05,1.0882159585889895e-05,9.459180728299543e-05,-8.028292199924181e-07,6.994442810537294e-05
8.413319847022649e-06,-1.908768126668292e-06,2.0841745936195366e-05,4.4115487980889156e-05,2.345440634599072e-06,0.00010653806384652853
1.8803881175699644e-05,-6.955945718800649e-05,1.9838556909235194e-05,-9.558376632412546e-07,1.85688327292155e-06,0.00014789470878895372
2.9506709324778058e-05,-9.605506056686863e-05,1.0657694474502932e-05,-2.9398350307019427e-05,-2.5580061446817126e-06,0.00017407660197932273
3.239206853322685e-05,-5.8162717323284596e-05,1.1368534615030512e-05,-3.808264955296181e-05,-8.2205133367097e-06,0.00016237144882325083
2.958533150376752e-05,-2.9827044272678904e-05,2.8643895348068327e-05,-2.4866518288035877e-05,-1.2476649317250121e-05,0.00010982721141772345
2.6305822757421993e-05,-5.078188405605033e-05,5.110908023198135e-05,3.276560391896055e-06,-1.4925728464731947e-05,4.436034942045808e-05
2.296563434356358e-05,-8.905069989850745e-05,6.495237175840884e-05,3.0969473300501704e-05,-1.679334309301339e-05,1.3815697457175702e-06
1.9972980226157233e-05,-0.00010104884131578729,6.482115713879466e-05,5.406535274232738e-05,-1.883660297608003e-05,-1.7685833881841972e-05
1.824047285481356e-05,-8.60933942021802e-05,5.5752068874426186e-05,7.432816346408799e-05,-2.0522358681773767e-05,-3.069878221140243e-05
1.940613947226666e-05,-6.528310041176155e-05,4.5145930926082656e-05,9.166070958599448e-05,-2.333931297471281e-05,-3.869160354952328e-05
2.157610288122669e-05,-4.950214861310087e-05,3.867136183544062e-05,0.00010853019921341911,-2.6235549739794806e-05,-2.932067945948802e-05
2.2938762413104996e-05,-3.100116009591147e-05,3.8715050322934985e-05,0.0001183340500574559,-2.5152299713226967e-05,-2.743089680734556e-06
2.20234869630076e-05,-1.1141152754134964e-05,3.985243529314175e-05,0.00011034451017621905,-1.9707369574462064e-05,3.101502807112411e-05
1.8221957361674868e-05,-3.5468756323098205e-06,3.7608315324177966e-05,8.929539762903005e-05,-1.6801599485916086e-05,4.813753912458196e-05
1.525076550024096e-05,-1.857007373473607e-05,3.2248393836198375e-05,6.675082840956748e-05,-1.8659084162209183e-05,4.382617407827638e-05
1.8166552763432264e-05,-5.726815652451478e-05,2.53973212238634e-05,4.339661245467141e-05,-2.3373007934424095e-05,3.9121630834415555e-05
2.5373003154527396e-05,-0.00010924634261755273,2.2858679585624486e-05,1.576547401782591e-05,-2.6895608243648894e-05,4.5987024350324646e-05
3.1452043913304806e-05,-0.00015204501687549055,2.0566978491842747e-05,-2.205055352533236e-05,-2.9413409720291384e-05,5.0926206313306466e-05
3.5002540244022384e-05,-0.00016227108426392078,1.620635339349974e-05,-6.143603968666866e-05,-2.7899801352759823e-05,4.792580148205161e-05
3.670055957627483e-05,-0.0001430235424777493,2.039636456174776e-05,-8.076683297986165e-05,-1.75464174390072e-05,5.618447175947949e-05
3.392041980987415e-05,-0.00011312000424368307,3.3852949854917824e-05,-6.178397597977892e-05,-8.904758033168036e-06,7.604659913340583e-05
2.6353407520218752e-05,-7.556057971669361e-05,4.306456321501173e-05,-2.1545238269027323e-05,-6.091541308705928e-06,0.00010005473450291902
1.9176892237737775e-05,-2.7310052246320993e-05,4.349246228230186e-05,1.0393398042651825e-05,-7.040028435767454e-07,0.0001345764030702412
1.5788142263772897e-05,3.385240461284411e-06,4.7045563405845314e-05,2.736388887569774e-05,5.876926024939166e-06,0.00015852453361731023
1.1484665265015792e-05,-3.152086264890386e-06,5.3488038247451186e-05,2.8308686523814686e-05,1.1710472790582571e-05,0.000161930060130544
9.235905963578261e-06,-2.2949738195165992e-05,5.790809154859744e-05,1.5216769497783389e-05,1.6649435565341264e-05,0.00017190989456139505
1.4086834198678844e-05,-3.888390710926615e-05,5.7231834944104776e-05,-1.2177593816886656e-05,1.9464470824459568e-05,0.00018901297880802304
2.3194934328785166e-05,-4.2604027839843184e-05,5.130290082888678e-05,-4.365777567727491e-05,1.7218157154275104e-05,0.00017823897360358387
3.3025138691300526e-05,-4.067777990712784e-05,4.278995766071603e-05,-5.262999184196815e-05,1.2118634913349524e-05,0.00013979569484945387
4.156844079261646e-05,-4.2347590351710096e-05,3.158185791107826e-05,-2.994993883476127e-05,9.471458724874537e-06,0.0001014541121548973
4.8695699661038816e-05,-4.8515219532418996e-05,2.1068917703814805e-05,5.822204229843919e-07,1.1370821994205471e-05,8.442450780421495e-05
5.622126627713442e-05,-5.4111649660626426e-05,1.844925463956315e-05,1.491152033850085e-05,1.5635307136108167e-05,8.270858961623162e-05
5.9488062106538564e-05,-5.4911663028178737e-05,2.562502777436748e-05,1.4175700925989076e-05,1.623594835109543e-05,6.942370237084106e-05
5.304507430992089e-05,-5.3978867072146386e-05,3.51383896486368e-05,1.6965750546660274e-05,1.2373215213301592e-05,3.7574201996903867e-05
4.2104980821022764e-05,-5.146298644831404e-05,3.401813592063263e-05,3.794581425609067e-05,4.801527666131733e-06,1.3028215107624419e-05
3.603710138122551e-05,-4.9680624215397984e-05,2.1614219804177992e-05,7.712820661254227e-05,-1.1056006314902334e-06,1.3350322660699021e-05
3.663014285848476e-05,-4.7733647079439834e-05,1.5497204003622755e-05,0.00012537174916360527,-1.6684653019183315e-06,2.8035759896738455e-05
3.892083987011574e-05,-4.4291267840890214e-05,2.5138464479823597e-05,0.00016622143448330462,3.0129097012832062e-06,3.779457983910106e-05
3.797806130023673e-05,-3.6360754165798426e-05,4.075526157976128e-05,0.0001814384013414383,1.0664356523193419e-05,1.9853412595693953e-05
2.959236917376984e-05,-2.5605926566640846e-05,4.767686186823994e-05,0.00016723845328669995,1.600452742422931e-05,-2.7232930733589455e-05
1.5316687495214865e-05,-1.4387451301445253e-05,4.608991730492562e-05,0.00013375162961892784,1.5204142073343974e-05,-5.889785461477004e-05
6.060005262042978e-07,-1.1714193533407524e-05,4.017199535155669e-05,9.783110726857558e-05,6.473443590948591e-06,-3.996883242507465e-05
-6.0208649301785044e-06,-2.2496680685435422e-05,2.8666574507951736e-05,9.027067426359281e-05,-5.856466941622784e-06,-1.9008773506357102e-06
-3.914240551239345e-06,-4.321051892475225e-05,1.6867928934516385e-05,0.00010780498996609822,-1.440902633476071e-05,2.7032756406697445e-05
8.99355484307307e-07,-7.204891880974174e-05,1.3346378182177432e-05,0.00011280546459602192,-1.9069080735789612e-05,5.8241788792656735e-05
3.986281626566779e-06,-0.00010762828605948016,1.3453733117785305e-05,8.690687536727637e-05,-2.133573616447393e-05,8.1173813669011e-05
7.81492781243287e-06,-0.00012751838949043304,1.2783497368218377e-05,3.4901502658613026e-05,-2.379094803472981e-05,8.505566802341491e-05
1.5193390026979614e-05,-0.0001187077650683932,1.4742559869773686e-05,-1.8289994841325097e-05,-2.6507048460189253e-05,0.0001078722852980718
2.734219924604986e-05,-9.427793702343479e-05,2.205089731432963e-05,-3.9200389437610283e-05,-2.2934944354346953e-05,0.00016365450574085116
4.650411210604943e-05,-6.99852462275885e-05,3.2319807360181585e-05,-3.871843728120439e-05,-1.8468226699042134e-05,0.00023928169684950262
5.828821304021403e-05,-5.643333133775741e-05,3.548365566530265e-05,-3.589805419323966e-05,-1.7362908693030477e-05,0.0002962338912766427
4.658415127778426e-05,-5.2788662287639454e-05,2.8545620807562955e-05,-3.6111501685809344e-05,-2.2658083253190853e-05,0.0003039138682652265
2.5172264940920286e-05,-5.287826934363693e-05,2.046473127848003e-05,-5.50409167772159e-05,-2.8590968213393353e-05,0.00027360074454918504
1.37293600346311e-05,-5.0327325880061835e-05,1.5122764125408139e-05,-8.725545922061428e-05,-2.3804303054930642e-05,0.00023190518550109118
1.4073490092414431e-05,-4.7339475713670254e-05,1.4918595297785942e-05,-0.0001169899114756845,-1.4824247045908123e-05,0.0001891456195153296
2.3363265427178703e-05,-4.3216030462644994e-05,2.1648416804964654e-05,-0.00012578429596032947,-7.690633538004477e-06,0.00010781577293528244
3.0434224754571915e-05,-3.941389513784088e-05,3.038079012185335e-05,-0.00011792021541623399,-5.686198619514471e-06,-3.190191637258977e-05
3.106517033302225e-05,-3.902168828062713e-05,3.274703703937121e-05,-9.56836884142831e-05,-5.919293471379206e-06,-0.00016934084123931825
2.9759452445432544e-05,-4.149088999838568e-05,3.157852916046977e-05,-5.9525162214413285e-05,-5.159637566976016e-06,-0.00022039946634322405
3.0225088266888633e-05,-4.797677320311777e-05,3.409292912692763e-05,-1.6505024177604355e-05,-4.540565896604676e-06,-0.00019812467508018017
3.3611824619583786e-05,-5.825094922329299e-05,3.810200360021554e-05,2.165213845728431e-05,-5.120424702909077e-06,-0.0001696677936706692
3.5767941881204024e-05,-6.499869778053835e-05,4.066690235049464e-05,4.788423757418059e-05,-5.873182544746669e-06,-0.0001310996012762189
3.364412623341195e-05,-6.385219603544101e-05,3.713844853336923e-05,6.042003587936051e-05,-8.172349225787912e-06,-6.94436312187463e-05
2.465200850565452e-05,-6.139947072369978e-05,2.8189399017719552e-05,5.616782800643705e-05,-1.538814467494376e-05,-2.1238127374090254e-05
1.2106046597182285e-05,-5.94528901274316e-05,2.1621019186568446e-05,4.305077891331166e-05,-2.5274006475228816e-05,-8.522100870322902e-06
2.332803660465288e-06,-5.051682092016563e-05,2.350400791328866e-05,4.260149216861464e-05,-3.3292832085862756e-05,-1.8103752154274844e-05
1.6579581370024243e-06,-3.6785062548005953e-05,2.8496706363512203e-05,6.881767330924049e-05,-3.632607695180923e-05,-4.427772364579141e-05
9.322305231762584e-06,-3.0231485652620904e-05,3.320705582154915e-05,0.0001018263355945237,-3.515673233778216e-05,-6.818746624048799e-05
1.7713342458591796e-05,-3.4731732739601284e-05,3.888924402417615e-05,0.00011700647883117199,-3.061253664782271e-05,-6.0780766943935305e-05
2.1575897335424088e-05,-4.4447955588111654e-05,4.20803262386471e-05,0.00010961689258692786,-2.3447746571036987e-05,-2.8706870580208488e-05
2.1325447960407473e-05,-5.421807145467028e-05,4.307616109144874e-05,0.00010571164602879435,-1.6755864635342732e-05,9.745526767801493e-06
2.1324325643945485e-05,-6.131234840722755e-05,4.645026274374686e-05,0.00012241485819686204,-1.6985244656098075e-05,4.955511394655332e-05
2.3723909180262126e-05,-5.795443939859979e-05,4.819208334083669e-05,0.0001403521018801257,-2.4693437808309682e-05,8.515959052601829e-05
1.7694070265861228e-05,-4.445845479494892e-05,4.4410200644051656e-05,0.00013155696797184646,-3.370020567672327e-05,9.220605716109276e-05
4.764609911944717e-06,-2.423228397674393e-05,3.700646266224794e-05,9.660492651164532e-05,-3.4703913115663454e-05,9.224007953889668e-05
2.0185368612146704e-06,8.63707100506872e-06,3.202048173989169e-05,5.728780524805188e-05,-3.246700725867413e-05,0.00012885020987596363
9.070377018360887e-06,3.605604069889523e-05,3.0344810511451215e-05,3.288721200078726e-05,-4.333653851062991e-05,0.00017611795919947326
1.73327571246773e-05,2.1121375539223664e-05,2.22301205212716e-05,1.9101185898762196e-05,-6.154878064990044e-05,0.00018786686996463686
2.0829218556173146e-05,-2.488069912942592e-05,1.2103059816581663e-05,1.0929974791906716e-07,-7.378996087936684e-05,0.00015989865642040968
2.2014271962689236e-05,-7.34121713321656e-05,6.316772669379134e-06,-2.4063127057161182e-05,-7.656983507331461e-05,0.00011356014874763787
2.5325582100776955e-05,-9.663103992352262e-05,6.883656169520691e-06,-3.5129382013110444e-05,-7.054118032101542e-05,6.545316864503548e-05
3.0052960937609896e-05,-7.224595174193382e-05,1.8379316315986216e-05,-2.322241743968334e-05,-6.0864753322675824e-05,1.9125121980323456e-05
3.085193384322338e-05,-4.0283779526362196e-05,3.450672375038266e-05,2.133042698915233e-06,-4.680693018599413e-05,-2.5723158614709973e-05
2.3907681679702364e-05,-3.9459788240492344e-05,4.584799535223283e-05,1.9390266970731318e-05,-2.737347131187562e-05,-6.369804032146931e-05
1.3685713383893017e-05,-6.284557457547635e-05,4.9068494263337925e-05,2.0193152522551827e-05,-3.090514155701385e-06,-5.815237818751484e-05
1.6250503449555254e-06,-7.775577978463843e-05,4.4849093683296815e-05,1.3263669643492904e-05,2.1639107217197306e-05,1.2740552847390063e-05
-9.433008017367683e-06,-7.353710680035874e-05,3.9184440538519993e-05,2.071019662253093e-05,4.286148396204226e-05,0.00010475538147147745
-1.10781757030054e-05,-6.171013956191018e-05,3.946752258343622e-05,5.5218246416188776e-05,6.101104008848779e-05,0.0001685986208030954
-6.953327442715818e-07,-4.999802331440151e-05,4.3142161302967e-05,9.28575755096972e-05,7.464148075086996e-05,0.00019281248387414962
1.5772142432979308e-05,-4.0590162825537845e-05,4.0807182813296095e-05,0.0001059212299878709,7.8952158219181e-05,0.00018363659910392016
2.980203316838015e-05,-3.4753524232655764e-05,3.191991345374845e-05,9.948140359483659e-05,7.193266355898231e-05,0.00015009928029030561
3.662281596916728e-05,-3.674941763165407e-05,2.2396001440938562e-05,8.74905163072981e-05,6.0044585552532226e-05,0.00010773402027552947
3.909288716386072e-05,-4.901925058220513e-05,1.3046368621871807e-05,5.873686313861981e-05,4.4991782488068566e-05,7.451933197444305e-05
3.830911737168208e-05,-5.8023379096994177e-05,-1.2827806585846702e-06,9.386591045768e-06,2.462895463395398e-05,5.560660065384582e-05
2.9152421120670624e-05,-2.7554548069019802e-05,-1.3063715414318722e-05,-2.5497747628833167e-05,2.7999917620036285e-06,5.370394137571566e-05
1.173183864011662e-05,3.664999530883506e-05,-5.715764018532354e-06,-1.0648584066075273e-05,-9.58228611125378e-06,7.87757890066132e-05
1.28144040445477e-06,4.789473314303905e-05,1.7055128409992903e-05,3.419944550842047e-05,-1.1671898391796276e-05,0.00011158412235090509
9.585334737494122e-06,-4.831338446820155e-05,4.0504241042071953e-05,6.620177009608597e-05,-1.1540476407390088e-05,0.00011052830814151093
2.0869056243100204e-05,-0.00015372023335658014,5.877673902432434e-05,7.249400368891656e-05,-1.4595109860238153e-05,7.221099804155529e-05
2.226043216069229e-05,-0.00015261284715961665,6.874121754663065e-05,6.20835562585853e-05,-1.993559635593556e-05,1.6728528862586245e-05
1.645264092076104e-05,-7.988476863829419e-05,6.482395110651851e-05,3.093145278398879e-05,-2.219245652668178e-05,-3.36845732817892e-05
1.0609387572912965e-05,-3.0278322810772806e-05,5.285339284455404e-05,-2.1597024897346273e-05,-2.2410726160160266e-05,-5.22823647770565e-05
9.126271834247746e-06,-2.4559498342568986e-05,3.888554419972934e-05,-6.692400347674266e-05,-2.560310713306535e-05,-4.021284985356033e-05
1.2251559383003041e-05,-3.3071337384171784e-05,2.8648761144722812e-05,-7.034058216959238e-05,-2.9199416530900635e-05,-5.1443525990180206e-06
1.835661350924056e-05,-3.911689418600872e-05,2.6571004127617925e-05,-3.182319414918311e-05,-3.0099017749307677e-05,4.1818584577413276e-05
1.9471839550533332e-05,-4.798533336725086e-05,2.9236840418889187e-05,1.2479719771363307e-05,-2.8275542717892677e-05,7.630923937540501e-05
1.5153796994127333e-05,-6.067733556847088e-05,3.661670416477136e-05,2.9654122045030817e-05,-2.261207737319637e-05,8.705976506462321e-05
1.3125110854161903e-05,-7.313560490729287e-05,4.285174509277567e-05,3.536806252668612e-05,-1.895386230899021e-05,7.80815098551102e-05
1.831455847423058e-05,-7.291309157153592e-05,4.673451985581778e-05,4.5786269765812904e-05,-1.9629909729701467e-05,6.435944669647142e-05
2.7138801669934765e-05,-5.5272088502533734e-05,4.467366306926124e-05,5.232999683357775e-05,-1.9941822756663896e-05,6.170537380967289e-05
3.27836605720222e-05,-3.248452048865147e-05,3.8921625673538074e-05,4.6407101763179526e-05,-1.69191844179295e-05,7.913894660305232e-05
3.389539415366016e-05,-3.2000614737626165e-05,3.301187098259106e-05,3.044527147721965e-05,-1.2626504030777141e-05,0.00010969941649818793
3.371116690686904e-05,-7.416304288199171e-05,2.6610649001668207e-05,1.4022037248651031e-05,-1.1969849765591789e-05,0.00012587617675308138
3.2976331567624584e-05,-0.0001445736561436206,2.265695911773946e-05,7.01586202467297e-07,-1.4661254681413993e-05,0.00010490757995285094
2.9479730073944665e-05,-0.00018387072486802936,2.178959039156325e-05,-1.2942219655087683e-05,-1.7550848497194238e-05,6.112434493843466e-05
2.5192317480104975e-05,-0.00015046625048853457,2.540040986787062e-05,-2.5443918275414035e-05,-1.595100729900878e-05,2.6551375412964262e-05
2.508523357391823e-05,-7.779068982927129e-05,3.329175524413586e-05,-2.5123808882199228e-05,-9.088687875191681e-06,1.6675607184879482e-05
3.262093377998099e-05,-1.8943444956676103e-05,4.547316348180175e-05,-9.379325092595536e-06,-8.058789262577193e-07,2.1579964595730416e-05
4.381704638944939e-05,1.19009609989007e-05,5.3934862080495805e-05,1.188862825074466e-05,5.275411695038201e-06,2.5581210138625465e-05
4.908646587864496e-05,2.4761508029769175e-05,5.158161002327688e-05,2.871286415029317e-05,4.823639756068587e-06,2.6714631530921906e-05
4.4359614548739046e-05,1.7963193386094645e-05,4.297366103855893e-05,4.2489293264225125e-05,-7.378500413324218e-06,2.5485142032266594e-05
3.712477337103337e-05,-2.947466327896109e-06,3.8110476452857256e-05,5.2085102652199566e-05,-2.6536619770922698e-05,2.757175752776675e-05
3.526532236719504e-05,-2.2841200916445814e-05,3.702047615661286e-05,4.3908014049520716e-05,-3.7664594856323674e-05,4.507498306338675e-05
3.531564652803354e-05,-3.074765845667571e-05,3.28815913235303e-05,8.837644600134809e-06,-3.70107009075582e-05,7.573893526569009e-05
3.199432831024751e-05,-2.8599581128219143e-05,2.4501299776602536e-05,-2.488661812094506e-05,-3.183778972015716e-05,0.00011325818923069164
2.9398219339782372e-05,-2.192839383496903e-05,2.1099816876812838e-05,-2.3817206965759397e-05,-2.405171107966453e-05,0.00014755439769942313
2.5862360416795127e-05,-1.8117270883521996e-05,2.694958311622031e-05,6.173893780214712e-06,-1.3848390153725632e-05,0.0001572100882185623
1.8042450392385945e-05,-2.156482878490351e-05,3.4873810363933444e-05,3.243496757932007e-05,-8.082988642854616e-06,0.00014422957610804588
1.2073496691300534e-05,-3.242332240915857e-05,3.3855427318485454e-05,4.861169873038307e-05,-5.156517545401584e-06,0.00012986318324692547
1.479352249589283e-05,-4.5325723476707935e-05,2.3850698198657483e-05,5.508018148248084e-05,3.810174860063853e-07,0.0001300927542615682
1.8852364519261755e-05,-5.4232714319368824e-05,1.1902923688467126e-05,4.4682547013508156e-05,4.262220954842633e-06,0.00014299950271379203
2.0330064216977917e-05,-6.13452066318132e-05,7.122624538169475e-06,3.743060733540915e-05,7.089969585649669e-06,0.00016390685050282627
2.0591181964846328e-05,-6.978018063819036e-05,1.0504531928745564e-05,4.5696040615439415e-05,9.64203445619205e-06,0.00018749541777651757
1.7252157704206184e-05,-7.576415373478085e-05,1.5752222680021077e-05,6.771826156182215e-05,1.1254415767325554e-05,0.0001991632889257744
1.7143327568192035e-05,-7.555377669632435e-05,2.0026762285851873e-05,9.174827573588118e-05,1.0971821211569477e-05,0.0001782831532182172
1.4074194950808305e-05,-6.833635416114703e-05,1.882705146272201e-05,9.665947436587885e-05,6.392760496964911e-06,0.00010050734272226691
8.567127224523574e-06,-5.8513982367003337e-05,1.6882730051293038e-05,7.345446647377685e-05,-1.4579536582459696e-06,-2.3289412638405338e-05
7.086189725669101e-06,-5.019365926273167e-05,1.9538616470526904e-05,2.8390468287398107e-05,-7.029989319562446e-06,-0.00013975516776554286
1.0864772775676101e-05,-3.885263140546158e-05,2.63165475189453e-05,-2.345061511732638e-05,-6.665782166237477e-06,-0.00018678572087083012
1.624954165890813e-05,-3.0025772502995096e-05,3.300055686850101e-05,-5.942374264122918e-05,-4.733242349175271e-06,-0.00011725435615517199
1.9885368601535447e-05,-3.478582584648393e-05,3.658962305053137e-05,-6.749520980520174e-05,-3.3092544526880374e-06,2.985373794217594e-05
