1.9081871869275346e-05,-5.607507409877144e-05,3.6140685551799834e-05,9.609195330995135e-06,-1.0763435057015158e-05,5.964425508864224e-05
2.24859486479545e-05,-5.238663652562536e-05,3.8296850107144564e-05,1.4821181139268447e-05,-1.1061558325309306e-05,5.873293412150815e-05
2.971477442770265e-05,-5.053982386016287e-05,3.9038019167492166e-05,2.2213887859834358e-05,-7.037529940134846e-06,5.6071850849548355e-05
3.870330692734569e-05,-5.542445069295354e-05,3.858924537780695e-05,2.1134561393409967e-05,-2.555264472903218e-06,5.383095776778646e-05
4.264706512913108e-05,-6.285876588663086e-05,3.5464672691887245e-05,1.3027124623476993e-05,-2.6861612241191324e-06,5.3261490393197164e-05
3.8581518310820684e-05,-6.0178819694556296e-05,3.058308357140049e-05,6.544885764014907e-06,-7.643210665264633e-06,5.2523544582072645e-05
2.9090237148921005e-05,-5.393882383941673e-05,2.9728525987593457e-05,6.651331659668358e-06,-1.2138344573031645e-05,5.924946890445426e-05
1.8571534383227117e-05,-5.470843825605698e-05,3.0795323255006224e-05,1.3138091162545606e-05,-1.2056651030434296e-05,7.647193706361577e-05
1.4604553143726662e-05,-5.969352787360549e-05,3.142175773973577e-05,2.0393252270878293e-05,-8.444380000582896e-06,9.078967559617013e-05
1.1737888598872814e-05,-6.280907109612599e-05,3.0245490052038804e-05,2.5060549887712114e-05,-7.225004083011299e-06,9.303495608037338e-05
8.931181582738645e-06,-6.415633106371388e-05,2.8364531317492947e-05,2.6144281946471892e-05,-7.245727829285897e-06,8.328448893735185e-05
8.373079253942706e-06,-6.483288598246872e-05,2.794299325614702e-05,2.4341145035577938e-05,-4.949625690642279e-06,7.181717955973e-05
1.037044421536848e-05,-6.363829015754163e-05,2.9060185624985024e-05,2.242362461402081e-05,-1.2752900602208683e-06,6.263564137043431e-05
1.3533865967474412e-05,-5.992748265271075e-05,3.182647924404591e-05,2.3731343389954418e-05,-3.333296092478122e-07,5.58010142412968e-05
1.906095349113457e-05,-5.564738967223093e-05,3.147819734294899e-05,2.0705483620986342e-05,-2.8146694148745155e-06,5.2711518947035074e-05
2.872644290619064e-05,-5.4068321333033964e-05,2.731806853262242e-05,1.0300930625817273e-05,-4.02977366320556e-06,5.3231080528348684e-05
3.9808412111597136e-05,-5.3331114031607285e-05,2.4068986022030003e-05,2.6780364805745194e-06,-4.841059762838995e-06,5.8313413319410756e-05
4.655565498978831e-05,-5.168886127648875e-05,2.671831134648528e-05,6.537976560139214e-07,-8.322540452354588e-06,6.718943768646568e-05
4.700768840848468e-05,-5.126016549183987e-05,3.2492607715539634e-05,-2.3835693809814984e-06,-1.2530116691777948e-05,7.738653221167624e-05
4.343341424828395e-05,-5.293286085361615e-05,3.534715870046057e-05,-5.559914370678598e-06,-1.2098557817807887e-05,8.228440856328234e-05
3.709686643560417e-05,-5.450582830235362e-05,3.295949863968417e-05,-5.217543730395846e-06,-9.01227758731693e-06,8.012435864657164e-05
2.774762106128037e-05,-5.691756450687535e-05,2.996859075210523e-05,-2.6630443699104944e-06,-7.990425729076378e-06,7.469365664292127e-05
1.549317858007271e-05,-6.180923810461536e-05,2.8411945095285773e-05,5.545779913518345e-06,-1.0300601388735231e-05,7.220338011393324e-05
1.1436375643825158e-05,-6.581746129086241e-05,2.9658502171514556e-05,1.4656224266218487e-05,-1.386630265187705e-05,6.668898276984692e-05
2.5760669814189896e-05,-6.722531543346122e-05,3.366170130902901e-05,1.649736805120483e-05,-1.6819421944092028e-05,4.831991464016028e-05
4.508559504756704e-05,-6.795178342144936e-05,3.5280914744362235e-05,1.596523361513391e-05,-1.4896458196744788e-05,2.3779824914527126e-05
4.6763496357016265e-05,-6.706747808493674e-05,3.335379369673319e-05,1.8743297914625145e-05,-1.15441253001336e-05,1.016095484374091e-05
3.2129319151863456e-05,-6.485646008513868e-05,3.513729097903706e-05,2.491640771040693e-05,-1.0728627785283606e-05,9.944760677171871e-06
1.7866792404674925e-05,-5.809646245324984e-05,3.6243232898414135e-05,2.519693589420058e-05,-1.2688391507253982e-05,1.826292100304272e-05
2.8076933631382417e-06,-4.896282189292833e-05,3.2442520023323596e-05,1.6511381545569748e-05,-1.4146933608571999e-05,3.5319491871632636e-05
-1.5263680325006135e-05,-4.68036814709194e-05,2.916611629188992e-05,1.2817073184123728e-05,-1.3730885257245973e-05,6.014692917233333e-05
-2.4727711206651293e-05,-4.7431352868443355e-05,2.8613683753064834e-05,2.0544232029351406e-05,-1.3581942766904831e-05,8.502384298481047e-05
-2.6792631615535356e-05,-4.584348062053323e-05,3.0439587135333568e-05,3.321415715618059e-05,-1.0775367627502419e-05,0.00010545098484726623
-2.675388168427162e-05,-4.319365325500257e-05,3.290463064331561e-05,4.212774001643993e-05,-7.073348569974769e-06,0.0001266843028133735
-2.6117786546819843e-05,-4.0113471186487004e-05,3.365894372109324e-05,4.850335972150788e-05,-4.919111233903095e-06,0.0001519248471595347
-1.8455819372320548e-05,-3.7364727177191526e-05,3.143650246784091e-05,5.3128344006836414e-05,-2.3041427539283177e-06,0.0001727478374959901
-5.737388619309058e-06,-3.6076799005968496e-05,2.751485772023443e-05,4.8236845032079145e-05,-2.2346407604345586e-06,0.00017834053141996264
6.3631309785705525e-06,-3.349000326124951e-05,2.389565997873433e-05,3.5887365811504424e-05,-7.686642675253097e-06,0.00016539978969376534
1.4387012015504297e-05,-3.241968443035148e-05,2.4972352548502386e-05,3.017309973074589e-05,-1.197013261844404e-05,0.00013951180153526366
2.11265760299284e-05,-3.575461596483365e-05,2.9038772481726483e-05,3.251082671340555e-05,-1.0670720257621724e-05,0.00010961735824821517
3.014314097526949e-05,-4.2262767237843946e-05,3.37167912221048e-05,3.4550739655969664e-05,-8.08939785201801e-06,8.499618706991896e-05
3.9303824451053515e-05,-4.6238470531534404e-05,3.5875644243787974e-05,3.6676094168797135e-05,-6.620010026381351e-06,6.402166036423296e-05
4.437133247847669e-05,-4.563999391393736e-05,3.4797642001649365e-05,3.9889833715278655e-05,-4.311818429414416e-06,4.2518589907558635e-05
4.3759620893979445e-05,-4.464688754524104e-05,3.167855174979195e-05,3.846597610390745e-05,-4.203173375572078e-06,1.8845064914785326e-05
4.127851207158528e-05,-4.720838842331432e-05,2.8737360480590723e-05,3.06847614410799e-05,-8.164872269844636e-06,-8.464671736874152e-06
3.832027505268343e-05,-5.1973762310808524e-05,2.7176989533472806e-05,2.2315216483548284e-05,-1.3399965610005893e-05,-3.105251016677357e-05
3.2249168725684285e-05,-5.5187687394209206e-05,2.715719529078342e-05,2.109626257151831e-05,-1.620333205210045e-05,-3.730024764081463e-05
2.247751945105847e-05,-5.681084076059051e-05,3.102735718130134e-05,2.5451827241340652e-05,-1.5735518900328316e-05,-2.1912617739872076e-05
1.569935011502821e-05,-5.4626096243737265e-05,3.65011474059429e-05,3.1957035389496014e-05,-1.4685817404824775e-05,6.168615982460324e-06
1.2481550584197976e-05,-4.760931551572867e-05,3.8468784623546526e-05,3.792579082073644e-05,-1.2974122910236474e-05,2.9226697733975016e-05
1.3311474504007492e-05,-4.195788278593682e-05,3.568389729480259e-05,3.779240796575323e-05,-1.1144785275973845e-05,4.163578341831453e-05
1.9924058506148867e-05,-4.3910178646910936e-05,3.1578147172695026e-05,3.205065513611771e-05,-1.1321442798362114e-05,4.865151640842669e-05
2.8655140340561047e-05,-4.885608723270707e-05,2.689794564503245e-05,2.6615725801093504e-05,-1.1257149708399083e-05,4.8299676564056426e-05
3.186035610269755e-05,-4.883352085016668e-05,2.5271165213780478e-05,2.7053749363403767e-05,-1.2169996807642747e-05,4.7135963541222736e-05
3.0769817385589704e-05,-4.447714309208095e-05,3.0015296943020076e-05,3.707966607180424e-05,-1.3784343536826782e-05,5.036549555370584e-05
2.8979113267268986e-05,-4.029706178698689e-05,3.6541096051223576e-05,5.3990537708159536e-05,-1.0704345186240971e-05,4.876097955275327e-05
2.9368102332227863e-05,-3.8677422708133236e-05,3.868430940201506e-05,5.951197454123758e-05,-9.40457630349556e-06,4.028134571854025e-05
3.066306817345321e-05,-4.1756891732802615e-05,3.666285192593932e-05,4.706161780632101e-05,-9.014361239678692e-06,3.361980998306535e-05
3.263311373302713e-05,-4.508900019573048e-05,3.297897274023853e-05,3.319589450256899e-05,-8.51081949804211e-06,3.725988062797114e-05
3.4805445466190577e-05,-4.71366111014504e-05,3.279020165791735e-05,3.101219408563338e-05,-1.1761188943637535e-05,4.6547553210984915e-05
3.569818727555685e-05,-4.90547317895107e-05,3.770599505514838e-05,3.514902709866874e-05,-1.5952020476106554e-05,4.831734986510128e-05
3.319737152196467e-05,-5.065410732640885e-05,3.936512439395301e-05,3.843428203254007e-05,-1.8151271433453076e-05,4.554066254058853e-05
2.4616787413833663e-05,-5.01631002407521e-05,3.716890932992101e-05,3.826689862762578e-05,-1.589219391462393e-05,4.6046741772443056e-05
1.563160003570374e-05,-5.026609142078087e-05,3.5476332413963974e-05,3.754476347239688e-05,-1.3483636394084897e-05,5.135412357049063e-05
1.1635227565420792e-05,-5.1604445616248995e-05,3.815726813627407e-05,3.509520320221782e-05,-1.0114774340763688e-05,6.0269459936534986e-05
1.2973021512152627e-05,-5.343400698620826e-05,4.2785595724126324e-05,2.8184082111692987e-05,-7.059192739689024e-06,7.144158735172823e-05
1.7829503121902235e-05,-5.340802817954682e-05,4.475038076634519e-05,1.8533992260927334e-05,-4.683822680817684e-06,7.975492189871147e-05
2.338791819056496e-05,-5.253140989225358e-05,4.429673936101608e-05,1.3347427739063278e-05,-4.485645149543416e-06,8.411261660512537e-05
2.6285684725735337e-05,-5.268712266115472e-05,4.104811523575336e-05,1.6296369722113013e-05,-5.874461294297362e-06,8.449253800790757e-05
2.7316516934661195e-05,-5.233790216152556e-05,3.678637949633412e-05,2.042679079750087e-05,-7.113786978152348e-06,7.98883120296523e-05
2.9621836802107282e-05,-5.089266414870508e-05,3.454864054219797e-05,2.2138066924526356e-05,-7.804617780493572e-06,7.481904322048649e-05
3.259015647927299e-05,-4.9522019253345206e-05,3.566719897207804e-05,2.196172863477841e-05,-8.277135748357978e-06,7.78630783315748e-05
3.4265656722709537e-05,-4.8466921725776047e-05,3.785144872381352e-05,2.2264635845203884e-05,-8.510255611327011e-06,8.873772458173335e-05
3.377174652996473e-05,-4.516369153861888e-05,3.882992677972652e-05,2.468825550749898e-05,-7.764335350657348e-06,9.501863678451627e-05
2.9760562028968707e-05,-4.2979198042303324e-05,3.9425736758857965e-05,2.622571810206864e-05,-6.104422482167138e-06,8.859674562700093e-05
2.6219939172733575e-05,-4.508913480094634e-05,3.800269405473955e-05,2.3825388780096546e-05,-3.982155249104835e-06,6.99934535077773e-05
4.151151733822189e-05,-4.9149126425618306e-05,3.353146530571394e-05,2.110925743181724e-05,-4.981427082384471e-06,4.4002754293615e-05
9.039979340741411e-05,-5.1758383051492274e-05,3.081266913795844e-05,2.0861152734141797e-05,-9.567439519742038e-06,2.2996839106781408e-05
0.00013750189100392163,-5.188862269278616e-05,3.1322164431912825e-05,2.299621337442659e-05,-1.3090063475829083e-05,1.825755498430226e-05
0.0001397264568367973,-4.813665145775303e-05,3.445252514211461e-05,2.229184246971272e-05,-1.1323746548441704e-05,2.0867435523541644e-05
0.00010558241774560884,-4.602139233611524e-05,3.593899600673467e-05,2.5467059458605945e-05,-9.305736966780387e-06,2.0456729544093832e-05
6.287675205385312e-05,-4.653847645386122e-05,3.3024301956174895e-05,3.4550863347249106e-05,-8.286807315016631e-06,2.5903162168106064e-05
2.943869367300067e-05,-4.842523776460439e-05,2.996784678543918e-05,3.556159936124459e-05,-6.817847406637156e-06,4.7359451855299994e-05
1.96893026327416e-07,-4.934876778861508e-05,3.068466321565211e-05,2.9597393222502433e-05,-4.2258893699909095e-06,6.561194459209219e-05
-3.083602132392116e-05,-4.955150870955549e-05,3.252258829888888e-05,3.2002917578211054e-05,-4.7886765059956815e-06,5.503973443410359e-05
-6.046514317858964e-05,-4.731325316242874e-05,3.371788261574693e-05,4.456875831237994e-05,-6.122916602180339e-06,1.9506243916111998e-05
-7.683659350732341e-05,-4.130393062951043e-05,3.5332188417669386e-05,5.833272007293999e-05,-6.1529831327789e-06,-1.4565644050890114e-05
-5.7999826822197065e-05,-3.6059926060261205e-05,3.648268466349691e-05,7.020586053840816e-05,-5.351917479856638e-06,-3.0202332709450275e-05
-1.5704354154877365e-05,-3.400403875275515e-05,3.3570282539585605e-05,7.703698065597564e-05,-4.97759992867941e-06,-2.307216163899284e-05
1.463792250433471e-05,-3.318484596093185e-05,3.1260933610610664e-05,7.548522262368351e-05,-4.893559435004136e-06,-4.174045443505747e-06
1.849362706707325e-05,-3.396391912247054e-05,3.330492108943872e-05,6.876168481539935e-05,-3.6665105653810315e-06,1.0359632142353803e-05
6.175976068334421e-06,-3.8156398659339175e-05,3.381500209798105e-05,5.6988686992553994e-05,-2.4971716356958495e-06,1.8292639651917852e-05
-8.72111922944896e-06,-4.262519723852165e-05,3.528468369040638e-05,4.622977212420665e-05,-3.325757234051707e-06,3.585238300729543e-05
-1.701987821434159e-05,-4.810880636796355e-05,4.0492741391062737e-05,4.0162529330700636e-05,-7.1806048254074994e-06,7.62059644330293e-05
-2.003574809350539e-05,-5.3100273362360895e-05,4.502023148234002e-05,3.3589632948860526e-05,-1.1459432244009804e-05,0.00012248796701896936
-2.4873785150703043e-05,-5.567895277636126e-05,4.4784632336813956e-05,2.602762106107548e-05,-1.5045227883092593e-05,0.0001449197588954121
-3.1851268431637436e-05,-5.566429899772629e-05,3.965424912166782e-05,2.0639703507185914e-05,-1.7337135432171635e-05,0.0001359035522909835
-3.118753738817759e-05,-5.426811912911944e-05,3.2602009014226496e-05,2.031098847510293e-05,-1.9435392459854484e-05,0.00011628591164480895
-1.8254937458550557e-05,-5.276664160192013e-05,2.864222915377468e-05,2.1598138118861243e-05,-2.0591845895978622e-05,0.00010619914246490225
-7.589817982989189e-07,-5.302865247358568e-05,2.9394430384854786e-05,2.3876626073615626e-05,-1.950624937308021e-05,0.00010735689284047112
1.1731196536857169e-05,-5.402805982157588e-05,3.2046245905803517e-05,2.7848200261360034e-05,-1.81503091880586e-05,0.00011053047637687996
1.6981955923256464e-05,-5.338982737157494e-05,3.2097072107717395e-05,3.3234504371648654e-05,-1.8496262782718986e-05,0.00011442283721407875
1.7856023987405933e-05,-5.0928421842399985e-05,2.9088856535963714e-05,3.622198346420191e-05,-1.8307118807570077e-05,0.0001183305648737587
1.578582487127278e-05,-4.9830632633529603e-05,2.7028818294638768e-05,3.482177999103442e-05,-1.7554741134517826e-05,0.00012167068780399859
1.8517243006499484e-05,-5.281109406496398e-05,2.641884384502191e-05,3.044653931283392e-05,-1.5432649888680317e-05,0.00012712215539067984
2.7421545382821932e-05,-5.541866994462907e-05,2.4701575966901146e-05,2.3750208129058592e-05,-1.2367569070192985e-05,0.00012947512732353061
3.528620072756894e-05,-5.355031680664979e-05,2.2603706383961253e-05,1.967434582184069e-05,-1.1867685316246934e-05,0.0001240331621374935
3.426901821512729e-05,-5.073191277915612e-05,2.115201459673699e-05,2.3343665816355497e-05,-1.2577768757182639e-05,0.0001134431004174985
2.8679291062871926e-05,-4.893134973826818e-05,2.4013610527617857e-05,2.914014294219669e-05,-1.1719435860868543e-05,0.00010358168219681829
3.0609749956056476e-05,-4.8461530241183937e-05,2.8245101930224337e-05,2.9876575354137458e-05,-1.3426574696495663e-05,8.768167026573792e-05
3.5903762181987986e-05,-5.018370575271547e-05,3.1289902835851535e-05,2.6873412934946828e-05,-1.3982626114739105e-05,6.306402065092698e-05
3.8303114706650376e-05,-5.2168739784974605e-05,3.164498048136011e-05,2.234777457488235e-05,-1.0254902008455247e-05,4.032081051263958e-05
3.64468214684166e-05,-5.167095878277905e-05,2.8489781470852904e-05,2.0736335500259884e-05,-1.0138134712178726e-05,2.084375410049688e-05
3.3184191124746576e-05,-4.8161429731408134e-05,2.828870310622733e-05,2.475783185218461e-05,-1.409107971994672e-05,2.3355796656687744e-06
3.214780372218229e-05,-4.595873906509951e-05,3.0185579817043617e-05,2.8609043511096388e-05,-1.4505539184028748e-05,-1.0611388461256865e-05
3.011740045621991e-05,-4.6720953832846135e-05,2.9679935323656537e-05,2.940788363048341e-05,-1.2479787073971238e-05,-1.0445512998558115e-05
2.872184631996788e-05,-5.0482663937145844e-05,2.708913598326035e-05,2.2834270566818304e-05,-9.721410606289282e-06,2.205179498560028e-06
2.9718203222728334e-05,-5.246195360086858e-05,2.6775798687594943e-05,1.5394416550407186e-05,-5.182761924515944e-06,2.0577206669258885e-05
3.1311919883592054e-05,-4.97832807013765e-05,2.956578646262642e-05,1.3154324733477551e-05,-3.694132374221226e-06,2.940966805908829e-05
3.1888008379610255e-05,-4.452135181054473e-05,3.282520628999919e-05,1.3703841432288755e-05,-5.791522198705934e-06,2.948342626041267e-05
3.157634273520671e-05,-4.322519089328125e-05,3.355914304847829e-05,1.4526990526064765e-05,-6.560899691976374e-06,3.143882713629864e-05
3.061775350943208e-05,-4.7212433855747804e-05,3.354687214596197e-05,1.2557650734379422e-05,-5.444419912237208e-06,4.10989232477732e-05
2.8508413379313424e-05,-5.13875056640245e-05,3.444700996624306e-05,1.051973958965391e-05,-5.131613306730287e-06,5.276402589515783e-05
2.5030725737451576e-05,-5.447582952911034e-05,3.3955635444726795e-05,1.0298341294401325e-05,-6.562394901266089e-06,5.660269016516395e-05
2.209071499237325e-05,-5.695140134776011e-05,3.094510975643061e-05,1.0743092389020603e-05,-9.204882189806085e-06,5.068076279712841e-05
2.199113805545494e-05,-5.6763972679618746e-05,2.920021506724879e-05,1.1383601304260083e-05,-1.1519216059241444e-05,3.9593782275915146e-05
2.4483386368956417e-05,-5.340112329577096e-05,2.9251557862153277e-05,1.2468526620068587e-05,-1.205633543577278e-05,3.467525675659999e-05
2.647268593136687e-05,-5.067166785011068e-05,2.7929898351430893e-05,1.1439447007433046e-05,-1.1536174497450702e-05,3.7534788134507835e-05
2.730388405325357e-05,-5.037413939135149e-05,2.7497926566866226e-05,8.342673936567735e-06,-1.1162558621435892e-05,3.96275136154145e-05
2.971991489175707e-05,-5.221935862209648e-05,2.779374335659668e-05,4.477311904338421e-06,-1.0747792657639366e-05,3.5839668271364644e-05
3.0678249459015206e-05,-5.2891471568727866e-05,2.7098038117401302e-05,-1.7080067209462868e-06,-9.171200872515328e-06,3.446535629336722e-05
2.962602775369305e-05,-5.0999824452446774e-05,2.6908166546490975e-05,-1.1320769772282802e-05,-4.392704795463942e-06,3.84589729947038e-05
2.6365029043518007e-05,-5.074460932519287e-05,2.8696631488855928e-05,-1.8542872567195445e-05,1.8870432541007176e-06,4.537571658147499e-05
2.009061790886335e-05,-5.397044515120797e-05,2.751731881289743e-05,-1.7912268958752975e-05,2.966648708024877e-06,5.6333701650146395e-05
1.830689870985225e-05,-5.53633835806977e-05,2.4428640244877897e-05,-1.1460952919151168e-05,-3.1650736218580278e-06,6.64328399579972e-05
2.1475179892149754e-05,-5.4549091146327555e-05,2.599570871097967e-05,-6.7218074946140405e-06,-7.5920506787952036e-06,6.712090544169769e-05
2.2935617380426265e-05,-5.175732439965941e-05,2.9397544494713657e-05,-3.8846433199069e-06,-6.721588761138264e-06,6.432359805330634e-05
2.270850382046774e-05,-4.847444506594911e-05,3.066954013775103e-05,3.828075023193378e-06,-3.482364263618365e-06,6.404140731319785e-05
2.1641400962835178e-05,-4.760139563586563e-05,2.938842953881249e-05,2.2419497327064164e-05,-2.36020605370868e-06,7.23513585398905e-05
1.9950215573771857e-05,-4.8981517466017976e-05,2.9674671168322675e-05,4.5332591980695724e-05,-5.110674010211369e-06,8.509732288075611e-05
2.010144089581445e-05,-4.894934318144806e-05,3.2302381441695616e-05,6.734563794452697e-05,-6.518524060084019e-06,9.631033753976226e-05
2.1915335310040973e-05,-4.833987259189598e-05,3.786192974075675e-05,8.093976066447794e-05,-4.419452579895733e-06,0.0001072744489647448
2.2355985493049957e-05,-4.9057136493502185e-05,4.1312134271720424e-05,8.480857650283724e-05,-3.2337165976059623e-06,0.00010703993029892445
2.1036121324868873e-05,-4.933146556140855e-05,4.024165900773369e-05,8.293877908727154e-05,-6.45771478957613e-06,9.802672866499051e-05
2.0710614990093745e-05,-4.9556496378500015e-05,3.776287121581845e-05,7.213118806248531e-05,-1.1070673281210475e-05,8.790448191575706e-05
1.9686625819304027e-05,-5.0218684918945655e-05,3.4094347938662395e-05,5.743860310758464e-05,-1.4708126400364563e-05,7.432648999383673e-05
1.9482058633002453e-05,-5.038346353103407e-05,3.1602376111550257e-05,4.7588178858859465e-05,-1.675778185017407e-05,5.7069431932177395e-05
2.110332752636168e-05,-4.838380482397042e-05,2.8872271286672913e-05,4.6068558731349185e-05,-1.4745184671483003e-05,4.392397022456862e-05
2.32120346481679e-05,-4.519650974543765e-05,2.6205319954897277e-05,4.672182330978103e-05,-1.3451702216116246e-05,3.563780410331674e-05
2.4889062842703424e-05,-4.344050830695778e-05,2.4669550839462318e-05,4.859163527726196e-05,-1.3861549632565584e-05,2.226831202278845e-05
2.6038593205157667e-05,-4.402193007990718e-05,2.4793789634713903e-05,5.4527088650502264e-05,-1.4495323739538435e-05,2.0355062133603496e-06
2.5871304387692362e-05,-4.462227298063226e-05,2.618723920022603e-05,6.420331192202866e-05,-1.5318761143134907e-05,-2.0986824893043377e-05
2.3882077584858052e-05,-4.445833110366948e-05,3.0038740078452975e-05,7.36075162421912e-05,-1.5544823327218182e-05,-4.261965659679845e-05
2.2582624296774156e-05,-4.417797754285857e-05,3.489360824460164e-05,8.326324314111844e-05,-1.526449341326952e-05,-5.210079325479455e-05
2.3084692656993866e-05,-4.519803405855782e-05,3.675965854199603e-05,9.014420356834307e-05,-1.5952351532178e-05,-3.746136644622311e-05
2.508476063667331e-05,-4.732876914204098e-05,3.46341694239527e-05,8.851369057083502e-05,-1.8318525690119714e-05,-1.0188598480453948e-06
2.531321115384344e-05,-4.876788079855032e-05,3.0879997211741284e-05,7.761173765175045e-05,-1.9876542864949442e-05,3.764791472349316e-05
2.548303200455848e-05,-4.739144424092956e-05,2.5454091883148067e-05,6.259034853428602e-05,-1.820403485908173e-05,6.031156226526946e-05
2.609387956908904e-05,-4.325838744989596e-05,2.1285401089699008e-05,5.34967148269061e-05,-1.6309924831148237e-05,6.980817124713212e-05
2.7744325052481145e-05,-4.066604742547497e-05,2.352170122321695e-05,4.87242141389288e-05,-1.6476578821311705e-05,7.499209459638223e-05
3.155160084133968e-05,-4.384251224109903e-05,2.775411485345103e-05,4.104298568563536e-05,-1.5514431652263738e-05,7.870035915402696e-05
3.2185758755076677e-05,-4.876883394899778e-05,2.889721145038493e-05,3.026409467565827e-05,-1.6317466361215338e-05,7.998936052899808e-05
2.8193546313559636e-05,-5.094282823847607e-05,2.7980617232969962e-05,1.8554117559688166e-05,-1.8283051758771762e-05,7.522048690589145e-05
2.7029889679397456e-05,-4.971420275978744e-05,2.859771848306991e-05,1.7684069462120533e-05,-1.6958056221483275e-05,7.421504415106028e-05
2.947794746432919e-05,-4.64410986751318e-05,2.8526033929665573e-05,2.1233976440271363e-05,-1.1839896615128964e-05,7.964044925756752e-05
3.1552393920719624e-05,-4.738401548820548e-05,2.823404429364018e-05,1.7815589671954513e-05,-8.014289051061496e-06,8.622263703728095e-05
3.171112257405184e-05,-5.3691084758611396e-05,2.947507528006099e-05,1.7219439541804604e-05,-7.018006726866588e-06,9.418089030077681e-05
3.1006686185719445e-05,-5.59802028874401e-05,3.0164181225700304e-05,1.9946281099691987e-05,-9.226108886650763e-06,9.629192209104076e-05
2.8445507268770598e-05,-5.478244929690845e-05,3.201605431968346e-05,2.0040009985677898e-05,-1.0907863725151401e-05,8.597808482591063e-05
2.545603274484165e-05,-5.573151065618731e-05,3.280897726654075e-05,1.7157481124741025e-05,-8.443879778496921e-06,6.832636427134275e-05
2.6537141820881516e-05,-5.7619963627075776e-05,3.004594509548042e-05,1.305873320234241e-05,-4.483873908611713e-06,5.853491893503815e-05
2.8920994736836292e-05,-5.947949830442667e-05,2.63052115769824e-05,9.733277693158016e-06,-4.299051852285629e-06,5.7913097407436e-05
2.846164170478005e-05,-5.8399040426593274e-05,2.647003930178471e-05,9.879684512270615e-06,-8.94222830538638e-06,6.513031257782131e-05
2.54042461165227e-05,-5.639360460918397e-05,2.7744416001951322e-05,9.004792445921339e-06,-1.3483349903253838e-05,7.820302562322468e-05
2.4653583750477992e-05,-5.568259075516835e-05,2.829394543368835e-05,7.074766017467482e-06,-1.369557503494434e-05,9.040294389706105e-05
3.2651147193973884e-05,-5.741608765674755e-05,3.056344939977862e-05,8.46903094497975e-06,-1.100650570151629e-05,9.453166421735659e-05
5.217765283305198e-05,-6.086033317842521e-05,3.2483061659149826e-05,1.3250343727122527e-05,-9.367596248921473e-06,9.11515235202387e-05
7.378869486274198e-05,-6.427829066524282e-05,3.187564652762376e-05,1.5639290722901933e-05,-9.97767347143963e-06,8.478378731524572e-05
8.26508694444783e-05,-6.626762478845194e-05,3.052461761399172e-05,1.2063500435033347e-05,-1.3075255083094817e-05,7.20598254702054e-05
7.011611887719482e-05,-6.697392382193357e-05,3.163943983963691e-05,4.060405899508623e-06,-1.5264300600392744e-05,5.3591487812809646e-05
4.36449445260223e-05,-6.611310527659953e-05,3.544540595612489e-05,-7.17885586709599e-06,-1.59866704052547e-05,3.4758850233629346e-05
2.0333172869868577e-05,-6.351557385642081e-05,4.0964809159049764e-05,-1.6832364053698257e-05,-1.6056003005360253e-05,2.4161108740372583e-05
3.924950760847423e-06,-6.073007170925848e-05,4.433669164427556e-05,-1.621034425625112e-05,-1.4048951015865896e-05,2.01983202714473e-05
-1.039906965161208e-05,-5.727501047658734e-05,4.28930543421302e-05,-7.56696863390971e-06,-9.260766091756523e-06,1.5891404473222792e-05
-2.1013605874031782e-05,-5.3676849347539246e-05,3.7031262763775885e-05,6.729868005095341e-07,-5.110490747028962e-06,9.133947060036007e-06
-2.4879065676941536e-05,-4.841608460992575e-05,3.335703877382912e-05,3.524053909131908e-06,-1.4638354741691728e-06,1.7524831719128997e-06
-2.2538382836501114e-05,-4.130353408982046e-05,3.386406024219468e-05,-1.6747087556723272e-06,5.699041594198206e-07,4.69522956336732e-06
-1.6960922948783264e-05,-3.604920857469551e-05,3.4590841096360236e-05,-1.2188159416837152e-05,1.4791908142797183e-06,2.3690769012318924e-05
-8.528565558663104e-06,-3.113196726189926e-05,3.456474587437697e-05,-2.321995998499915e-05,2.46725176111795e-06,4.45486803073436e-05
-1.3924646680152364e-07,-2.3734077331027947e-05,3.544853825587779e-05,-2.3788586986484006e-05,-1.4766427511858637e-06,6.846000178484246e-05
5.1621404963952955e-06,-2.3784188670106232e-05,3.569935142877512e-05,-8.529635124432389e-06,-6.623085937462747e-06,9.05488632270135e-05
9.164755283563863e-06,-3.3838263334473595e-05,3.655017280834727e-05,2.1225960153969936e-05,-9.88317606243072e-06,0.00010207305604126304
1.2219252312206663e-05,-4.4934829929843545e-05,3.842221849481575e-05,5.287136809783988e-05,-1.2138010788476095e-05,0.0001042965377564542
1.4348625882121269e-05,-5.06668548041489e-05,3.7111032725078985e-05,7.280928548425436e-05,-1.1948534847761039e-05,0.00010081264917971566
1.8341355826123618e-05,-5.13160957780201e-05,3.410436329431832e-05,7.493478187825531e-05,-1.1212679055461194e-05,9.252910240320489e-05
2.36963478528196e-05,-4.938472557114437e-05,3.1104307709028944e-05,6.349722389131784e-05,-1.309548952121986e-05,7.464613008778542e-05
2.6102530682692304e-05,-4.749017534777522e-05,2.841969944711309e-05,5.3530406148638576e-05,-1.4710429240949452e-05,6.31925358902663e-05
2.5921157430275343e-05,-4.906709000351839e-05,2.766431680356618e-05,5.0532096793176606e-05,-1.5055138646857813e-05,7.31112013454549e-05
2.565696559031494e-05,-5.119428169564344e-05,2.9462114980560727e-05,4.775383058586158e-05,-1.6143838365678675e-05,9.740459063323215e-05
2.680096986296121e-05,-5.351660729502328e-05,3.20297185680829e-05,4.16073489759583e-05,-1.4933444617781788e-05,0.00010902663780143484
2.8380698495311663e-05,-5.544001396629028e-05,3.2586613087914884e-05,3.9521117287222296e-05,-1.222279570356477e-05,0.00010366173955844715
2.7628018870018423e-05,-5.524158041225746e-05,3.1209281587507576e-05,4.119086224818602e-05,-1.087233340513194e-05,0.00010043328802566975
2.4337141439900734e-05,-5.2764833526453e-05,3.117291635135189e-05,4.370282476884313e-05,-1.169394363387255e-05,0.00010614346683723852
2.169521940231789e-05,-4.916883335681632e-05,3.379687404958531e-05,4.468307088245638e-05,-1.1572208677534945e-05,0.0001072445884346962
2.023181332333479e-05,-4.6934321289882064e-05,3.6794390325667337e-05,4.3948955863015726e-05,-9.428653356735595e-06,9.455281542614102e-05
2.0160154235782102e-05,-4.6844492317177355e-05,3.58902252628468e-05,4.309156793169677e-05,-7.875884875829797e-06,7.283658487722278e-05
2.1205907614785247e-05,-4.6187971747713163e-05,3.2284606277244166e-05,4.145945786149241e-05,-8.112720024655573e-06,4.9938469601329416e-05
2.2500073100673035e-05,-4.2924242734443396e-05,3.0414110369747505e-05,3.8453861634479836e-05,-7.085797733452637e-06,3.347449455759488e-05
2.4143715563695878e-05,-4.126163912587799e-05,3.217483390471898e-05,3.5279561416246e-05,-3.069922286158544e-06,2.91762626147829e-05
2.5885045033646747e-05,-4.403821731102653e-05,3.420894063310698e-05,3.1998177291825414e-05,6.766014859493907e-09,3.2826661481522024e-05
2.525048330426216e-05,-4.899007763015106e-05,3.2755709980847314e-05,3.250247391406447e-05,1.3111725820635911e-06,3.61386155418586e-05
2.304375266248826e-05,-5.182042878004722e-05,3.034858309547417e-05,3.610417479649186e-05,1.5129680832615122e-06,3.723221379914321e-05
2.2432774130720645e-05,-5.2174167649354786e-05,3.207777990610339e-05,3.1983163353288546e-05,3.017042615738319e-07,3.5804729122901335e-05
2.3729289750917815e-05,-4.9292044423054904e-05,3.586858292692341e-05,2.3891501768957824e-05,-9.381546419717779e-07,3.5472447052598e-05
2.5264500436605886e-05,-4.747456478071399e-05,3.6873148928862065e-05,1.946090196724981e-05,-3.6554099551722175e-06,3.637668123701587e-05
2.5727926185936667e-05,-5.1885759603464976e-05,3.603665390983224e-05,1.7920227037393488e-05,-8.094368240563199e-06,3.7082638300489634e-05
2.42269343289081e-05,-5.2784631407121196e-05,3.438531348365359e-05,2.2563863240065984e-05,-1.1514632205944508e-05,3.7086741940584034e-05
2.074016992992256e-05,-4.731462468043901e-05,3.384146839380264e-05,2.9543036362156272e-05,-1.029301347443834e-05,4.7911897127050906e-05
1.7181806470034644e-05,-4.472212458495051e-05,3.4503955248510465e-05,2.8871938411612064e-05,-9.069928637472913e-06,6.756059156032279e-05
1.5109330888662953e-05,-4.6262524847406894e-05,3.510039459797554e-05,2.348884845559951e-05,-9.9550352388178e-06,8.06725729489699e-05
1.5731644452898763e-05,-5.0205111620016396e-05,3.481019666651264e-05,1.8313212422071956e-05,-7.562329756183317e-06,8.360818901564926e-05
1.947256168932654e-05,-5.352206790121272e-05,3.4478962334105745e-05,1.670627352723386e-05,-7.468708645319566e-06,8.131651702569798e-05
2.559071253926959e-05,-5.355708344723098e-05,3.287118306616321e-05,2.290469092258718e-05,-7.59640943215345e-06,7.200304389698431e-05
2.872200457204599e-05,-5.123973096488044e-05,3.038028080482036e-05,3.36101402353961e-05,-4.508448000706267e-06,5.111733480589464e-05
2.9818416805937886e-05,-4.661908315028995e-05,2.8750151614076458e-05,3.3763310057111084e-05,-1.8796388303599088e-06,3.201280196662992e-05
3.0419168979278766e-05,-4.455029920791276e-05,2.5412882678210735e-05,1.7272956029046327e-05,-2.7120320282847388e-06,2.0712624973384663e-05
3.056697460124269e-05,-4.690275090979412e-05,2.3459060685127042e-05,-4.704763341578655e-06,-5.020718617743114e-06,1.5120224816200789e-05
3.6472883948590606e-05,-5.1759845518972725e-05,2.4016595489229076e-05,-1.552271714899689e-05,-4.846895535592921e-06,1.4723364984092768e-05
5.398142820922658e-05,-5.3511295845964924e-05,2.5334025849588215e-05,-1.4388569979928434e-05,-2.237066382804187e-06,1.6308154954458587e-05
7.026276580290869e-05,-4.883941437583417e-05,2.5402125174878165e-05,-9.046243576449342e-06,-8.161587174981833e-07,2.291896817041561e-05
7.038023613858968e-05,-4.452748180483468e-05,2.4979102818178944e-05,-4.243882358423434e-06,-1.8455252757121343e-06,3.655678665381856e-05
5.3405128710437566e-05,-4.6259858208941296e-05,2.619975020934362e-05,1.1677332167892018e-06,-4.378180165076628e-06,5.351656363927759e-05
2.6961142793879844e-05,-5.301420605974272e-05,2.872227742045652e-05,1.049939510266995e-05,-7.952495252538938e-06,6.667346315225586e-05
-5.457275165099418e-07,-5.8137800806434825e-05,3.116205334663391e-05,2.2144315153127536e-05,-1.073550356522901e-05,7.22023905836977e-05
-2.1329942683223635e-05,-5.897547453059815e-05,3.17212579830084e-05,3.165378439007327e-05,-1.2351117220532615e-05,7.324285979848355e-05
-2.8899774406454526e-05,-5.721140041714534e-05,2.890498399210628e-05,3.776952871703543e-05,-1.4303789612313267e-05,7.619978714501485e-05
-2.9244451070553623e-05,-5.5408771004294977e-05,2.4401244445471093e-05,4.343051841715351e-05,-1.639763286220841e-05,8.172171510523185e-05
-2.8458827728172764e-05,-5.51955854461994e-05,2.0844547179876827e-05,4.8635622079018503e-05,-1.585196514497511e-05,8.587991032982245e-05
-2.438840238028206e-05,-5.590811269939877e-05,1.792976399883628e-05,5.327001781552099e-05,-1.308115588471992e-05,8.737264579394832e-05
-1.5710942534497008e-05,-5.507332753040828e-05,1.495180549682118e-05,5.5877299018902704e-05,-1.1524147339514457e-05,8.439824887318537e-05
-8.210490705096163e-06,-5.1875216740882024e-05,1.4276665751822293e-05,6.0874845075886697e-05,-1.279446678381646e-05,8.07775286375545e-05
-2.861395387299126e-06,-4.770106534124352e-05,2.0665598640334792e-05,7.19668751116842e-05,-1.391476507706102e-05,8.379992505069822e-05
4.0086606531986035e-06,-4.3895430280826986e-05,2.8737100365106016e-05,8.108559995889664e-05,-1.2697058082267176e-05,8.683932537678629e-05
1.362020611850312e-05,-4.141766476095654e-05,3.362476854817942e-05,7.936242036521435e-05,-1.1038997399737127e-05,8.440566307399422e-05
2.2588666979572736e-05,-4.200868715997785e-05,3.331562038511038e-05,7.019068289082497e-05,-1.1660867130558472e-05,7.749938231427222e-05
2.527397737139836e-05,-4.4635977246798575e-05,3.2848736736923456e-05,6.00495477556251e-05,-1.2867059012933169e-05,6.211015715962276e-05
2.3438957214239053e-05,-4.71218372695148e-05,3.251087400713004e-05,4.714500391855836e-05,-1.4712212760059629e-05,4.9684749683365226e-05
2.3640173822059296e-05,-4.686013562604785e-05,2.9320559406187385e-05,3.240831574657932e-05,-1.717979830573313e-05,4.9794118240242824e-05
2.6474963306100108e-05,-4.5370579755399376e-05,3.0091105145402253e-05,2.3132375645218417e-05,-1.8848402760340832e-05,5.4328782425727695e-05
2.974959534185473e-05,-4.813681880477816e-05,3.465843110461719e-05,1.8901873772847466e-05,-1.734949546516873e-05,5.297570533002727e-05
3.077654037042521e-05,-5.161741137271747e-05,3.816300522885285e-05,2.0717372535727918e-05,-1.5635638192179613e-05,4.2916577513096854e-05
3.0279234124463983e-05,-5.2557894377969205e-05,3.7668298318749294e-05,2.696319825190585e-05,-1.5741417882964015e-05,3.435260077822022e-05
2.830555968102999e-05,-5.0972092140000314e-05,3.6915840610163286e-05,3.2969186577247456e-05,-1.6091287761810236e-05,3.845484752673656e-05
2.6407118639326654e-05,-5.034507921664044e-05,3.510599708533846e-05,3.470185401965864e-05,-1.4723485946888104e-05,5.080907794763334e-05
2.6213356250082143e-05,-5.227147266850807e-05,3.454127363511361e-05,3.545493746059947e-05,-1.0561872841208242e-05,6.198565824888647e-05
2.5546896722516976e-05,-5.498422251548618e-05,3.659301364677958e-05,3.481358726276085e-05,-7.493013526982395e-06,6.645087705692276e-05
2.2284129954641685e-05,-5.6861830671550706e-05,3.7131234421394765e-05,3.114731589448638e-05,-8.110090675472748e-06,6.70969529892318e-05
1.6028923710109666e-05,-5.655095083056949e-05,3.508190275169909e-05,2.7318565116729587e-05,-1.1807180271716788e-05,6.637763726757839e-05
9.927563041856047e-06,-5.5063210311345756e-05,3.346699304529466e-05,2.6682742827688344e-05,-1.3828795090375934e-05,6.252121238503605e-05
1.050067749019945e-05,-5.424095434136689e-05,3.496783028822392e-05,2.8558701160363853e-05,-1.2150062502769288e-05,5.724789298255928e-05
2.1473742890520953e-05,-5.4509160690940917e-05,3.7335521483328193e-05,2.754965316853486e-05,-7.931043910502922e-06,5.515307202585973e-05
3.833843584288843e-05,-5.6252443755511194e-05,3.8640358980046585e-05,2.2076013920013793e-05,-7.365008514170768e-06,5.760322528658435e-05
4.9715097702573985e-05,-5.8899026043945923e-05,3.823022052529268e-05,1.4698305676574819e-05,-1.0608068805595394e-05,5.763354056398384e-05
4.8564445023657754e-05,-5.9924237575614825e-05,3.6193108826410025e-05,1.1511684533616062e-05,-1.2400607374729589e-05,5.28066921106074e-05
4.1133280319627374e-05,-6.0550486523425207e-05,3.1360064895125106e-05,1.3639587450597901e-05,-1.1314838047837839e-05,4.832391277886927e-05
3.296268550911918e-05,-6.108266825322062e-05,2.7434942239779048e-05,1.709459684207104e-05,-9.888127351587173e-06,5.1373954192968085e-05
2.345012762816623e-05,-5.878830415895209e-05,2.667445551196579e-05,2.003086956392508e-05,-9.438239430892281e-06,5.6443404901074246e-05
1.5232068108161911e-05,-5.258313467493281e-05,3.0174380299285986e-05,2.304292138433084e-05,-1.0857902452698909e-05,5.508315734914504e-05
1.0177973308600485e-05,-4.598425584845245e-05,3.679727160488255e-05,2.698789285204839e-05,-1.2047641575918533e-05,5.268821041681804e-05
6.236864464881364e-06,-4.100308797205798e-05,3.828515764325857e-05,3.359861148055643e-05,-9.311685971624684e-06,5.178982610232197e-05
1.5693389059379115e-06,-3.598874536692165e-05,3.2468014978803694e-05,3.130193363176659e-05,-7.702935363340657e-06,5.046424485044554e-05
-1.4039890174899483e-06,-3.330182153149508e-05,2.9741020625806414e-05,2.6034149414044805e-05,-6.630907591897994e-06,4.9714559281710535e-05
1.9801102553174132e-06,-3.14023818646092e-05,2.8469419703469612e-05,2.932032111857552e-05,-4.618077127815923e-06,4.7814515710342675e-05
5.801482984679751e-06,-3.087355798925273e-05,2.41828674916178e-05,3.4986427635885775e-05,-3.0195592444215436e-06,4.684925443143584e-05
9.636230061005335e-06,-3.245118568884209e-05,2.2659653041046113e-05,3.09506940538995e-05,-1.8541468307375908e-06,4.910926872980781e-05
2.203910298703704e-05,-3.4104090445907786e-05,2.7181888071936555e-05,2.1355566786951385e-05,-1.2083545470886747e-06,5.118794797454029e-05
5.131244324729778e-05,-3.62751234206371e-05,3.548812310327776e-05,1.7473339539719746e-05,-2.3010268250800436e-06,5.2868756029056385e-05
8.39551939861849e-05,-3.9051941712386906e-05,3.873145760735497e-05,1.9485913071548566e-05,-4.887160685029812e-06,5.42944144399371e-05
9.662185766501352e-05,-4.5143293391447514e-05,3.663033930934034e-05,2.4665974706294946e-05,-7.331155757128727e-06,5.694957872037776e-05
8.717288437765092e-05,-5.004981721867807e-05,3.36374287144281e-05,2.7093288736068644e-05,-9.456412954023108e-06,6.182511424412951e-05
6.445861799875274e-05,-5.229213275015354e-05,3.4340213460382074e-05,2.7015585146727972e-05,-9.137736924458295e-06,6.489473162218928e-05
3.8153997593326494e-05,-5.371929000830278e-05,3.8072263123467565e-05,2.783630225167144e-05,-8.713686838746071e-06,6.239058711798862e-05
1.4631440535595175e-05,-5.505708759301342e-05,4.086384069523774e-05,3.0551371310139075e-05,-9.57082102104323e-06,5.598857387667522e-05
-1.0258693237119587e-06,-5.479578976519406e-05,4.215806256979704e-05,2.9616707251989283e-05,-1.0643966561474372e-05,5.2261118980823085e-05
-1.1725430340447929e-05,-5.3211213526083156e-05,4.1977637010859326e-05,2.691626468731556e-05,-1.156532653112663e-05,5.572997179115191e-05
-2.2772546799387783e-05,-5.0425009249011055e-05,4.0782801079330966e-05,2.744516677921638e-05,-9.43438590184087e-06,6.570627010660246e-05
-2.969271008623764e-05,-4.6205321268644184e-05,3.8358670281013474e-05,2.8880484023829922e-05,-3.89145588997053e-06,7.657043170183897e-05
-2.3541626433143392e-05,-4.235979213262908e-05,3.613978697103448e-05,3.0895669624442235e-05,-2.662418125964905e-07,8.426208660239354e-05
-5.395897915150272e-06,-3.951095277443528e-05,3.377231041667983e-05,3.544990249793045e-05,-8.820999255476636e-07,8.896362851373851e-05
1.2537081602204125e-05,-3.8251753721851856e-05,3.041950913029723e-05,4.2235162254655734e-05,-1.6875269466254395e-06,9.17674697120674e-05
2.1253210434224457e-05,-3.8410795241361484e-05,2.811719969031401e-05,5.0686496251728386e-05,-1.6714784578653052e-06,8.756539318710566e-05
2.229952224297449e-05,-4.079012433066964e-05,2.731704807956703e-05,5.7392313465243205e-05,-2.0666980162786786e-06,7.422576891258359e-05
2.1531055608647875e-05,-4.4257365516386926e-05,2.4918934286688454e-05,6.116311124060303e-05,-4.261294634488877e-06,5.419092485681176e-05
2.3170767235569656e-05,-4.912358053843491e-05,2.406615749350749e-05,5.754221274401061e-05,-8.43426551000448e-06,3.186174581060186e-05
2.5177672796417028e-05,-5.447662260849029e-05,2.6587153115542606e-05,4.346753121353686e-05,-1.1210454431420658e-05,1.542579229862895e-05
2.5092447685892694e-05,-5.610033986158669e-05,2.9119586542947218e-05,2.8610047593247145e-05,-1.2736258213408291e-05,9.836651770456228e-06
2.400166522420477e-05,-5.415470513980836e-05,3.0216711820685305e-05,1.9744658857234754e-05,-1.495566812081961e-05,1.2452571354515385e-05
2.369367030041758e-05,-5.194796176510863e-05,2.93469347525388e-05,1.2624218470591586e-05,-1.724632238619961e-05,8.99761653272435e-06
2.2845735657028854e-05,-5.369609425542876e-05,2.9364087822614238e-05,2.168736500607338e-06,-1.514441282779444e-05,2.835770601450349e-06
2.2245050786295906e-05,-5.5928208894329146e-05,3.446233313297853e-05,-5.180481821298599e-06,-1.3682897588296328e-05,8.86552754764125e-07
2.4736162231420167e-05,-5.5208154662977904e-05,3.9411763282259926e-05,-6.501419193227775e-06,-1.5488620192627423e-05,8.218123184633441e-06
2.5997424017987214e-05,-5.508177127921954e-05,3.8211524952203035e-05,-8.67310632202134e-07,-1.4289264072431251e-05,3.23605454468634e-05
2.571982258814387e-05,-5.592677553067915e-05,3.578473115339875e-05,9.008581400848925e-06,-1.248357420990942e-05,5.391383092501201e-05
2.5245459255529568e-05,-5.591370427282527e-05,3.455495243542828e-05,1.7899008526001126e-05,-1.1797084880527109e-05,6.136761658126488e-05
2.3696735297562554e-05,-5.0675374950515106e-05,3.568616375559941e-05,2.1813004423165694e-05,-1.5215880011965055e-05,5.98783626628574e-05
2.351188231841661e-05,-4.7184850700432435e-05,3.7560919736279175e-05,2.079733349091839e-05,-1.914645326905884e-05,5.903989222133532e-05
2.8725782613037154e-05,-4.573613841785118e-05,3.72843278455548e-05,1.9225855794502422e-05,-1.9356486518518068e-05,6.108728121034801e-05
3.492490213830024e-05,-4.3107887904625386e-05,3.677273343782872e-05,2.0176026737317443e-05,-1.6943240552791394e-05,6.893608224345371e-05
3.624191595008597e-05,-4.1082319512497634e-05,3.928634396288544e-05,2.504499389033299e-05,-1.5418794646393508e-05,8.507417805958539e-05
3.283738988102414e-05,-4.1757517465157434e-05,4.2373849282739684e-05,2.9564756914624013e-05,-1.3533882338379044e-05,9.637761831982061e-05
2.9156541131669655e-05,-4.236097083776258e-05,4.1225972381653264e-05,3.72730937669985e-05,-1.1106592864962295e-05,9.696065535536036e-05
2.7066771508543752e-05,-4.164783240412362e-05,3.87124418921303e-05,5.538356344914064e-05,-1.1573320989555214e-05,9.616021998226643e-05
2.482408490322996e-05,-4.1098115616478026e-05,3.6100966099184006e-05,8.049591269809753e-05,-1.4261810065363534e-05,0.00010151870810659602
2.230618520115968e-05,-4.1501181840430945e-05,3.373728759470396e-05,9.460798173677176e-05,-1.6698786566848867e-05,0.0001063252566382289
1.943661663972307e-05,-4.4441476347856224e-05,3.2986423320835456e-05,8.65898109623231e-05,-1.81379982677754e-05,0.00010255208326270804
1.6398214938817546e-05,-4.7513025492662564e-05,3.345472214277834e-05,6.677960482193157e-05,-2.1424219085020013e-05,8.991501817945391e-05
1.5249926946125925e-05,-4.9873699026647955e-05,3.287351501057856e-05,5.030759348301217e-05,-2.3964137653820217e-05,7.356962305493653e-05
1.91848048416432e-05,-5.209812297835015e-05,3.3286491088801995e-05,4.094778705621138e-05,-2.3519784008385614e-05,5.628074359265156e-05
2.3079053789842874e-05,-5.54861944692675e-05,3.3359479857608676e-05,3.827721229754388e-05,-2.1599802494165488e-05,4.053658994962461e-05
2.2920685296412557e-05,-5.647956641041674e-05,2.9354505386436358e-05,3.793651922023855e-05,-2.0353249055915512e-05,2.8319980629021302e-05
2.1569612727034837e-05,-5.512753705261275e-05,2.7857002351083793e-05,3.3230924600502476e-05,-1.901460018416401e-05,2.045672772510443e-05
2.337391379114706e-05,-5.418400905909948e-05,2.9272287065396085e-05,2.3613332814420573e-05,-1.763699583534617e-05,1.7992260836763307e-05
2.591296833998058e-05,-5.3197290981188416e-05,2.984696220664773e-05,1.91834205907071e-05,-1.5371480913017876e-05,2.65968974417774e-05
2.642410072439816e-05,-5.196778874960728e-05,3.051996827707626e-05,2.3457778297597542e-05,-1.5505333067267202e-05,4.7354020352941006e-05
2.5447083316976205e-05,-5.295154915074818e-05,2.598516221041791e-05,2.1859810658497736e-05,-1.801728103600908e-05,6.68330758344382e-05
2.4402528651989996e-05,-5.394495383370668e-05,2.006388058362063e-05,1.2252428859937936e-05,-1.5459192582056858e-05,7.501099025830626e-05
2.4077973648672923e-05,-5.409735604189336e-05,2.1378626115620136e-05,8.320480446855072e-06,-7.663074029551353e-06,7.728116906946525e-05
2.343193773413077e-05,-5.477211743709631e-05,2.562133340688888e-05,1.1712327250279486e-05,2.226063173793591e-07,7.916044705780223e-05
2.3581904315506108e-05,-5.493576099979691e-05,2.5541023205732927e-05,1.600476389285177e-05,2.025056801358005e-06,8.358581544598565e-05
2.36737250816077e-05,-5.318526382325217e-05,2.5201356038451195e-05,1.8309683582629077e-05,-3.7580891785182757e-06,8.739455370232463e-05
2.3897720893728547e-05,-5.1767739932984114e-05,2.8884225685033016e-05,1.6565480109420605e-05,-7.794755219947547e-06,8.541289571439847e-05
2.7196134396945126e-05,-5.217083526076749e-05,2.899157152569387e-05,9.741301255417056e-06,-7.453887974406825e-06,7.601726974826306e-05
3.840532372123562e-05,-5.4218529839999974e-05,2.7268901249044575e-05,-5.146838475411641e-07,-8.267396879091393e-06,6.893638055771589e-05
5.0879723858088255e-05,-5.8718531363410875e-05,2.6296749638277106e-05,-8.500121111865155e-06,-8.760452146816533e-06,7.075464236550033e-05
5.4166328482097015e-05,-6.251863669604063e-05,2.7815887733595446e-05,-1.2267673810129054e-05,-5.957681878498988e-06,7.06089340383187e-05
4.768637882079929e-05,-6.181962817208841e-05,2.9284599804668687e-05,-7.4139388743788e-06,-1.4384660289579188e-06,6.339448009384796e-05
3.7122379580978304e-05,-5.872662222827785e-05,2.8173080863780342e-05,6.997806849540211e-06,1.6781522163000773e-06,4.76496024930384e-05
2.5896715669659898e-05,-5.517029785551131e-05,2.740488707786426e-05,2.574408608779777e-05,2.036551450146362e-06,3.2711290259612724e-05
1.7645807020016946e-05,-5.305084050633013e-05,2.925943954323884e-05,4.078340498381294e-05,9.979339665733278e-07,2.783662966976408e-05
1.6370522644137964e-05,-5.128379416419193e-05,3.277753421571106e-05,4.2057334212586284e-05,1.517585559440704e-07,3.2464413379784673e-05
1.676078318268992e-05,-5.0041646318277344e-05,3.3363157854182646e-05,2.4482036678818986e-05,1.2351515579211991e-06,3.9758113416610286e-05
1.433146189810941e-05,-4.87380639242474e-05,3.224382089683786e-05,-2.795538193822722e-06,3.6009648738399846e-06,4.835518848267384e-05
1.4648328033217695e-05,-4.463360528461635e-05,3.355650551384315e-05,-2.5092438590945676e-05,3.934815140382852e-06,6.540094909723848e-05
2.6109024474862963e-05,-4.061232175445184e-05,3.624728924478404e-05,-3.393925362615846e-05,1.0846449640666833e-06,8.863885886967182e-05
4.4021708163199946e-05,-3.976469815825112e-05,3.4681797842495143e-05,-2.944836342066992e-05,-6.858155643385544e-07,0.00010657124948920682
5.137440894031897e-05,-3.948742232751101e-05,3.0419487302424386e-05,-2.5643543267506175e-05,-1.047595105774235e-06,0.00011317424650769681
4.01171128032729e-05,-3.868818748742342e-05,2.7089548893854953e-05,-2.529661105654668e-05,-4.972647275280906e-06,0.00010535007459111512
1.9841179891955107e-05,-4.169267776887864e-05,2.5798015485634096e-05,-1.4498012205876876e-05,-1.007460832624929e-05,7.913730223663151e-05
1.5698142306064256e-06,-4.809309757547453e-05,2.5600586013752036e-05,1.3173524166631978e-05,-1.2299766240175813e-05,3.731759716174565e-05
-1.3375869230003445e-06,-4.918536069453694e-05,2.900668368965853e-05,5.53910831513349e-05,-1.1098132745246403e-05,-4.0426180021313485e-06
4.88588739244733e-06,-4.418448224896565e-05,3.37391065841075e-05,9.968032827600837e-05,-9.191027857013978e-06,-3.3020947739714757e-05
2.870491698558908e-06,-4.0927570807980374e-05,3.5199707781430334e-05,0.00012914476974401623,-7.80577556724893e-06,-4.571197496261448e-05
-3.071604396609473e-06,-4.008263204013929e-05,3.252146052545868e-05,0.00013458610919769853,-9.308922017225996e-06,-2.349386522837449e-05
-7.98562541604042e-06,-3.966504300478846e-05,3.228220884921029e-05,0.00011838770296890289,-1.1350370186846703e-05,2.434231100778561e-05
-6.947315341676585e-06,-3.9028291212162e-05,3.6145913327345625e-05,0.00010432960698381066,-1.0327303243684582e-05,6.521237082779408e-05
-6.819905138399918e-07,-4.0944945794763044e-05,3.608444967539981e-05,0.00010198866220889613,-7.306905445148004e-06,8.244722994277254e-05
3.411705620237626e-06,-4.2704035877250135e-05,3.3527612686157227e-05,9.883409074973315e-05,-5.669754955306416e-06,7.467482646461576e-05
3.5952255075244466e-06,-4.365535278338939e-05,2.924632644862868e-05,9.074982517631724e-05,-6.971717994019855e-06,5.730275734094903e-05
-9.908436595651438e-07,-4.505786637309939e-05,2.516147833375726e-05,7.655334775336087e-05,-9.925778613251168e-06,5.2656192565336823e-05
6.431342285395658e-07,-4.9394002417102456e-05,2.416061943222303e-05,6.0996597312623635e-05,-1.5268149581970647e-05,6.79454387864098e-05
2.2736629034625366e-05,-5.606272679870017e-05,2.5546249162289314e-05,5.3838622989133e-05,-1.811888796510175e-05,8.723357314011082e-05
6.210939318407327e-05,-6.175202724989504e-05,2.708697684283834e-05,5.29522767465096e-05,-1.7330909031443298e-05,9.395254892297089e-05
9.513115219306201e-05,-6.427455082302913e-05,2.7892039724974893e-05,5.0924143579322845e-05,-1.593825436430052e-05,8.548566256649792e-05
0.0001020466661429964,-6.754216883564368e-05,2.7212754503125325e-05,4.505363176576793e-05,-1.510253696324071e-05,7.131975871743634e-05
8.472157060168684e-05,-7.122151146177202e-05,2.681110709090717e-05,3.473611286608502e-05,-1.6131731172208674e-05,6.150836270535365e-05
5.652030813507736e-05,-7.149721204768866e-05,2.8309881599852815e-05,2.4089460566756316e-05,-1.747300302668009e-05,5.923448043176904e-05
2.696318733796943e-05,-6.82125028106384e-05,2.930362279585097e-05,1.5217372492770664e-05,-1.589875500940252e-05,6.120139005361125e-05
-4.4910934775543865e-06,-6.24932799837552e-05,2.886705806304235e-05,7.668319085496478e-06,-1.262785281141987e-05,6.468949868576601e-05
-3.321568146930076e-05,-5.531493661692366e-05,3.078968802583404e-05,4.7337634896393865e-06,-9.864394087344408e-06,6.554721767315641e-05
-4.775660272571258e-05,-4.6801134885754436e-05,3.5588174796430394e-05,1.0649226169334725e-05,-8.206096936191898e-06,6.262325769057497e-05
-4.5752793084830046e-05,-4.202582931611687e-05,3.849293716484681e-05,2.071994276775513e-05,-7.247369921969948e-06,5.8003581216325983e-05
-3.5372555430512875e-05,-4.3639909563353285e-05,3.736731378012337e-05,2.3640577637706883e-05,-5.9529784266487695e-06,5.4067033488536254e-05
-2.066228807962034e-05,-4.511718361754902e-05,3.1906020012684166e-05,1.6409663658123463e-05,-7.3960786721727345e-06,5.1342107326490805e-05
-5.5295363381446805e-06,-3.905871562892571e-05,2.6332912966609e-05,6.245116765057901e-06,-1.2332602636888623e-05,4.810390237253159e-05
2.24674795390456e-06,-3.289655069238506e-05,2.1243662558845244e-05,2.467480499035446e-06,-1.4380253560375422e-05,4.544703915598802e-05
2.441797050778405e-06,-3.191129144397564e-05,2.0306675651227124e-05,6.842661150585627e-06,-1.2671279364440124e-05,4.830611214856617e-05
2.7362982564227423e-06,-3.8323705666698515e-05,2.277309431519825e-05,1.8107906726072542e-05,-1.148807041317923e-05,5.487422095029615e-05
8.88502017915016e-06,-4.694609378930181e-05,2.5381086743436754e-05,2.967577711388003e-05,-1.0728710549301468e-05,5.5525357311125845e-05
2.1651541828759946e-05,-5.1118509873049334e-05,3.140373883070424e-05,3.154025398544036e-05,-1.0176802788919304e-05,4.4933840399608016e-05
3.1297520763473585e-05,-5.1837014325428754e-05,4.1165141738019884e-05,2.624222543090582e-05,-6.389982445398346e-06,2.6723506380221806e-05
2.8872222173959017e-05,-5.343716838979162e-05,4.506928598857485e-05,1.8727461792877875e-05,-3.6895180528517812e-06,1.6994725228869356e-05
2.2200933017302305e-05,-5.565801257034764e-05,3.905617995769717e-05,1.6199237506953068e-05,-6.139924153103493e-06,2.0866755221504718e-05
2.2702775822835974e-05,-5.8546720538288355e-05,3.525552529026754e-05,1.6038278772612102e-05,-9.559313184581697e-06,4.076475670444779e-05
3.061718962271698e-05,-6.274520274018869e-05,3.7320896808523685e-05,8.53772598929936e-06,-8.710550901014358e-06,6.87127685523592e-05
3.9021757402224466e-05,-6.20414357399568e-05,4.0274237107951194e-05,-6.049295393495413e-07,-5.591926310444251e-06,8.873648766893893e-05
4.48480095656123e-05,-5.751566277467646e-05,3.815146192209795e-05,-6.805556040490046e-06,-6.0003212638548575e-06,9.633875743020326e-05
4.8430509195895866e-05,-5.4350624850485474e-05,3.641207149485126e-05,-6.630429197684862e-06,-7.1680155997455586e-06,9.139496978605166e-05
4.9342404963681474e-05,-5.416596832219511e-05,3.882815144606866e-05,-2.5078622911678394e-06,-6.640063475060742e-06,7.905497477622703e-05
4.6272867621155456e-05,-5.360473369364627e-05,4.067566987941973e-05,9.558973488310585e-07,-4.685983185481746e-06,6.808367470512167e-05
3.534604184096679e-05,-5.4090272897155955e-05,3.8890862924745306e-05,5.487699127115775e-06,-4.418548542162171e-06,6.205285171745345e-05
1.7036676581483334e-05,-5.3929583373246714e-05,3.833655864582397e-05,9.685634722700343e-06,-6.74961120239459e-06,6.020409273332916e-05
-2.2808504240856564e-07,-5.122367656440474e-05,3.982251655543223e-05,1.212168535857927e-05,-1.1771505342039745e-05,6.211059371707961e-05
-5.7331108109792694e-06,-4.976801574230194e-05,3.7668960430892184e-05,1.3408174709184095e-05,-1.6163583495654166e-05,6.598488107556477e-05
8.730769877729472e-06,-5.186890484765172e-05,3.29453032463789e-05,1.230171346833231e-05,-1.8675860701478086e-05,7.05958082107827e-05
3.9535018004244193e-05,-5.4760279454058036e-05,2.9737406293861568e-05,1.081179561879253e-05,-2.161919474019669e-05,7.468637340934947e-05
6.449864304158837e-05,-5.628775033983402e-05,2.979386226797942e-05,1.3887422028346919e-05,-2.310246964043472e-05,7.814203127054498e-05
6.432067311834544e-05,-5.644276097882539e-05,2.9279775844770484e-05,2.337677142350003e-05,-1.943969982676208e-05,8.18354164948687e-05
4.271477155270986e-05,-5.327184408088215e-05,2.734158988459967e-05,3.6492914659902453e-05,-1.53478958964115e-05,8.672416879562661e-05
1.557361611048691e-05,-4.8411944590043277e-05,2.7789534215116873e-05,4.551223537418991e-05,-1.362271996185882e-05,8.57039776747115e-05
-6.682458206341835e-06,-4.692504080594517e-05,3.2179770641960204e-05,4.714857641374692e-05,-1.1382740012777504e-05,6.884503818582743e-05
-1.9082657672697678e-05,-5.129996134201065e-05,3.474981713225134e-05,4.5722383219981566e-05,-1.1518352948769461e-05,3.612248838180676e-05
-2.07983139262069e-05,-5.333572335075587e-05,3.620914139901288e-05,4.3745534640038386e-05,-1.5738600268377922e-05,4.121947938529047e-07
-2.0167452021269128e-05,-5.1749473641393706e-05,3.8448084524134174e-05,4.02789592044428e-05,-1.8956374333356507e-05,-2.425298953312449e-05
-2.2660768081550486e-05,-4.890012860414572e-05,3.6233650462236255e-05,3.209780697943643e-05,-1.6869040337041952e-05,-3.4959106415044516e-05
-1.828513813961763e-05,-4.661937055061571e-05,2.8481821573222987e-05,2.1735411792178638e-05,-1.452940978197148e-05,-3.361951166880317e-05
-5.826036542089241e-08,-4.7266610636143014e-05,2.503382711438462e-05,1.3756419320998248e-05,-1.1770763194363099e-05,-2.281604611198418e-05
1.6986901755444705e-05,-4.794870983459987e-05,2.640799903019797e-05,1.1147605619044043e-05,-8.34562069940148e-06,-6.036499144101981e-06
2.601166306703817e-05,-4.5630567910848185e-05,2.7361234970157966e-05,1.9404607883188874e-05,-7.667667887290008e-06,1.7298456441494636e-05
2.8320828278083354e-05,-4.2620111344149336e-05,3.0404575227294117e-05,2.9066348361084238e-05,-7.791085408825893e-06,4.3529929826036096e-05
2.8717353416141123e-05,-4.3536721932468936e-05,3.68819892173633e-05,3.248023858759552e-05,-7.173390258685686e-06,7.005933002801612e-05
4.514577813097276e-05,-4.738436109619215e-05,4.179356983513571e-05,3.6420922697288916e-05,-6.573960035893833e-06,9.469284123042598e-05
9.08615838852711e-05,-5.336943286238238e-05,4.3497871956788003e-05,4.342336978879757e-05,-5.220835646468913e-06,0.00010990370356012136
0.00014400348300114274,-6.201041833264753e-05,4.430045009939931e-05,5.0106016715290025e-05,-6.54030600344413e-06,0.00011023660044884309
0.00016966962721198797,-7.064129022182897e-05,4.423554128152318e-05,5.316120223142207e-05,-1.057203462551115e-05,9.233946911990643e-05
0.00016112698358483613,-7.417063170578331e-05,4.2653988202800974e-05,5.0016802561003715e-05,-1.1703794370987453e-05,6.340258551063016e-05
0.00012630526907742023,-7.39454771974124e-05,3.842438673018478e-05,4.339983206591569e-05,-1.193225853057811e-05,3.839844430331141e-05
7.818032463546842e-05,-7.404048665193841e-05,3.643410309450701e-05,3.663310781121254e-05,-1.2804460311599541e-05,2.4579694581916556e-05
2.6193109079031274e-05,-7.468381227226928e-05,3.818490949925035e-05,3.2584834116278216e-05,-1.0992634088324849e-05,2.2802820240030997e-05
-2.6651441658032127e-05,-7.05494312569499e-05,3.876971095451154e-05,3.247118365834467e-05,-7.09445339452941e-06,3.0290853828773834e-05
-7.906030805315822e-05,-5.936986781307496e-05,3.395376188564114e-05,3.546705556800589e-05,-3.3945359518838814e-06,4.360577804618515e-05
-0.00011701695621013641,-4.827114753425121e-05,2.7152596885571256e-05,3.9638314774492756e-05,9.866658956525498e-07,5.5152362619992346e-05
-0.00012526960927061737,-4.1943487303797156e-05,2.343166670470964e-05,4.2125731852138415e-05,4.734641152026597e-06,5.9773115935968235e-05
-0.00010843083873623982,-3.82148937205784e-05,2.4192206183215603e-05,4.267591793905012e-05,4.892611741524888e-06,6.027359631843865e-05
-8.338712359545752e-05,-3.250150984968059e-05,2.5920891857822426e-05,4.2114159441553056e-05,2.92115305455809e-06,6.50937290629372e-05
-5.847907596034929e-05,-2.173838765884284e-05,2.341908293601591e-05,4.015196827822365e-05,3.074720780205098e-06,7.794973498675972e-05
-3.2608277251711115e-05,-1.0983235370076727e-05,1.7974834918277338e-05,3.768547685467638e-05,5.1331662689335644e-06,9.110457176575437e-05
-8.001878995855805e-06,-7.855674084567e-06,1.5519801308983006e-05,3.897401984431781e-05,4.3714103412639815e-06,9.415835666004568e-05
1.023979075398529e-05,-8.905019967642147e-06,1.777631950972136e-05,4.143448677496053e-05,1.0576396647365982e-07,9.05017222976312e-05
2.470078834448941e-05,-1.0440050573379267e-05,2.2653861378785223e-05,4.037300095660612e-05,-4.593966423271922e-06,9.249443974113092e-05
3.830965579254553e-05,-1.422703280695714e-05,2.6301087928004563e-05,3.4512911952333525e-05,-8.303123649966437e-06,0.00010331544035580009
4.573627302306704e-05,-2.1617192032863386e-05,2.5625882699387148e-05,2.2768786948290654e-05,-9.272692295780871e-06,0.00010944720270344988
4.683287988882512e-05,-2.8856042263214476e-05,2.3860699002398178e-05,1.0714958989410661e-05,-7.0120363488968e-06,0.00010288921475876123
4.5368855353444815e-05,-3.294961788924411e-05,2.553133526816964e-05,7.224338332889602e-06,-6.748918167431839e-06,9.477314597461373e-05
4.610511678038165e-05,-3.292288238299079e-05,2.667400440259371e-05,7.243995696626371e-06,-8.683885425853077e-06,9.528146620141342e-05
4.621238986146636e-05,-3.600650234147906e-05,2.3440265067620203e-05,8.229278137150686e-06,-1.0836535693670157e-05,0.00010139751248061657
4.14885398640763e-05,-4.461174466996454e-05,2.181312993343454e-05,1.2341350156930275e-05,-9.912700079439674e-06,0.00010263865260640159
3.57331991835963e-05,-4.938944766763598e-05,2.413698712189216e-05,1.91245799214812e-05,-5.678261004504748e-06,0.0001007955361274071
3.560191544238478e-05,-5.169167343410663e-05,2.850679084076546e-05,2.7992113246000372e-05,-6.472261247836286e-06,9.087612852454185e-05
3.985190414823592e-05,-5.291958586894907e-05,3.413239028304815e-05,3.513049887260422e-05,-8.969107511802576e-06,7.409020327031612e-05
4.0975864976644516e-05,-5.302979479893111e-05,3.780746919801459e-05,4.027305476483889e-05,-8.929769137466792e-06,5.97719190409407e-05
3.9885995647637174e-05,-5.3018826292827725e-05,3.677198401419446e-05,3.90353161492385e-05,-9.710142876429018e-06,5.598796997219324e-05
3.9098751585697755e-05,-5.385027907323092e-05,3.604099038057029e-05,3.052638203371316e-05,-1.1485783943498973e-05,6.151656270958483e-05
3.924750490114093e-05,-5.545381281990558e-05,3.7082110793562606e-05,1.9155935660819523e-05,-1.1114647350041196e-05,7.072555308695883e-05
4.089350477443077e-05,-5.7155466492986307e-05,3.581290366128087e-05,1.3283825865073595e-05,-1.060946215147851e-05,7.630945037817582e-05
4.205532604828477e-05,-5.688249439117499e-05,3.3014159271260723e-05,1.4480077879852615e-05,-1.1344454833306372e-05,7.556397758889943e-05
4.32682572863996e-05,-5.432920079329051e-05,3.103554990957491e-05,1.5245013855746947e-05,-1.4958958672650624e-05,7.001815538387746e-05
4.435802475200035e-05,-5.103739749756642e-05,3.160068081342615e-05,1.5266841728589498e-05,-2.073109135380946e-05,6.030163785908371e-05
4.409479151945561e-05,-5.1277336751809344e-05,3.4308002796024084e-05,1.543579674034845e-05,-2.4665250748512335e-05,5.138744381838478e-05
4.129533772356808e-05,-5.460740430862643e-05,3.9041449781507254e-05,1.4964667570893653e-05,-2.3620252250111662e-05,4.9755824875319377e-05
3.815318632405251e-05,-5.771401265519671e-05,4.2102976294700056e-05,1.4593193554901518e-05,-1.9180575691279955e-05,5.415993291535415e-05
3.608132101362571e-05,-5.864480044692755e-05,3.990537516074255e-05,1.5695224647060968e-05,-1.5198703295027371e-05,5.463748675538227e-05
3.286128048785031e-05,-5.6536398915341124e-05,3.507893779897131e-05,1.8019249182543717e-05,-1.2156324373790994e-05,4.950087168253958e-05
2.902332562371157e-05,-5.596296978183091e-05,3.184583329129964e-05,2.0912575564580038e-05,-1.1259944585617632e-05,4.274163438822143e-05
2.7803374905488454e-05,-5.8136036386713386e-05,3.1570616556564346e-05,2.085249434458092e-05,-1.1533687938936055e-05,4.2635048885131255e-05
2.91052128886804e-05,-5.980029163765721e-05,3.350944825797342e-05,2.026754191319924e-05,-1.0899551853071898e-05,4.719240314443596e-05
2.8775306418538094e-05,-6.113643030403182e-05,3.575461232685484e-05,2.1942607418168336e-05,-8.916715160012245e-06,5.339723065844737e-05
2.5028202799148858e-05,-6.122779450379312e-05,3.54959920514375e-05,2.567602314229589e-05,-7.670517334190663e-06,5.670092650689185e-05
2.00687391043175e-05,-5.966376920696348e-05,3.3181640901602805e-05,3.0929331842344254e-05,-8.844772310112603e-06,5.359122951631434e-05
1.8962848116643727e-05,-5.952096762484871e-05,3.0155077183735557e-05,3.209170245099813e-05,-1.0499560630705673e-05,4.975514093530364e-05
1.9849741875077598e-05,-6.048013528925367e-05,2.5625651687732898e-05,3.0574236006941646e-05,-1.2051305020577274e-05,4.905187597614713e-05
2.032845986832399e-05,-6.127476808615029e-05,2.313327058800496e-05,2.8588423447217792e-05,-1.439061452401802e-05,5.035780122852884e-05
1.9509587218635716e-05,-5.987539407215081e-05,2.459309689584188e-05,2.769195634755306e-05,-1.413875725120306e-05,5.144350870978087e-05
1.7136473616119474e-05,-6.076472345739603e-05,2.543925802456215e-05,2.4453473088215105e-05,-9.744907401909586e-06,5.737135870731436e-05
2.0650804799515754e-05,-6.294967170106247e-05,2.379033867327962e-05,1.5747375073260628e-05,-5.437411800812697e-06,6.368389585986733e-05
3.3645461371634156e-05,-6.211347499629483e-05,2.3210832296172157e-05,1.1812745469796937e-05,-4.706170329882298e-06,6.194044544827193e-05
4.7823446948314086e-05,-6.056383790564723e-05,2.479545037203934e-05,1.3302656043379102e-05,-5.5529676501464564e-06,6.415699317585677e-05
6.089137605158612e-05,-6.285979179665446e-05,2.7687905458151363e-05,1.5875502867856994e-05,-6.190383828652557e-06,7.080195064190775e-05
8.83456741576083e-05,-6.889366341056302e-05,3.1067116651684046e-05,2.2128002456156537e-05,-5.491086994879879e-06,7.453867874573916e-05
0.00012747205619234592,-7.492800068575889e-05,3.257527350797318e-05,3.518730227369815e-05,-7.014397397142602e-06,6.67212952976115e-05
0.00014786051178816706,-7.904368976596743e-05,3.406233372515999e-05,5.095498272567056e-05,-8.763914593146183e-06,4.8781501391204074e-05
0.00012907487689517438,-8.064592111622915e-05,3.419028871576302e-05,6.124843639554456e-05,-9.112692168855574e-06,2.483644857420586e-05
7.905191159807146e-05,-7.745640323264524e-05,3.2967724109767005e-05,5.981329013593495e-05,-8.032336154428776e-06,-2.6061147764266934e-06
1.9634160707937554e-05,-6.918113649589941e-05,3.172923970851116e-05,4.324864494265057e-05,-9.512696124147624e-06,-2.3829174097045325e-05
-3.556789306458086e-05,-5.629250517813489e-05,3.1142069929046556e-05,1.8229700799565762e-05,-1.2576269000419416e-05,-3.2193354854825884e-05
-7.751633529551327e-05,-4.315386468078941e-05,3.159647894790396e-05,2.0925779153913027e-06,-1.166876609204337e-05,-2.233517443528399e-05
-9.812094504013658e-05,-3.363464566064067e-05,3.453322278801352e-05,5.390812475525308e-06,-6.962318366277032e-06,5.170713848201558e-06
-9.775964281288907e-05,-2.85345122392755e-05,3.753892087843269e-05,2.1680252757505514e-05,-3.447816425250494e-06,3.9767910493537784e-05
-8.590552897658199e-05,-2.6663070457288995e-05,3.624000964919105e-05,3.8574373320443556e-05,-4.630122475646203e-06,6.496098649222404e-05
-6.756973743904382e-05,-2.372787639615126e-05,3.027768798347097e-05,4.698010889114812e-05,-9.115714419749565e-06,7.669977640034631e-05
-4.2814226617338136e-05,-2.1081445083837025e-05,2.5684705178719014e-05,4.741889642900787e-05,-1.2887828233942855e-05,8.5732142906636e-05
-1.8719742001849227e-05,-2.2532534785568714e-05,2.4991795726236887e-05,4.620101026375778e-05,-1.3389178093348164e-05,0.00010323855531169102
-5.1080405683023855e-06,-2.789489553833846e-05,2.3459047952201217e-05,4.8068101023091e-05,-1.5177758541540243e-05,0.00012213295849505812
1.2126190540584503e-06,-3.070357706747018e-05,2.1366740838857368e-05,5.461324326461181e-05,-1.6381649402319454e-05,0.00012809960753656924
9.510857125860639e-06,-3.199447019142099e-05,2.1087509594508447e-05,6.133563147159293e-05,-1.8186097804573365e-05,0.00011028811422875151
1.7901793398777954e-05,-4.0181632357416674e-05,2.2712496502208523e-05,6.511188257718459e-05,-1.78731916093966e-05,7.125006231945008e-05
2.082124956359621e-05,-4.910857023787685e-05,2.5422861654078588e-05,6.575533916475251e-05,-1.5236459148582071e-05,2.8686616133200005e-05
2.108952139678877e-05,-5.0696955440798774e-05,2.8793199817300774e-05,6.234591273823753e-05,-1.728467941575218e-05,7.347073278651806e-06
2.3138954929891042e-05,-4.764649929711595e-05,3.1151714210864156e-05,5.553214214160107e-05,-2.2651969629805535e-05,2.2000780518283136e-05
2.5574829123797826e-05,-4.791135870618746e-05,3.3389904274372384e-05,4.731937951873988e-05,-2.446118560328614e-05,5.4130316129885614e-05
2.5658782760729082e-05,-5.455724021885544e-05,3.2815900340210646e-05,4.5297729229787365e-05,-1.908830199681688e-05,7.759526488371193e-05
2.5177323550451547e-05,-5.668203448294662e-05,3.0495342798531055e-05,4.717105912277475e-05,-1.1223236469959375e-05,8.169006468961015e-05
2.8973870939807966e-05,-5.5218173656612635e-05,2.835068698914256e-05,4.5162880269344896e-05,-8.433571565547027e-06,6.644821405643597e-05
3.4688975574681535e-05,-5.5118540331022814e-05,2.8704842407023534e-05,3.85241728508845e-05,-1.0282908988301642e-05,5.4865933634573594e-05
3.931039464077912e-05,-5.525212691281922e-05,2.849053817044478e-05,3.495721102808602e-05,-1.524233266536612e-05,5.302408317220397e-05
3.992200436186977e-05,-5.2355750085553154e-05,2.847963696694933e-05,3.732291588676162e-05,-1.684890958131291e-05,4.951722439727746e-05
3.488281072350219e-05,-4.9020985898096114e-05,3.1726016459288076e-05,3.844566526822746e-05,-1.4962323803047184e-05,4.143304977333173e-05
2.983469676109962e-05,-4.821976108360104e-05,3.2818315958138555e-05,3.459108484094031e-05,-1.3968806342745665e-05,3.5775294236373156e-05
2.6953417545882985e-05,-4.984292172593996e-05,3.072258550673723e-05,2.8918651878484525e-05,-1.5409339539473876e-05,3.6247161915525794e-05
2.6359848561696708e-05,-5.0957092753378674e-05,2.9270282539073378e-05,2.203546500822995e-05,-1.8973256374010816e-05,3.780068800551817e-05
2.7262340154265985e-05,-4.7305398766184226e-05,3.0243156288634054e-05,1.473344127589371e-05,-1.9402135876589455e-05,4.09387685067486e-05
2.7766085622715764e-05,-4.098187491763383e-05,2.9383971195784397e-05,1.2045325092913117e-05,-1.5662957594031468e-05,4.503752279561013e-05
2.5956785975722596e-05,-3.6426601582206786e-05,2.8207468858454376e-05,1.380880712531507e-05,-1.281422191823367e-05,4.7389308747369796e-05
2.270679578941781e-05,-3.5495737392921e-05,2.9613533115480095e-05,1.5554771380266175e-05,-1.397926371282665e-05,4.751408414449543e-05
2.0995061277062632e-05,-3.5445558751234785e-05,3.3971948141697794e-05,1.5541960237897e-05,-1.5499030268983915e-05,4.781833922606893e-05
2.3012098608887754e-05,-3.6383335100254044e-05,3.853419912047684e-05,1.7722972188494168e-05,-1.574783345859032e-05,4.6668414142914116e-05
2.6732728656497784e-05,-3.8451362343039364e-05,3.8268830394372344e-05,2.043036511167884e-05,-1.348961450275965e-05,4.4857497414341196e-05
2.7878819309989922e-05,-4.14194400946144e-05,3.4585300454637036e-05,1.7363458027830347e-05,-1.0921275134023745e-05,4.4823438656749204e-05
2.759980270639062e-05,-4.2802930693142116e-05,3.4389646316412836e-05,9.218779268849175e-06,-9.768386007635854e-06,4.9017518904292956e-05
2.6210940632154234e-05,-4.4065589463571087e-05,3.6645033105742186e-05,5.338189566828078e-06,-8.523845281160902e-06,5.564654202316888e-05
2.3996264644665644e-05,-4.8919813707470894e-05,3.637857298599556e-05,9.184830560116097e-06,-8.363681445189286e-06,6.324204878183082e-05
2.35646639339393e-05,-5.379314097808674e-05,3.548391759977676e-05,1.7685926650301553e-05,-8.708158929948695e-06,7.035928138066083e-05
2.2663773052045144e-05,-5.340293137123808e-05,3.576768722268753e-05,2.316137579327915e-05,-5.17781472808565e-06,7.621222175657749e-05
2.07854882319225e-05,-5.0235848902957514e-05,3.6995701520936564e-05,2.035748002526816e-05,-5.493249091159669e-07,8.181049634004012e-05
2.3132703063311055e-05,-4.9833019147627056e-05,3.862834273604676e-05,1.5031065231596585e-05,-1.5870896277192514e-06,9.123035124503076e-05
2.2981099391472526e-05,-5.128294287715107e-05,3.66610438504722e-05,1.5099706615728792e-05,-4.865540631726617e-06,0.0001040231654769741
2.1052430383861065e-05,-5.084909935249016e-05,3.46584856742993e-05,1.9165145204169676e-05,-6.400397069228347e-06,0.00010743790335254744
2.4131873942678794e-05,-5.162511661183089e-05,3.387279502931051e-05,1.747704118315596e-05,-5.067215624876553e-06,0.00010411792754894122
2.822198803187348e-05,-5.4188072681427e-05,2.974873495986685e-05,9.836240678851027e-06,-6.075233613955788e-07,9.593910363037139e-05
2.8458427550503984e-05,-5.617932401946746e-05,2.7782623874372803e-05,5.4349766287487e-06,2.557868356234394e-06,7.99090921645984e-05
2.493163447070401e-05,-5.5491607781732455e-05,3.072556137340143e-05,5.367135145206703e-06,7.928259151412931e-07,6.607904651900753e-05
2.1870109776500612e-05,-5.068189057055861e-05,3.540402394719422e-05,1.1936164810322225e-05,-3.3547914881637553e-06,6.106817454565316e-05
1.9287446775706485e-05,-4.5697779569309205e-05,3.744819696294144e-05,2.2985803298070095e-05,-4.6870936785126105e-06,6.176650640554726e-05
1.9595769117586315e-05,-4.504892785917036e-05,3.5202247090637684e-05,3.0367100407602265e-05,-4.737461040349444e-06,6.063645560061559e-05
2.1650526832672767e-05,-4.810754398931749e-05,3.2819978514453396e-05,3.391563586774282e-05,-2.8375968668115092e-06,5.817127021146007e-05
2.160882650059648e-05,-5.05182943015825e-05,3.18549427902326e-05,3.21717161568813e-05,-2.008378942264244e-06,4.8445996071677655e-05
2.034453791566193e-05,-5.107533434056677e-05,3.0634604627266526e-05,2.2306394384941086e-05,-4.295452981750714e-06,2.8861057217000052e-05
1.9937051547458395e-05,-5.185661211726256e-05,2.8595022740773857e-05,6.9776406235178e-06,-6.949887392693199e-06,7.02366105542751e-06
2.0574652808136307e-05,-5.4757441830588505e-05,2.787133962556254e-05,-5.5588870964129455e-06,-7.471182925655739e-06,-5.759030045737745e-06
2.073073119390756e-05,-5.770850111730397e-05,2.7356833015801385e-05,-7.3122832873195875e-06,-5.621064246952301e-06,-3.258364131397684e-06
2.0436114937183447e-05,-5.973321822239086e-05,2.7710346330422908e-05,4.3156683204870205e-06,-3.368790430613444e-06,1.4938174899725709e-05
2.158503048121929e-05,-6.0320911870803684e-05,3.1237865186994895e-05,2.3225789846037515e-05,-4.187190825177822e-06,4.408373933983967e-05
2.449923886160832e-05,-6.0098362155258656e-05,3.4846099879359826e-05,4.0715916838962585e-05,-7.448645646945806e-06,7.07053259247914e-05
2.7199646865483373e-05,-6.034348189132288e-05,3.6291567084845155e-05,5.219687591306865e-05,-9.204786692862399e-06,7.951575389597565e-05
2.7586758733377792e-05,-6.110201502451673e-05,3.788458343478851e-05,5.705621151719242e-05,-1.1466583600849845e-05,6.437093543354422e-05
2.5654791897977702e-05,-6.08334485150408e-05,4.0221984818344936e-05,5.668899757438339e-05,-1.4931529221939854e-05,4.574606646201573e-05
2.3222695745062083e-05,-5.789993883809075e-05,3.876281334669329e-05,5.303798025124706e-05,-1.8686299881665036e-05,4.161153992754407e-05
2.1938991267234087e-05,-5.552238872041926e-05,3.4834043617593125e-05,4.9264133849646896e-05,-2.1928433852735907e-05,4.816118598682806e-05
2.1136658688192256e-05,-5.578657874139026e-05,3.4830551157938316e-05,4.7892521251924336e-05,-2.0765186491189525e-05,6.374163058353588e-05
1.9196921130060218e-05,-5.440195673145354e-05,3.9547288906760514e-05,4.9783120630308986e-05,-1.8179809558205307e-05,8.230139064835384e-05
1.8765067579806782e-05,-5.0310725782765076e-05,4.4343101762933657e-05,5.895395952393301e-05,-1.7142747310572304e-05,9.186506940750405e-05
1.99812220671447e-05,-4.8049449105747044e-05,4.663320942199789e-05,6.679946818621829e-05,-1.5337356671807356e-05,9.098061855183914e-05
2.110287096002139e-05,-4.9070797103922814e-05,4.336719212005846e-05,5.962378781987354e-05,-1.635278749745339e-05,8.060589607339352e-05
1.956189953489229e-05,-5.1129605708410963e-05,3.7908070225967094e-05,4.431961497175507e-05,-1.8097942302119918e-05,6.861751899123192e-05
1.8149619791074656e-05,-5.268739187158644e-05,3.302073309896514e-05,2.9913646358181722e-05,-1.7595255485503003e-05,6.362862768583e-05
1.7978793039219454e-05,-5.1931107009295374e-05,2.8595150070032105e-05,1.6725998648325913e-05,-1.2474910363380332e-05,6.610015407204628e-05
1.6277001122944057e-05,-5.183040047995746e-05,2.5955247110687196e-05,8.543223884771578e-06,-7.4935401244147215e-06,7.112923049135134e-05
1.393951697536977e-05,-5.4198124416870996e-05,2.7251384381088428e-05,1.170432642538799e-05,-6.306381237664027e-06,7.362803444266319e-05
1.3389803825702984e-05,-5.358703856472857e-05,3.376455424586311e-05,2.5847648430499248e-05,-6.4273481257259846e-06,7.159094093367457e-05
1.6332047380274162e-05,-5.158599014976062e-05,3.881723387166858e-05,4.6181601646821946e-05,-6.147045951365726e-06,7.409528188873082e-05
1.9761104340432212e-05,-5.06301257701125e-05,3.822867802227847e-05,6.67333515593782e-05,-7.188601557572838e-06,7.968247518874705e-05
2.0672581740655005e-05,-5.272088310448453e-05,3.3723066735547036e-05,7.744549657218158e-05,-8.319354492414277e-06,8.027086005313322e-05
1.7512362319394015e-05,-5.5635526223341e-05,3.0195213184924796e-05,6.926324567757547e-05,-7.129674031602917e-06,7.714291859883815e-05
1.3823343579133507e-05,-5.4791878937976435e-05,2.7725975087378174e-05,4.792091203853488e-05,-4.6451768866973e-06,7.454914884874597e-05
1.3608379049401265e-05,-5.093400250189006e-05,2.5778896088013425e-05,3.173092773067765e-05,-4.158343926974339e-06,7.116570486687124e-05
1.688760494289454e-05,-4.978300057700835e-05,2.5826491764746606e-05,2.8572772862389684e-05,-8.50850028655259e-06,6.482022581622005e-05
2.0056497305631638e-05,-5.260178295429796e-05,2.725704325712286e-05,3.291827306384221e-05,-1.304295346926665e-05,5.819685247843154e-05
2.1615969671984203e-05,-5.489080649567768e-05,2.6412055376567878e-05,3.6578087019734085e-05,-1.3342684724193532e-05,5.4247950174612924e-05
2.2979158529778942e-05,-5.45754301128909e-05,2.3703341867076233e-05,3.3930704375961795e-05,-1.0808508704940323e-05,5.4076313972473145e-05
2.5660276151029393e-05,-5.11636353621725e-05,2.347736335650552e-05,2.849839256668929e-05,-9.981761650124099e-06,5.532958675757982e-05
2.9536322472267784e-05,-4.682139842770994e-05,2.6056022761622444e-05,2.787585799524095e-05,-9.490311640547588e-06,5.644656630465761e-05
3.0032275390112773e-05,-4.483904194785282e-05,2.708873216761276e-05,2.932565075752791e-05,-9.085460078495089e-06,5.8476845879340544e-05
2.7181806217413396e-05,-4.399041790748015e-05,2.464194767526351e-05,2.8412408937583677e-05,-9.789384421310388e-06,6.11689465586096e-05
2.5339613785035908e-05,-4.4329743104754016e-05,2.2075695596868172e-05,2.7607213269220665e-05,-9.216692888003308e-06,6.054254117771052e-05
2.5690706024761312e-05,-4.5786782720824704e-05,2.216181019321084e-05,2.7297419364913367e-05,-6.942806066945195e-06,5.639713708660565e-05
2.7776595743489452e-05,-4.3763924622908235e-05,2.3962666091392748e-05,2.353904528717976e-05,-5.791936018795241e-06,5.4698171879863366e-05
2.8569325877469964e-05,-4.011513738078065e-05,2.5406465283595026e-05,1.6050731574068777e-05,-5.700685960619012e-06,6.056990605429746e-05
2.818831126205623e-05,-3.76256721210666e-05,3.0594314011977986e-05,1.1800427273556124e-05,-6.6443803916627076e-06,6.529480742756277e-05
2.706286613829434e-05,-3.757030935958028e-05,3.462431413936429e-05,1.1419107067922596e-05,-6.489768111350713e-06,6.674857286270708e-05
2.1976429707137868e-05,-3.9285536331590265e-05,3.4538719773991033e-05,9.473215868638363e-06,-3.7917484405625146e-06,6.326029688352719e-05
1.69378054124536e-05,-4.0076381992548704e-05,3.354383443365805e-05,7.740716682747006e-06,-4.166298822383396e-06,5.7648161600809544e-05
1.5352628906839527e-05,-3.982199996244162e-05,3.17965132126119e-05,8.309971235576086e-06,-7.854219802538864e-06,5.7226057833759114e-05
1.4807007573836017e-05,-4.347070716903545e-05,3.275598646723665e-05,1.1572396942938212e-05,-7.47305057302583e-06,6.534546992043033e-05
1.6186781067517586e-05,-4.777139110956341e-05,3.526694854372181e-05,1.521942249382846e-05,-4.072010142408544e-06,7.736479892628267e-05
2.005430724238977e-05,-4.780424933414906e-05,3.4638866054592654e-05,1.5258407984219957e-05,-3.9948904486664105e-06,8.670290844747797e-05
2.44214079430094e-05,-4.5323209633352235e-05,3.3304841053904966e-05,1.4265867321228143e-05,-7.894737791502848e-06,9.046231571119279e-05
2.6144745788769796e-05,-4.3618492782115936e-05,3.3948879718082026e-05,1.4096593986323569e-05,-9.276126547774766e-06,8.333793812198564e-05
2.5349716452183202e-05,-4.2575793486321345e-05,3.5154935176251456e-05,1.6428455637651496e-05,-7.250198450492462e-06,6.76894560456276e-05
2.3954635253176093e-05,-4.3327148887328804e-05,3.70926245523151e-05,2.0740933905472048e-05,-3.6767969504580833e-06,4.956560951541178e-05
2.2765596440876834e-05,-4.682597500504926e-05,4.012500721728429e-05,2.9869226636947133e-05,-1.0685289453249425e-06,3.7150137359276414e-05
2.3809025151422247e-05,-4.8295798478648067e-05,4.348654692876153e-05,4.0215130866272375e-05,-1.545774694022839e-06,2.7060759748565033e-05
2.649114867381286e-05,-4.612155316863209e-05,4.430658009368926e-05,4.15488138969522e-05,-1.987525820368319e-06,1.5499541405006312e-05
2.8481459594331682e-05,-4.265342067810707e-05,4.2074745579157025e-05,3.506626671878621e-05,-9.138422569776594e-07,3.218176516384119e-06
2.9236634873086587e-05,-4.0578303014626727e-05,3.805438245763071e-05,3.061839743168093e-05,1.0854569865159647e-07,-5.773303200840019e-06
3.0099074137979187e-05,-3.834835297311656e-05,3.536654548952356e-05,3.4219348890474066e-05,-2.2836934476799797e-07,-4.407529559102841e-06
3.085439675487578e-05,-3.827433829428628e-05,3.39626130880788e-05,4.179536335868761e-05,-1.5504376671415798e-09,1.1104260011052247e-05
3.161608037771657e-05,-4.294954123906791e-05,3.371666753082536e-05,4.5833101466996595e-05,-2.875334246255079e-07,3.8211401260923594e-05
3.0882798455422744e-05,-4.761457967106253e-05,3.5418164770817384e-05,4.077540143043734e-05,-1.2896601901957183e-06,6.605654925806448e-05
2.6924468329525553e-05,-4.804743730346672e-05,3.717908839462325e-05,2.7981948733213358e-05,-2.535594830987975e-06,8.108770271064714e-05
2.2554897441295907e-05,-4.609017196344212e-05,3.651064616860822e-05,1.3541422049456742e-05,-3.7594084005831974e-06,7.736687257420272e-05
2.1606274458463304e-05,-4.577243089443073e-05,3.250791269238107e-05,8.103429536276963e-07,-5.2253162721171975e-06,6.273003964452073e-05
2.109323577315081e-05,-4.889410047326237e-05,2.8996661058044992e-05,-7.0985674938128795e-06,-3.597395107135526e-06,4.8023503040894866e-05
1.9449240426183678e-05,-5.019236050429754e-05,3.0778272048337385e-05,-8.232639629568439e-06,-5.367008384382643e-07,3.39557409461122e-05
1.892477484943811e-05,-5.0558079237816855e-05,3.385378295206465e-05,-6.673143616353627e-06,-1.5224500202748459e-06,2.0583189325407147e-05
1.993996193050407e-05,-5.14301864313893e-05,3.3324718970106915e-05,7.325138540181797e-07,-2.7484707061375957e-06,1.97658173419768e-05
2.1173953427933156e-05,-4.9578811740502715e-05,2.971257890749257e-05,1.6269674233626574e-05,-4.354992142907577e-06,3.342709896969609e-05
2.1682955775759183e-05,-4.915384852210991e-05,2.3798624170012772e-05,3.0693823646288365e-05,-5.820425485580927e-06,5.0277252739761025e-05
1.9782861272688024e-05,-5.4293544963002205e-05,2.3109429093892686e-05,4.09087078878656e-05,-7.438934062520275e-06,5.8216359320795164e-05
1.6234453141805716e-05,-5.6901109928730875e-05,2.7122016035718843e-05,5.1464994612615556e-05,-1.0953843229799531e-05,5.7174183893948793e-05
1.771055940480437e-05,-5.5954504205146804e-05,2.8257021767785773e-05,5.9696809330489486e-05,-1.5112125765881501e-05,5.0709793868009e-05
2.245605173811782e-05,-5.6013159337453544e-05,2.9503522455343045e-05,6.030611621099524e-05,-1.7066353393602185e-05,4.135230483370833e-05
2.4459202904836275e-05,-5.510358096216805e-05,3.0442544812103733e-05,5.2351395424921066e-05,-1.560642704134807e-05,4.069045462529175e-05
2.3340668121818453e-05,-5.4514966905117035e-05,2.8533913791761734e-05,4.304948015487753e-05,-1.792080729501322e-05,5.5135649745352566e-05
2.1806958102388307e-05,-5.331314605427906e-05,2.8700609618681483e-05,3.328359525767155e-05,-2.1656867829733528e-05,7.172246114350855e-05
2.1857025785720907e-05,-5.2711729949805886e-05,3.039360854018014e-05,2.4297876734635793e-05,-2.323913031432312e-05,7.729213393758982e-05
2.4024193407967687e-05,-5.303459693095647e-05,3.1610408768756315e-05,2.115366623911541e-05,-2.293672332598362e-05,7.373965490842238e-05
2.5857327273115516e-05,-5.4460891988128424e-05,3.188927803421393e-05,2.1133042537258007e-05,-2.3349892217083834e-05,6.557872984558344e-05
2.6531684852670878e-05,-5.343277734937146e-05,3.220589132979512e-05,2.229064193670638e-05,-2.449476050969679e-05,6.09306589467451e-05
2.6220790459774435e-05,-5.080181290395558e-05,3.3468608307885006e-05,2.6602305297274143e-05,-2.5146455300273374e-05,6.538438174175099e-05
2.4602106350357644e-05,-4.9846054025692865e-05,3.510128226480447e-05,3.2748379453551024e-05,-2.4944434699136764e-05,7.455093873431906e-05
2.211954415543005e-05,-4.972681563231163e-05,3.4397755371173844e-05,3.596529859350994e-05,-2.4846376618370414e-05,7.885935337981209e-05
2.0340081391623244e-05,-4.917303886031732e-05,3.1046638468978927e-05,3.3400599932065234e-05,-2.4718816348467954e-05,7.353033288381994e-05
1.8891674699261785e-05,-4.8746285756351426e-05,2.869603667932097e-05,2.703395875869319e-05,-2.2256419470068067e-05,6.306036084424704e-05
1.7587113688932732e-05,-4.894052108284086e-05,2.7963335014646873e-05,2.6185680326307192e-05,-1.9578308638301678e-05,6.0392310842871666e-05
1.825913568609394e-05,-4.798589361598715e-05,2.934961776190903e-05,3.100965477642603e-05,-1.6799849618109874e-05,7.036501483526081e-05
1.9408333173487335e-05,-4.6182001824490726e-05,3.1756262615090236e-05,3.2743711926741526e-05,-1.2523485565907322e-05,7.86571399657987e-05
1.7825470422394574e-05,-4.6076500439085066e-05,3.388594268471934e-05,2.88284554699203e-05,-7.080203886289382e-06,7.273664232343435e-05
1.4464318155660294e-05,-4.768662984133698e-05,3.453440513112582e-05,2.4835640942910686e-05,-6.701002803310985e-06,6.131234840722755e-05
1.5688810890424065e-05,-4.9847403715830296e-05,3.383519288036041e-05,2.726068123592995e-05,-1.2820219126297161e-05,5.7516404922353104e-05
2.1530764570343308e-05,-5.502929343492724e-05,3.315934372949414e-05,4.475806053960696e-05,-1.814075221773237e-05,5.903637793380767e-05
2.3654474716749974e-05,-5.900866017327644e-05,3.213342642993666e-05,7.231094059534371e-05,-2.117145231750328e-05,6.260684313019738e-05
1.868587605713401e-05,-5.97722246311605e-05,3.35520671796985e-05,8.577774133300409e-05,-1.925380820466671e-05,6.60354271531105e-05
1.4495278264803346e-05,-5.830214649904519e-05,3.6218563764123246e-05,6.88065483700484e-05,-1.2628466720343567e-05,6.708063301630318e-05
1.5210369383567013e-05,-5.4567091865465045e-05,3.711575118359178e-05,3.9807000575819984e-05,-7.534336873504799e-06,7.244001608341932e-05
1.7198826753883623e-05,-5.189200965105556e-05,3.5754994314629585e-05,2.1985102648613974e-05,-2.7818109629151877e-06,8.323914516950026e-05
1.8802300473907962e-05,-5.2725179557455704e-05,3.241595550207421e-05,1.4880204616929404e-05,-2.5450417524552904e-06,8.808288839645684e-05
1.9966151739936322e-05,-5.413899998529814e-05,3.0589661037083715e-05,1.8950757294078358e-05,-6.450781256717164e-06,8.002473623491824e-05
2.1781201212434098e-05,-5.369060454540886e-05,3.131342236883938e-05,2.7025287636206485e-05,-1.0382913387729786e-05,6.217911868588999e-05
2.1321264284779318e-05,-4.99455418321304e-05,3.3854499633889645e-05,3.25280889228452e-05,-1.1068764251831453e-05,4.15826216340065e-05
1.6594816770520993e-05,-4.7025572712300345e-05,3.290248059784062e-05,3.642334195319563e-05,-1.2131597941333894e-05,2.9080280000925995e-05
1.2665414033108391e-05,-4.961247759638354e-05,2.80825170193566e-05,3.720074528246187e-05,-1.448843704565661e-05,2.8206637580296956e-05
1.3067175132164266e-05,-5.376201806939207e-05,2.3438720745616592e-05,3.3673732104944065e-05,-1.4870561244606506e-05,3.156309685437009e-05
1.6576685084146447e-05,-5.688484088750556e-05,2.1412617570604198e-05,2.4488346753059886e-05,-1.3331411537365057e-05,3.566652594599873e-05
1.8945809642900713e-05,-5.6908455007942393e-05,2.3048803996061906e-05,1.4807859770371579e-05,-1.0840495633601677e-05,4.6654156903969124e-05
2.0167472030152567e-05,-5.407922071754001e-05,2.6298979719285853e-05,7.633254426764324e-06,-9.096490430238191e-06,6.357470556395128e-05
2.0603081793524325e-05,-5.1652943511726335e-05,2.7267789846519008e-05,6.5069343690993264e-06,-1.048172725859331e-05,7.430984260281548e-05
1.9715429516509175e-05,-4.998636359232478e-05,2.5831626771832816e-05,1.1595911928452551e-05,-1.4849252693238668e-05,7.573733455501497e-05
1.6514828530489467e-05,-4.815416468773037e-05,2.346680048503913e-05,1.8370476027484983e-05,-1.7555308659211732e-05,7.175969949457794e-05
1.4411402844416443e-05,-4.751339656650089e-05,2.0279390810173936e-05,2.4130986275849864e-05,-1.534919283585623e-05,6.843644223408774e-05
1.7463873518863693e-05,-5.0279577408218756e-05,1.9356997654540464e-05,2.5622719476814382e-05,-1.0345209375373088e-05,6.799096445320174e-05
2.346188011870254e-05,-5.337359107215889e-05,2.3378323021461256e-05,2.281816523463931e-05,-8.806102414382622e-06,6.764518184354529e-05
2.785621654766146e-05,-5.258404780761339e-05,3.0494240490952507e-05,2.2335494577419013e-05,-8.859376976033673e-06,6.24290551058948e-05
2.8202994144521654e-05,-4.837503729504533e-05,3.4893098927568644e-05,2.6604944650898688e-05,-5.897472419746919e-06,5.590726141235791e-05
2.4761566237430088e-05,-4.551268648356199e-05,3.624461533036083e-05,2.9123713829903863e-05,-2.178778458983288e-06,5.4458087106468156e-05
2.3437065465259366e-05,-4.7914712922647595e-05,3.630338324001059e-05,2.923784268205054e-05,-4.3285576794005465e-06,5.391791637521237e-05
2.93512948701391e-05,-5.2080427849432454e-05,3.440567525103688e-05,3.119996836176142e-05,-9.335459253634326e-06,4.746683771372773e-05
3.427293268032372e-05,-5.0163071136921644e-05,3.2281455787597224e-05,3.502652543829754e-05,-1.138260995503515e-05,3.831258800346404e-05
3.2662115700077266e-05,-4.6176061005098745e-05,3.4453831176506355e-05,3.616343019530177e-05,-1.0082951121148653e-05,3.47482091456186e-05
2.904383472923655e-05,-4.832470585824922e-05,3.904334516846575e-05,4.102054299437441e-05,-5.069154667580733e-06,3.973198909079656e-05
2.901163315982558e-05,-5.1274397264933214e-05,4.091662776772864e-05,5.079533366370015e-05,-2.3307309220399475e-06,5.056227382738143e-05
3.6833032936556265e-05,-4.867048482992686e-05,4.015402009827085e-05,5.351237268769182e-05,-6.297875188465696e-06,5.536168100661598e-05
4.979135701432824e-05,-4.7566136345267296e-05,3.8220056012505665e-05,5.530725320568308e-05,-1.0384308552602306e-05,5.50025979464408e-05
6.024379035807215e-05,-5.015645001549274e-05,3.783395732170902e-05,5.803846943308599e-05,-1.2357954801700544e-05,5.639667870127596e-05
6.669250433333218e-05,-5.418787259259261e-05,3.753344572032802e-05,5.886540384381078e-05,-1.1359333257132675e-05,6.319552630884573e-05
6.394771480700001e-05,-6.043941539246589e-05,3.432134326430969e-05,5.8282515965402126e-05,-1.2194445844215807e-05,7.35826397431083e-05
5.19852910656482e-05,-6.224874960025772e-05,3.126779483864084e-05,4.855130100622773e-05,-1.539274126116652e-05,8.003351831575856e-05
3.762005144380964e-05,-6.158756150398403e-05,3.1378127459902316e-05,3.478347571217455e-05,-1.5669626009184867e-05,8.254314889200032e-05
2.1246278265607543e-05,-6.0436519561335444e-05,3.198322156094946e-05,2.3864189643063582e-05,-1.478467856941279e-05,8.289609831990674e-05
-5.588304929915466e-07,-5.892732588108629e-05,3.296145223430358e-05,1.595667708897963e-05,-1.560933560540434e-05,8.522666030330583e-05
-2.3856049665482715e-05,-5.4420510423369706e-05,3.584670776035637e-05,1.387085831083823e-05,-1.5930372683214955e-05,9.21383107197471e-05
-3.931581522920169e-05,-4.9008602218236774e-05,3.859300340991467e-05,2.1573065168922767e-05,-1.354613596049603e-05,9.866592154139653e-05
-4.43450735474471e-05,-4.499531860346906e-05,4.1285140468971804e-05,2.9640978027600795e-05,-8.353351404366549e-06,9.526187204755843e-05
-3.818091863649897e-05,-3.8375568692572415e-05,4.200090916128829e-05,2.829325785569381e-05,-3.0851049359625904e-06,8.435483323410153e-05
-2.097766991937533e-05,-3.047286554647144e-05,4.022173015982844e-05,1.893822627607733e-05,-3.074551386816893e-07,7.471215212717652e-05
-3.0985773946667905e-07,-2.7568032237468287e-05,3.6322715459391475e-05,9.3080525402911e-06,-7.723634780631983e-07,6.648765702266246e-05
1.3050046618445776e-05,-3.1209143344312906e-05,3.17668636853341e-05,5.122140919411322e-06,-2.7704368221748155e-06,5.69085605093278e-05
1.7222759197466075e-05,-3.371155253262259e-05,2.9536970032495447e-05,3.994087819592096e-06,-2.814404979289975e-06,4.324800829635933e-05
1.8055005057249218e-05,-3.423988164286129e-05,2.8260250473977067e-05,1.4677577837574063e-06,-2.3849345325288596e-06,2.974339440697804e-05
1.8615959561429918e-05,-3.623674638220109e-05,2.64333557424834e-05,7.287473522410437e-07,-2.8216666123626055e-06,2.0831233996432275e-05
1.97168265003711e-05,-3.9339724025921896e-05,2.5966066459659487e-05,8.131464710459113e-06,-4.868493306275923e-06,1.4423855645873118e-05
2.08940364245791e-05,-4.116224226891063e-05,2.6245055778417736e-05,2.1118939912412316e-05,-6.790280622226419e-06,1.3862856576452032e-05
2.3967721062945202e-05,-4.3118347093695775e-05,2.5092644136748277e-05,2.7388432499719784e-05,-6.448176463891286e-06,2.308279727003537e-05
2.9063792680972256e-05,-4.6519944589817896e-05,2.4282691811094992e-05,1.9908984540961683e-05,-5.232975127000827e-06,3.727358125615865e-05
3.2058756914921105e-05,-5.228575537330471e-05,2.687884625629522e-05,9.319779564975761e-06,-2.7644875899568433e-06,4.806856668437831e-05
3.490213930490427e-05,-5.598732241196558e-05,2.787526318570599e-05,1.044035434460966e-05,4.3324294551894127e-07,5.455304199131206e-05
3.4299442631891e-05,-5.581275399890728e-05,2.4421902708127163e-05,2.347122244827915e-05,-1.9309075014461996e-06,6.077480793464929e-05
3.184650995535776e-05,-5.479189712787047e-05,2.366863736824598e-05,2.9412634830805473e-05,-6.1526193348981906e-06,6.454229151131585e-05
3.303453922853805e-05,-5.465511276270263e-05,2.6739473469206132e-05,2.626382774906233e-05,-9.335095455753617e-06,6.498843140434474e-05
3.2823256333358586e-05,-5.610368316411041e-05,2.5325924070784822e-05,2.1367079170886427e-05,-1.1547554095159285e-05,6.755923823220655e-05
2.8307958928053267e-05,-5.7287114032078534e-05,1.7884885892271996e-05,1.8584680219646543e-05,-1.1262428415648174e-05,7.1275258960668e-05
2.414567097730469e-05,-5.7395853218622506e-05,1.4157591976982076e-05,1.955972402356565e-05,-1.2464001883927267e-05,7.578755321446806e-05
2.5362553060404025e-05,-5.530286216526292e-05,2.0377658074721694e-05,1.747995884215925e-05,-1.4262191143643577e-05,9.005904576042667e-05
2.9292412364156917e-05,-5.1929393521277234e-05,2.9599912522826344e-05,1.7308413589489646e-05,-1.3893446521251462e-05,9.947270882548764e-05
2.9162738428567536e-05,-5.014343332732096e-05,3.170765921822749e-05,2.2277210518950596e-05,-1.273198904527817e-05,8.850040467223153e-05
2.5765528334886767e-05,-5.0452716095605865e-05,3.150471820845269e-05,2.442894401610829e-05,-1.157141105068149e-05,5.995959145366214e-05
2.375368057982996e-05,-5.130210774950683e-05,3.390376878087409e-05,2.4085749828373082e-05,-1.1851648196170572e-05,3.347938400111161e-05
2.2025644284440205e-05,-5.1490464102244005e-05,3.7114346923772246e-05,2.6198009436484426e-05,-1.2250880899955519e-05,2.5610537704778835e-05
2.1141748220543377e-05,-5.05499956489075e-05,3.8782425690442324e-05,3.0497902116621844e-05,-1.3453370229399297e-05,2.7154857889399864e-05
2.1637064492097124e-05,-4.9926162319025025e-05,3.927980287699029e-05,3.159892003168352e-05,-1.4940605069568846e-05,2.607472924864851e-05
2.4084129108814523e-05,-5.192570461076684e-05,3.972997728851624e-05,2.8606185878743418e-05,-1.3628509805130307e-05,1.7847683920990676e-05
2.677980410226155e-05,-5.305817467160523e-05,3.8603993743890896e-05,2.3041002350510098e-05,-9.810686606215313e-06,5.630464784189826e-06
2.6684027034207247e-05,-5.1718689064728096e-05,3.417762491153553e-05,1.5998029994079843e-05,-6.754092737537576e-06,-7.016685685812263e-06
2.6116213120985776e-05,-5.030364991398528e-05,3.0022853025002405e-05,1.3255009434942622e-05,-5.985911229799967e-06,-1.5084742699400522e-05
2.7316787964082323e-05,-5.124965537106618e-05,2.8886965083074756e-05,1.958282882696949e-05,-7.3714900281629525e-06,-1.7185115211759694e-05
2.9513341360143386e-05,-5.336075264494866e-05,2.8369311621645465e-05,3.246454070904292e-05,-1.0031694728240836e-05,-1.0449431101733353e-05
3.002727316925302e-05,-5.552182483370416e-05,2.714093352551572e-05,4.6013807150302455e-05,-1.107137359213084e-05,7.0691526161681395e-06
2.9420951250358485e-05,-5.6847871746867895e-05,2.6455580155015923e-05,5.6764460168778896e-05,-1.1536516467458569e-05,2.94446072075516e-05
3.151632336084731e-05,-5.423346738098189e-05,2.747384314716328e-05,6.541293987538666e-05,-1.3052224858256523e-05,4.7475823521381244e-05
3.173141158185899e-05,-4.9925685743801296e-05,3.1348245101980865e-05,7.341388118220493e-05,-1.3588281944976188e-05,6.306559953372926e-05
2.8422447940101847e-05,-4.9205416871700436e-05,3.473980541457422e-05,7.721608562860638e-05,-1.1994367923762184e-05,7.760125299682841e-05
2.541458889027126e-05,-5.027439692639746e-05,3.245209882152267e-05,7.687458128202707e-05,-1.0850405487872194e-05,8.621921006124467e-05
2.3770571715431288e-05,-5.13302547915373e-05,2.430406129860785e-05,7.052021828712896e-05,-1.109980894398177e-05,8.922020788304508e-05
2.5127095796051435e-05,-5.4819785873405635e-05,2.001089887926355e-05,5.8941390307154506e-05,-1.2932110621477477e-05,9.30996538954787e-05
2.178446993639227e-05,-5.697769665857777e-05,2.4309061700478196e-05,4.986897329217754e-05,-1.6098843843792565e-05,9.385286830365658e-05
1.7283649867749773e-05,-5.880486060050316e-05,2.6345298465457745e-05,4.337716745794751e-05,-1.9512155631673522e-05,8.845177217153832e-05
1.7399990611011162e-05,-5.8447887568036094e-05,2.9240962248877622e-05,3.400375135242939e-05,-2.0465698980842717e-05,8.240685565397143e-05
1.671001700742636e-05,-5.553813753067516e-05,3.2223950256593525e-05,2.612811658764258e-05,-1.9416624127188697e-05,7.742662273813039e-05
1.3897192729928065e-05,-5.252929622656666e-05,3.20551625918597e-05,2.562859663157724e-05,-2.026797301368788e-05,7.516924233641475e-05
1.2898935892735608e-05,-4.9615799071034417e-05,2.9053457183181308e-05,2.6178315238212235e-05,-2.1727983039454557e-05,7.362950418610126e-05
1.4597717381548136e-05,-4.832012200495228e-05,2.423459227429703e-05,2.3441707526217215e-05,-1.9932387658627704e-05,8.029924356378615e-05
1.7220392692252062e-05,-4.881305721937679e-05,2.1688123524654657e-05,1.791966315067839e-05,-1.8406935851089656e-05,9.20343809411861e-05
1.9663526472868398e-05,-5.026043800171465e-05,2.313610639248509e-05,1.2564100870804396e-05,-1.795259231585078e-05,9.840586426435038e-05
2.0248615328455344e-05,-4.9515892897034064e-05,2.5452613044762984e-05,8.386133231397253e-06,-1.698424239293672e-05,9.704207332106307e-05
2.0556939489324577e-05,-4.9892925744643435e-05,2.4290571673191153e-05,4.453204837773228e-06,-1.4455536984314676e-05,9.193205914925784e-05
2.2116806576377712e-05,-5.214549310039729e-05,2.2176751372171566e-05,4.203065145702567e-06,-1.1477864973130636e-05,8.404069376410916e-05
2.4565521016484126e-05,-5.314491500030272e-05,2.236473301309161e-05,9.263554602512158e-06,-8.37701099953847e-06,7.056292815832421e-05
2.392154601693619e-05,-5.3870015108259395e-05,2.6130699552595615e-05,1.5320822058129124e-05,-4.794933829543879e-06,5.682406117557548e-05
2.061896702798549e-05,-5.502961721504107e-05,2.9478149372152984e-05,2.0310180843807757e-05,-4.112041096959729e-06,4.476863978197798e-05
1.7056187061825767e-05,-5.658165173372254e-05,2.9827822800143622e-05,2.4591750843683258e-05,-4.443388661456993e-06,3.4652199246920645e-05
1.6027934179874137e-05,-5.806645640404895e-05,2.9017084671068005e-05,2.6487316063139588e-05,-3.5637478958960855e-06,2.779331771307625e-05
1.759059159667231e-05,-5.9590358432615176e-05,3.10903305944521e-05,2.4637234673718922e-05,-3.1680988286098e-06,2.1583484340226278e-05
2.0275332644814625e-05,-5.933232750976458e-05,3.377771281520836e-05,1.9001814507646486e-05,-2.3774139208398992e-06,1.601455187483225e-05
2.0978530301363207e-05,-5.677794979419559e-05,3.401297362870537e-05,1.4306260709417984e-05,1.7010836472763913e-06,1.7720258256304078e-05
1.9978706404799595e-05,-5.431666431832127e-05,3.337008092785254e-05,1.3904062143410556e-05,4.070564045832725e-06,2.754790875769686e-05
1.960418558155652e-05,-5.368795245885849e-05,3.205136090400629e-05,1.5513152902713045e-05,1.862377644101798e-06,3.745506546692923e-05
1.976472958631348e-05,-5.3576091886498034e-05,3.1876974389888346e-05,1.4694152923766524e-05,-1.8376516663920484e-07,4.445585727808066e-05
2.032367956417147e-05,-5.269179746392183e-05,3.492710675345734e-05,1.2088565199519508e-05,-1.1481380397526664e-06,4.970952431904152e-05
2.1247869881335646e-05,-5.179043728276156e-05,3.84532286261674e-05,1.6166810382856056e-05,-3.2869004371605115e-06,5.1478731620591134e-05
2.387487984378822e-05,-4.9174333980772644e-05,3.9854519854998216e-05,3.237805503886193e-05,-6.604264854104258e-06,5.251119364402257e-05
2.6916390197584406e-05,-4.263834853190929e-05,3.754157296498306e-05,5.6111864978447556e-05,-6.177425802889047e-06,5.2250597946112975e-05
2.7715012038243003e-05,-3.7363941373769194e-05,3.644280513981357e-05,7.582768012071028e-05,-2.442534878355218e-06,5.385506301536225e-05
2.7091360607300885e-05,-3.772977288463153e-05,3.6723267839988694e-05,8.025766146602109e-05,-4.197559064778034e-06,6.506280624307692e-05
2.675545692909509e-05,-4.047401307616383e-05,3.594248119043186e-05,6.990969995968044e-05,-8.503300705342554e-06,8.696700388099998e-05
2.560750363045372e-05,-4.292965240892954e-05,3.85058592655696e-05,4.930546128889546e-05,-1.125521430367371e-05,0.00010842437768587843
2.4316264898516238e-05,-4.336423080530949e-05,4.053446537000127e-05,2.8086185920983553e-05,-1.1878565601364244e-05,0.00011773512960644439
2.2508756956085563e-05,-4.4659667764790356e-05,3.745965659618378e-05,1.0176609976042528e-05,-9.763863090483937e-06,0.000109944558062125
2.1488189304363914e-05,-4.6846620534779504e-05,3.1786286854185164e-05,-7.760083349239721e-07,-8.074238394328859e-06,8.366791007574648e-05
2.0240182493580505e-05,-5.0070764700649306e-05,2.9244509278214537e-05,8.136169526551384e-06,-1.0052614015876316e-05,5.374030297389254e-05
1.9371464077266864e-05,-5.37683445145376e-05,3.0953873647376895e-05,2.652779221534729e-05,-1.3439655958791263e-05,3.506053326418623e-05
1.9904959117411636e-05,-5.4452397307613865e-05,3.190520510543138e-05,4.073933087056503e-05,-1.4390041542355902e-05,3.132131678285077e-05
2.0510758986347355e-05,-5.117421824252233e-05,3.042591742996592e-05,4.508037818595767e-05,-1.3027765817241743e-05,3.754741919692606e-05
1.9607768990681507e-05,-4.6806228056084365e-05,2.9165790692786686e-05,4.4178683310747147e-05,-9.951363608706743e-06,4.844297654926777e-05
1.9261806301074103e-05,-4.607157825375907e-05,3.0188068194547668e-05,4.599794192472473e-05,-9.223695087712258e-06,5.837332719238475e-05
2.266010233142879e-05,-4.700235876953229e-05,3.1810315704206005e-05,4.851851554121822e-05,-1.064505340764299e-05,6.535086140502244e-05
2.874385791074019e-05,-4.859380715060979e-05,3.1307583412854e-05,4.582182737067342e-05,-1.0732333976193331e-05,6.868100899737328e-05
3.201752406312153e-05,-4.828780220123008e-05,2.7820151444757357e-05,3.6101868317928165e-05,-9.627551662561018e-06,6.972539995331317e-05
2.7301066438667476e-05,-4.5231907279230654e-05,2.5484414436505176e-05,2.7963411412201822e-05,-9.505859452474397e-06,6.947236397536471e-05
1.6236059309449047e-05,-4.2707273678388447e-05,2.7905056413146667e-05,2.8179540095152333e-05,-9.840862730925437e-06,6.734384078299627e-05
6.00642715653521e-06,-4.47967104264535e-05,3.166294118273072e-05,3.4906719520222396e-05,-1.0054171980300453e-05,6.459781434386969e-05
1.3621875041280873e-06,-5.0352780817775056e-05,3.3325391996186227e-05,4.010062912129797e-05,-1.0002361705119256e-05,6.049757212167606e-05
1.161209794986462e-08,-5.503530701389536e-05,3.316584843560122e-05,3.863830352202058e-05,-9.815576049732044e-06,5.464276546263136e-05
6.961278131711879e-07,-5.5691951274638996e-05,3.153856596327387e-05,3.3706557587720454e-05,-1.036162575474009e-05,5.028215309721418e-05
4.601748969434993e-06,-5.3318228310672566e-05,2.9297407309059054e-05,3.22748273902107e-05,-1.1681569048960228e-05,5.060465991846286e-05
1.1969882507401053e-05,-5.212917676544748e-05,2.9384842491708696e-05,3.371320781297982e-05,-1.190299735753797e-05,5.491076080943458e-05
1.9751476429519244e-05,-5.032380067859776e-05,3.110280886176042e-05,3.1181836675386876e-05,-1.0378901606600266e-05,5.65397713216953e-05
2.7117359422845766e-05,-4.7947287384886295e-05,3.162443681503646e-05,1.9850449461955577e-05,-1.1388657185307238e-05,5.65593691135291e-05
3.349056714796461e-05,-4.555270788841881e-05,3.1184954423224553e-05,5.416504791355692e-06,-1.142971268563997e-05,6.061811654944904e-05
3.8855203456478193e-05,-4.2542371375020593e-05,3.1823376048123464e-05,-4.279479071556125e-06,-1.1071957487729378e-05,6.232646410353482e-05
4.073922536917962e-05,-4.042579894303344e-05,3.6927100154571235e-05,-1.4702745829708874e-06,-1.2248436178197153e-05,6.391121860360727e-05
3.7814024835824966e-05,-4.31658118031919e-05,4.3083047785330564e-05,7.38228709451505e-06,-1.1932917914236896e-05,6.689948349958286e-05
3.371919592609629e-05,-5.000286182621494e-05,4.2426021536812186e-05,1.0651975571818184e-05,-1.09256125142565e-05,7.204767462098971e-05
3.2441756047774106e-05,-5.5865115427877754e-05,3.9301510696532205e-05,1.212122333527077e-05,-8.453481314063538e-06,8.355358295375481e-05
3.4581385989440605e-05,-5.7246783399023116e-05,4.01515826524701e-05,1.7859771105577238e-05,-8.517807145835832e-06,9.644615784054622e-05
3.577259121811949e-05,-5.4466981964651495e-05,4.320725201978348e-05,2.266579758725129e-05,-9.468280950386543e-06,9.622814832255244e-05
3.419072163524106e-05,-5.1983181037940085e-05,4.31215921707917e-05,1.803512714104727e-05,-7.385617209365591e-06,8.297407475765795e-05
3.3522559533594176e-05,-5.054898065282032e-05,3.932355684810318e-05,6.330881660687737e-06,-4.656459168472793e-06,7.168648153310642e-05
3.2878007914405316e-05,-4.8046495066955686e-05,3.4040534956147894e-05,-3.7966813124512555e-06,-4.26250699092634e-06,6.768809544155374e-05
2.9197968615335412e-05,-4.678265759139322e-05,3.219621430616826e-05,-8.058436833380256e-06,-3.4514969229348935e-06,6.293909973464906e-05
2.5507066311547533e-05,-4.8413374315714464e-05,3.535766518325545e-05,-1.0589012163109146e-05,-2.467538024575333e-06,5.469571624416858e-05
2.170780317101162e-05,-4.920026185573079e-05,3.841690340777859e-05,-9.372170097776689e-06,-2.878190571209416e-06,5.0161845138063654e-05
2.0085237338207662e-05,-4.6589095290983096e-05,3.820727579295635e-05,-3.1689428396930452e-06,-3.156835646223044e-06,5.243780469754711e-05
2.2177655409905128e-05,-4.400970647111535e-05,3.504214691929519e-05,7.635974725417327e-06,-1.834941372180765e-06,5.51816301594954e-05
2.4764576664892957e-05,-4.611325857695192e-05,3.03338256344432e-05,1.704709393379744e-05,1.3955198596704577e-07,5.550901551032439e-05
2.5147506676148623e-05,-5.1321603677934036e-05,2.7777583454735577e-05,2.1445115635287948e-05,-3.9327846934611443e-07,5.4684525821357965e-05
2.3050168238114566e-05,-5.527504254132509e-05,3.0188553864718415e-05,2.463175951561425e-05,-3.3836688544397475e-06,5.0132861360907555e-05
2.083670005958993e-05,-5.594790854956955e-05,3.526175350998528e-05,3.3788302971515805e-05,-8.080357474682387e-06,4.3004853068850935e-05
1.964568036783021e-05,-5.285070074023679e-05,3.815726449829526e-05,4.543449540506117e-05,-9.440286703465972e-06,3.889384606736712e-05
1.932329723786097e-05,-4.792133768205531e-05,3.9181271858979017e-05,4.7495272156083956e-05,-6.763832516298862e-06,3.900461888406426e-05
2.0739300452987663e-05,-4.426640589372255e-05,4.2056981328641996e-05,4.3479984014993533e-05,-6.311493052635342e-06,3.584738078643568e-05
2.5594335966161452e-05,-4.294843893148936e-05,4.4509910367196426e-05,4.702202568296343e-05,-1.0115156328538433e-05,2.700481127249077e-05
3.0182731279637665e-05,-4.142830948694609e-05,4.464083394850604e-05,5.9943326050415635e-05,-1.2867973964603152e-05,1.4388669114850927e-05
3.115676736342721e-05,-4.066210749442689e-05,4.361064566182904e-05,7.029464177321643e-05,-1.0779551303130575e-05,1.932719669639482e-06
3.0191913538146764e-05,-4.241391798132099e-05,4.319368599681184e-05,7.288698543561623e-05,-9.119218702835497e-06,1.58475347689091e-06
2.867380862880964e-05,-4.532156526693143e-05,4.1216902900487185e-05,7.186767470557243e-05,-9.631393368181307e-06,1.2360159416857641e-05
2.6690808226703666e-05,-5.024177153245546e-05,3.499008744256571e-05,6.32088485872373e-05,-1.1221776730963029e-05,2.7214597139391117e-05
2.333540396648459e-05,-4.9139856855617836e-05,3.1117979233385995e-05,5.141835572430864e-05,-1.7162108633783646e-05,5.045449506724253e-05
1.9074508600169793e-05,-4.216636443743482e-05,3.380382258910686e-05,4.675165473599918e-05,-1.705576323729474e-05,7.836227450752631e-05
1.7244447008124553e-05,-3.876459231832996e-05,3.4142722142860293e-05,4.0336806705454364e-05,-1.3469877558236476e-05,9.736674110172316e-05
1.8140914107789285e-05,-4.136596180615015e-05,3.1289277103496715e-05,2.7030428100260906e-05,-1.3639203643833753e-05,9.618290641810745e-05
2.0178122213110328e-05,-4.820873436983675e-05,2.948356450360734e-05,1.706407238089014e-05,-1.399653592670802e-05,7.702710718149319e-05
2.1143110643606633e-05,-5.333253648132086e-05,3.144319271086715e-05,1.8258891941513866e-05,-1.4579397429770324e-05,5.3224412113195285e-05
2.0018069335492328e-05,-5.5276454077102244e-05,3.660644142655656e-05,2.383617902523838e-05,-1.3288362424646039e-05,3.902030221070163e-05
1.6607580619165674e-05,-5.4514977819053456e-05,3.934709093300626e-05,3.0108059945632704e-05,-9.065282029041555e-06,3.096625368925743e-05
1.3448380741465371e-05,-5.269646499073133e-05,3.782600470003672e-05,2.9361090128077194e-05,-6.7195364863437135e-06,2.6124436772079207e-05
1.3916462194174528e-05,-5.0914124585688114e-05,3.65362866432406e-05,2.3053624317981303e-05,-1.0622645277180709e-05,2.7562127797864377e-05
1.663044713495765e-05,-5.0874052249128e-05,3.698344880831428e-05,1.9756131223402917e-05,-1.5531282770098187e-05,3.799486148636788e-05
1.8839720723917708e-05,-5.010176755604334e-05,3.770126568269916e-05,2.1926247427472845e-05,-1.6800620869616978e-05,5.294461880112067e-05
1.8499262296245433e-05,-4.760167212225497e-05,3.786525849136524e-05,2.6529596652835608e-05,-1.614283064554911e-05,6.519968155771494e-05
1.6722362488508224e-05,-4.5821732783224434e-05,3.639988790382631e-05,3.090973768848926e-05,-1.4827620361756999e-05,6.872373342048377e-05
1.4868619473418221e-05,-4.4829241232946515e-05,3.492820178507827e-05,3.362939241924323e-05,-1.40828105941182e-05,6.297331856330857e-05
1.5834670193726197e-05,-4.421706762514077e-05,3.491312963888049e-05,3.757306330953725e-05,-1.516971860837657e-05,5.876507202629e-05
1.737139973556623e-05,-4.3848249333677813e-05,3.716746505233459e-05,4.3988584366161376e-05,-1.4515509064949583e-05,6.310938624665141e-05
1.3968062376079615e-05,-4.6911067329347134e-05,3.8315087294904515e-05,4.715528120868839e-05,-1.2632154721359257e-05,7.113397441571578e-05
9.443279850529507e-06,-5.289911132422276e-05,3.506386565277353e-05,4.3491152609931305e-05,-1.3571325325756334e-05,7.18294468242675e-05
9.713480721984524e-06,-5.6706645409576595e-05,2.958822005894035e-05,3.442078013904393e-05,-1.571743814565707e-05,6.66482956148684e-05
1.2636974133783951e-05,-5.547807086259127e-05,2.473692802595906e-05,2.665275678737089e-05,-1.3379206393437926e-05,6.572276470251381e-05
1.42940089062904e-05,-5.009633241570555e-05,2.033953023783397e-05,2.0220953956595622e-05,-1.0170880159421358e-05,7.452542195096612e-05
1.4543302313541062e-05,-4.676974640460685e-05,2.013272933254484e-05,1.4017252397025004e-05,-1.0756492883956525e-05,8.351752330781892e-05
1.892791988211684e-05,-4.67871104774531e-05,2.372785638726782e-05,1.2091575626982376e-05,-1.3414321074378677e-05,8.432714821537957e-05
2.368216883041896e-05,-4.5743297960143536e-05,2.5439954697503708e-05,1.7513435523142107e-05,-1.343061012448743e-05,8.145343599608168e-05
2.1471245418069884e-05,-4.369837188278325e-05,2.4017988835112192e-05,2.114251947205048e-05,-1.3121628398948815e-05,8.355089812539518e-05
1.5992398402886465e-05,-4.326757698436268e-05,2.5399796868441626e-05,1.943847382790409e-05,-1.3967754966870416e-05,8.338097541127354e-05
1.359387442789739e-05,-4.643328065867536e-05,2.7335518097970635e-05,1.7213109458680265e-05,-1.6641495676594786e-05,7.699644629610702e-05
1.5558927771053277e-05,-4.835538493352942e-05,2.8619004297070205e-05,1.89793518075021e-05,-1.879729825304821e-05,6.779821706004441e-05
1.658838846196886e-05,-5.006192441214807e-05,2.852847865142394e-05,2.6093282940564677e-05,-1.7102507626987062e-05,6.316434155451134e-05
1.658882320043631e-05,-5.067806341685355e-05,2.4521432351320982e-05,3.7734567740699276e-05,-1.5796409570612013e-05,6.608271360164508e-05
1.662212707742583e-05,-5.0403217755956575e-05,2.1257568732835352e-05,4.774436820298433e-05,-1.366921696899226e-05,7.249639020301402e-05
1.8415774320601486e-05,-4.9495953135192394e-05,2.0334618966444395e-05,5.156237239134498e-05,-1.2391318705340382e-05,7.984297553775832e-05
1.83845404535532e-05,-4.8033885832410306e-05,2.296854290761985e-05,5.113983934279531e-05,-1.3088516425341368e-05,8.242673357017338e-05
1.7628020941629075e-05,-4.993957918486558e-05,2.441641663608607e-05,4.883381552645005e-05,-1.3517281331587583e-05,8.317863830598071e-05
1.7744541764841415e-05,-5.3192965424386784e-05,2.3930992028908804e-05,4.029889532830566e-05,-1.004685054795118e-05,8.36126200738363e-05
1.7139002011390403e-05,-5.386373231885955e-05,2.3628706912859343e-05,2.5523215299472213e-05,-6.956862762308447e-06,8.61248336150311e-05
1.893157786980737e-05,-5.2981162298237905e-05,2.4749615477048792e-05,9.346836122858804e-06,-4.641604846256087e-06,8.85437912074849e-05
2.2344340322888456e-05,-5.338972550816834e-05,2.5791679945541546e-05,-6.164215392345795e-06,-3.992794972873526e-06,8.650508243590593e-05
2.5903229470713995e-05,-5.310996129992418e-05,2.6525358407525346e-05,-1.6077297914307564e-05,-4.5581346057588235e-06,7.935040048323572e-05
2.732336724875495e-05,-5.0571703468449414e-05,2.5983183149946854e-05,-1.639878064452205e-05,-5.04952095070621e-06,6.786920130252838e-05
2.7762947865994647e-05,-4.82124560221564e-05,2.4144843337126076e-05,-7.016496056166943e-06,-6.9174870986898895e-06,5.83016371820122e-05
2.8916490919073112e-05,-4.8254230932798237e-05,2.3291020625038072e-05,4.170571173744975e-06,-9.395443157700356e-06,5.473398050526157e-05
2.968843728012871e-05,-4.8633366532158107e-05,2.582193337730132e-05,7.79436231823638e-06,-1.0610811841615941e-05,5.4794429161120206e-05
2.8835489501943812e-05,-4.8909467295743525e-05,2.838898217305541e-05,5.0237326831847895e-06,-9.883908205665648e-06,5.9068221162306145e-05
2.8179483706480823e-05,-4.961084414389916e-05,2.5508996259304695e-05,4.6718732846784405e-06,-1.1078483112214599e-05,6.68690336169675e-05
2.9424400054267608e-05,-5.007598883821629e-05,2.131718792952597e-05,5.883994617761346e-06,-1.0335106708225794e-05,6.890430086059496e-05
3.360940536367707e-05,-4.822145638172515e-05,1.8936065316665918e-05,6.643474080192391e-06,-6.226606728887418e-06,5.842915561515838e-05
4.1869872802635655e-05,-4.830092075280845e-05,2.0011471860925667e-05,1.4450098205998074e-05,-3.4998561204702128e-06,3.943602860090323e-05
4.731455919682048e-05,-5.1060927944490686e-05,2.5681520128273405e-05,3.538497185218148e-05,-3.0373601020983187e-06,2.3550743208033964e-05
4.4407799578038976e-05,-5.212324685999192e-05,3.337805901537649e-05,6.735087663400918e-05,-2.4084426968329353e-06,1.9897099264198914e-05
3.890656807925552e-05,-5.026348662795499e-05,3.880979784298688e-05,9.93984576780349e-05,-6.278804903558921e-06,2.7201274860999547e-05
3.2740397728048265e-05,-4.9190319259651005e-05,4.186530350125395e-05,0.00011898795492015779,-1.2074189726263285e-05,3.2489919249201193e-05
2.804997711791657e-05,-5.0625476433197036e-05,4.261555659468286e-05,0.00011511904449434951,-1.2718408470391296e-05,3.319478491903283e-05
2.7709780624718405e-05,-5.3238945838529617e-05,4.431129127624445e-05,9.160832996712998e-05,-7.468378043995472e-06,3.9908296457724646e-05
2.7454239898361266e-05,-5.7985063904197887e-05,4.485653334995732e-05,6.359726103255525e-05,-7.610960437887115e-06,5.14660932822153e-05
2.0900784875266254e-05,-6.0816055338364094e-05,4.090201764483936e-05,3.95631323044654e-05,-1.377918215439422e-05,5.7863602705765516e-05
8.244753189501353e-06,-6.180722266435623e-05,3.7696441722800955e-05,3.356156958034262e-05,-1.638128378544934e-05,5.8124867791775614e-05
-4.031921434943797e-06,-6.127445521997288e-05,3.916179412044585e-05,4.100071237189695e-05,-1.519022316642804e-05,5.499901817529462e-05
-1.0300364010618068e-05,-5.7222852774430066e-05,4.012048520962708e-05,4.3975876906188205e-05,-1.3337042219063733e-05,5.882093319087289e-05
-9.90222815744346e-06,-5.365192555473186e-05,3.7039531889604405e-05,3.745442518265918e-05,-1.1899061973963398e-05,7.053406443446875e-05
-9.771263648872264e-06,-5.247584340395406e-05,3.486398418317549e-05,2.7420588594395667e-05,-9.491757737123407e-06,7.426391675835475e-05
-1.0543339158175513e-05,-5.371660154196434e-05,3.386383468750864e-05,2.107526051986497e-05,-8.381421139347367e-06,6.237755587790161e-05
-8.853266990627162e-06,-5.55146143597085e-05,3.3687967516016215e-05,2.0849292923230678e-05,-8.3718450696324e-06,4.289929347578436e-05
-4.676235676015494e-06,-5.586275801761076e-05,3.5187746107112616e-05,2.605290137580596e-05,-7.925613317638636e-06,2.308569492015522e-05
1.601470103196334e-06,-5.542616418097168e-05,3.4271230106242e-05,3.0443359719356522e-05,-6.514831966342172e-06,4.728783096652478e-06
7.379204816970741e-06,-5.3696065151598305e-05,3.0506247640005313e-05,2.9849437851225957e-05,-6.971144557610387e-06,-9.523033916991608e-09
1.1504201211209875e-05,-5.026953658671118e-05,2.800966103677638e-05,2.4422221031272784e-05,-8.713642273505684e-06,1.306731610384304e-05
1.3705743185710162e-05,-4.707157131633721e-05,2.8562288207467645e-05,1.905143290059641e-05,-8.837695531838108e-06,3.3417109079891816e-05
1.485581469751196e-05,-4.68172256660182e-05,3.0489683922496624e-05,1.5881998479017057e-05,-7.223272405099124e-06,5.10170248162467e-05
1.57693175424356e-05,-4.941985389450565e-05,3.371934508322738e-05,1.3640569704875816e-05,-7.519874088757206e-06,6.245036638574675e-05
1.814722600101959e-05,-5.146352486917749e-05,3.628798367572017e-05,1.0260776434733998e-05,-9.5127352324198e-06,6.624598609050736e-05
2.2398382498067804e-05,-4.8740072088548914e-05,3.7364789022831246e-05,8.463466656394303e-06,-9.329663043899927e-06,6.519958697026595e-05
2.6629501007846557e-05,-4.250368510838598e-05,3.6911387724103406e-05,1.1298897334199864e-05,-6.8597905737988185e-06,6.51998634566553e-05
2.8494157959357835e-05,-3.850705616059713e-05,3.1907697120914236e-05,1.6078467524494044e-05,-6.1669989008805715e-06,6.730828317813575e-05
2.9452563467202708e-05,-3.9427552110282704e-05,2.43875510932412e-05,2.0348834368633106e-05,-1.013922428683145e-05,6.834026135038584e-05
3.264103361289017e-05,-4.309748692321591e-05,2.1484542230609804e-05,2.4991213649627753e-05,-1.4359448869072367e-05,6.78585929563269e-05
3.8176123780431226e-05,-4.620974505087361e-05,2.67334544332698e-05,3.044473851332441e-05,-1.4953741811041255e-05,6.814086373196915e-05
4.057509795529768e-05,-4.911108408123255e-05,3.4350417990935966e-05,3.323143027955666e-05,-1.2857341062044725e-05,7.465385715477169e-05
3.567280145944096e-05,-5.0483649829402566e-05,3.820577330770902e-05,2.918620884884149e-05,-1.1114299923065118e-05,8.408413123106584e-05
3.02871940220939e-05,-5.168383358977735e-05,3.573664071154781e-05,2.10847156267846e-05,-1.0756560186564457e-05,8.704089850652963e-05
2.7598882297752425e-05,-5.481389234773815e-05,3.400879359105602e-05,1.3328348359209485e-05,-1.2392389180604368e-05,8.272086415672675e-05
2.6747051379061304e-05,-5.488817623700015e-05,3.579685289878398e-05,1.0879247383854818e-05,-1.8571174223325215e-05,7.582249963888898e-05
2.181648596888408e-05,-5.1531929784687236e-05,3.106059375568293e-05,1.2876250366389286e-05,-2.0338989997981116e-05,7.098901551216841e-05
1.2906414667668287e-05,-4.651239578379318e-05,2.4301680241478607e-05,1.3056192074145656e-05,-1.544353654026054e-05,6.801902782171965e-05
1.0578303772490472e-05,-4.2283030779799446e-05,2.3371403585770167e-05,1.3353527720028069e-05,-1.2023563613183796e-05,6.834452506154776e-05
1.7905082131619565e-05,-3.985434159403667e-05,2.287238930875901e-05,1.7229616787517443e-05,-1.000574957288336e-05,7.321555312955752e-05
2.6250096198054962e-05,-3.943827687180601e-05,2.154377943952568e-05,2.3740549295325764e-05,-9.155695806839503e-06,7.653403736185282e-05
3.042396747332532e-05,-4.14965943491552e-05,2.277223211422097e-05,2.4099126676446758e-05,-8.835754670144524e-06,7.228984759422019e-05
3.159907282679342e-05,-4.557677675620653e-05,2.6245579647365957e-05,1.918650377774611e-05,-1.0296726031810977e-05,6.469021900556982e-05
3.0820716347079724e-05,-4.9047717766370624e-05,2.86236700048903e-05,1.6208981833187863e-05,-1.0362055945734028e-05,5.9346995840314776e-05
2.8808812203351408e-05,-4.9977112212218344e-05,3.0229290132410824e-05,1.64567754836753e-05,-9.517342732578982e-06,6.062472311896272e-05
3.6476612876867875e-05,-5.021638935431838e-05,3.26791632687673e-05,1.7784235751605593e-05,-9.444197530683596e-06,6.624464003834873e-05
5.946993042016402e-05,-5.0620099500520155e-05,3.438438943703659e-05,1.829320353863295e-05,-9.055587725015357e-06,6.717017095070332e-05
8.023741247598082e-05,-4.897709732176736e-05,3.26435620081611e-05,1.7323694919468835e-05,-8.917431841837242e-06,6.596385355805978e-05
8.04205410531722e-05,-4.4518856157083064e-05,2.8292502975091338e-05,1.5480958609259687e-05,-9.135362233791966e-06,7.362508040387183e-05
