2.1775535060442053e-05,-4.9968592065852135e-05,4.010327756986953e-05,4.558619184535928e-05,-5.190837327972986e-06,5.177786806598306e-05
2.130995380866807e-05,-4.950824222760275e-05,3.9813465264160186e-05,4.2884428694378585e-05,-6.075381406844826e-06,5.57719795324374e-05
2.0767376554431394e-05,-4.7642617573728785e-05,4.192446795059368e-05,3.719697997439653e-05,-8.38620417198399e-06,6.188553379615769e-05
2.266642331960611e-05,-4.6961551561253145e-05,3.963446943089366e-05,2.793450948956888e-05,-1.2474480172386393e-05,6.734265480190516e-05
2.5034712962224148e-05,-4.731177614303306e-05,3.3249940315727144e-05,2.1605355868814513e-05,-1.5870182323851623e-05,7.352078682743013e-05
2.4407565433648415e-05,-4.6365359594346955e-05,3.101932452409528e-05,2.0834815586567856e-05,-1.8648090190254152e-05,7.501418440369889e-05
1.9411245375522412e-05,-4.435806840774603e-05,3.1626983400201425e-05,2.5079796614591032e-05,-1.6668769603711553e-05,7.298651325982064e-05
1.5080338926054537e-05,-4.439937765710056e-05,3.295549686299637e-05,3.115362414973788e-05,-1.1804781934188213e-05,7.246706809382886e-05
1.675273415457923e-05,-4.695259849540889e-05,3.224531246814877e-05,3.779601684072986e-05,-1.019117007672321e-05,7.585532148368657e-05
2.150564432668034e-05,-4.762642129207961e-05,2.9128794267307967e-05,4.410406472743489e-05,-1.0864754585782066e-05,7.412717241095379e-05
2.4425822630291805e-05,-4.513848398346454e-05,2.8257976737222634e-05,4.649943730328232e-05,-1.195017193822423e-05,6.605967064388096e-05
2.639182457642164e-05,-4.1869447159115225e-05,3.073706102441065e-05,4.2939242121065035e-05,-1.4855489098408725e-05,5.8793011703528464e-05
2.7696960387402214e-05,-4.000617627752945e-05,3.37601377395913e-05,3.4527096431702375e-05,-1.7280706742894836e-05,5.7184977777069435e-05
2.6965841243509203e-05,-3.910207669832744e-05,3.5131419281242415e-05,2.812043749145232e-05,-1.6284542653011158e-05,5.929358667344786e-05
2.5031706172740087e-05,-4.034611993120052e-05,3.5248503991169855e-05,2.5589488359401003e-05,-1.4203077626007143e-05,5.71173986827489e-05
2.3730561224510893e-05,-4.311949305702001e-05,3.2855306926649064e-05,2.592193050077185e-05,-1.4747843124496285e-05,4.6484132326440886e-05
2.325069908692967e-05,-4.453146902960725e-05,3.085419302806258e-05,2.880869942600839e-05,-1.712107223283965e-05,3.585224112612195e-05
2.2653319319942966e-05,-4.453768997336738e-05,3.209911665180698e-05,3.119899702141993e-05,-1.8623053620103747e-05,3.5637935070553795e-05
2.205604141636286e-05,-4.4557844375958666e-05,3.387488686712459e-05,2.9095293939462863e-05,-1.867764694907237e-05,4.340499435784295e-05
2.0823417798965238e-05,-4.451903805602342e-05,3.379168992978521e-05,2.506920282030478e-05,-1.7610713257454336e-05,5.111730206408538e-05
1.639640140638221e-05,-4.7409448598045856e-05,3.505442873574793e-05,2.461717667756602e-05,-1.771596544131171e-05,5.274061186355539e-05
1.0630727047100663e-05,-5.13224586029537e-05,3.5901663068216294e-05,2.8098969778511673e-05,-1.8170740077039227e-05,5.030525426263921e-05
1.0607417607388925e-05,-5.149303615326062e-05,3.2730640668887645e-05,2.9821561838616617e-05,-1.9334955140948296e-05,4.979535151505843e-05
1.755489211063832e-05,-5.004027843824588e-05,3.240664955228567e-05,2.7506630431162193e-05,-1.9716655515367165e-05,5.482725100591779e-05
2.602061977086123e-05,-4.95203748869244e-05,3.6896552046528086e-05,2.371031769143883e-05,-1.7823049347498454e-05,6.148425018182024e-05
2.7943946406594478e-05,-5.1250714022899047e-05,3.79726589017082e-05,2.5331937649752945e-05,-1.4127752365311608e-05,6.569521792698652e-05
2.3433254682458937e-05,-5.301700730342418e-05,3.415672108530998e-05,2.6911038730759174e-05,-8.780357347859535e-06,6.71269663143903e-05
2.1204146833042614e-05,-5.191153832129203e-05,3.053419277421199e-05,2.4183256755350158e-05,-4.609603365679504e-06,6.744203710695729e-05
2.1660614947904833e-05,-4.902820001007058e-05,2.855672937585041e-05,2.1387002561823465e-05,-3.0552619136869907e-06,6.74998082104139e-05
2.0329935068730265e-05,-4.6360255510080606e-05,2.8309641493251547e-05,1.8597002053866163e-05,-3.83266751668998e-06,6.666076660621911e-05
1.9007487935596146e-05,-4.6895966079318896e-05,2.9407763577182777e-05,1.5959489246597514e-05,-6.934102657396579e-06,6.739692616974935e-05
2.1751999156549573e-05,-5.122339280205779e-05,2.9841732612112537e-05,1.5743788026156835e-05,-1.0421540537208784e-05,7.266295870067552e-05
2.333910742891021e-05,-5.213527037994936e-05,2.817290078382939e-05,1.8003456716542132e-05,-1.1382659977243748e-05,7.641740376129746e-05
2.2322876247926615e-05,-4.899347550235689e-05,2.6560190235613845e-05,2.1294606995070353e-05,-1.0255841516482178e-05,7.498668855987489e-05
2.2412228645407595e-05,-4.840418114326894e-05,2.5698966055642813e-05,2.8719212423311546e-05,-7.1171962190419436e-06,7.197510421974584e-05
2.2303691366687417e-05,-5.03516748722177e-05,2.4752023819019087e-05,3.4122705983463675e-05,-3.319541747259791e-06,7.194191130110994e-05
1.9038583559449762e-05,-5.238508674665354e-05,2.308788498339709e-05,3.450608710409142e-05,-2.731840424985421e-07,7.301679579541087e-05
1.5952398825902492e-05,-5.304274964146316e-05,2.5455450668232515e-05,3.144387301290408e-05,1.2771529327437747e-06,7.216658559627831e-05
1.6330011931131594e-05,-5.184581459616311e-05,2.791193219309207e-05,3.042130083485972e-05,-4.2728245830403466e-07,7.17544462531805e-05
1.968442120414693e-05,-4.970572263118811e-05,2.7679083359544165e-05,3.1185703846858814e-05,-3.1185786610876676e-06,6.98396543157287e-05
2.1444262529257685e-05,-4.720005381386727e-05,2.9319462555577047e-05,3.336001464049332e-05,-5.278100616123993e-06,6.580209446838126e-05
1.796508877305314e-05,-4.464010271476582e-05,3.3333762985421345e-05,3.748267045011744e-05,-6.62539059703704e-06,6.0985952586634085e-05
1.2643037734960672e-05,-4.429123873705976e-05,3.420217035454698e-05,4.0619597712066025e-05,-7.574524261144688e-06,5.986925680190325e-05
8.482959856337402e-06,-4.573637488647364e-05,2.973457594634965e-05,4.002597779617645e-05,-1.010084724839544e-05,6.255410698940977e-05
6.478345767391147e-06,-4.665472079068422e-05,2.5375567929586396e-05,3.88730077247601e-05,-1.4243465557228774e-05,6.319428939605132e-05
4.720633114629891e-06,-4.7054556489456445e-05,2.5630584786995314e-05,4.2094321543117985e-05,-1.6817346477182582e-05,6.0963386204093695e-05
2.9895427360315807e-06,-4.757848728331737e-05,2.9758908567600884e-05,4.446997991180979e-05,-1.789888301573228e-05,5.8179866755381227e-05
5.147924184711883e-06,-4.667766916099936e-05,3.288928928668611e-05,4.1554496419848874e-05,-1.8400480257696472e-05,5.6593402405269444e-05
1.0942670996882953e-05,-4.615413854480721e-05,3.334201392135583e-05,3.554477007128298e-05,-1.7823014786699787e-05,5.7972905779024586e-05
1.4501925761578605e-05,-4.782972973771393e-05,3.173881850671023e-05,3.138482497888617e-05,-1.583697485330049e-05,5.8253070164937526e-05
1.607058038644027e-05,-5.082628922536969e-05,3.09697788907215e-05,2.873014091164805e-05,-1.1657756658678409e-05,5.446670911624096e-05
1.798332596081309e-05,-5.4227897635428235e-05,3.316631045890972e-05,2.7425328880781308e-05,-8.366751899302471e-06,5.070449333288707e-05
1.9389932276681066e-05,-5.681400580215268e-05,3.633955930126831e-05,2.521198803151492e-05,-7.438543434545863e-06,4.8581645387457684e-05
2.1418221876956522e-05,-5.7283235946670175e-05,3.805562300840393e-05,2.3280168534256518e-05,-7.3430001066299155e-06,4.657486351788975e-05
2.416485767753329e-05,-5.602931196335703e-05,3.75886847905349e-05,2.420939563307911e-05,-5.9823732954100706e-06,4.295626422390342e-05
2.0589999621734023e-05,-5.608349965768866e-05,3.75426207028795e-05,2.5311270292149857e-05,-1.3297166105985525e-06,4.235955566400662e-05
1.9559371139621362e-05,-5.3922001825412735e-05,3.929739978048019e-05,1.9458491806290112e-05,1.5679329408158083e-06,4.578876178129576e-05
2.4442642825306393e-05,-4.876623643212952e-05,3.9681326597929e-05,1.1133675798191689e-05,2.6189616164629115e-06,4.9321603000862524e-05
2.35336792684393e-05,-4.663816071115434e-05,3.764238135772757e-05,1.289817737415433e-05,3.2147627280210145e-06,4.946784974890761e-05
1.719419378787279e-05,-4.939678547088988e-05,3.62079226761125e-05,2.580512773420196e-05,7.534213182225358e-07,4.830962643609382e-05
1.2072799108864274e-05,-5.071962732472457e-05,3.600330455810763e-05,3.541377736837603e-05,-3.883159934048308e-06,5.652384425047785e-05
1.1546409041329753e-05,-4.8884510761126876e-05,3.280049349996261e-05,3.7200297811068594e-05,-9.820340892474633e-06,6.575283623533323e-05
1.2154271644249093e-05,-4.856134910369292e-05,3.094779822276905e-05,3.91365829273127e-05,-1.5069364962982945e-05,6.705375562887639e-05
1.1873909897985868e-05,-5.023993071517907e-05,2.953513467218727e-05,4.093919415026903e-05,-1.5553119737887755e-05,6.477937859017402e-05
1.1177950909768697e-05,-5.049129686085507e-05,2.778592170216143e-05,3.9995698898565024e-05,-1.3694037988898344e-05,6.274257611948997e-05
1.2815386980946641e-05,-5.1684492063941434e-05,2.782290721370373e-05,3.703376933117397e-05,-1.563544174132403e-05,6.155740993563086e-05
1.5889210772002116e-05,-5.505248918780126e-05,3.0220124244806357e-05,3.443453897489235e-05,-1.7354775991407223e-05,5.8027835621032864e-05
1.6706679161870852e-05,-5.697279630112462e-05,3.120969267911278e-05,3.3421740226913244e-05,-1.7407424820703454e-05,5.5563257774338126e-05
1.4965927221055608e-05,-5.717611566069536e-05,3.133808058919385e-05,3.185872992617078e-05,-1.661369424255099e-05,5.3273808589437976e-05
1.3266731912153773e-05,-5.529727786779404e-05,3.057425419683568e-05,2.8387743441271596e-05,-1.5447278201463632e-05,5.247659282758832e-05
1.2914580111100804e-05,-5.18773595103994e-05,2.8762970032403246e-05,2.568762647570111e-05,-1.1608673958107829e-05,5.531348142540082e-05
1.422210789314704e-05,-4.8628353397361934e-05,2.983750164275989e-05,2.555877472332213e-05,-5.946133114775876e-06,5.7399505749344826e-05
1.610105209692847e-05,-4.698746852227487e-05,3.252474925830029e-05,2.6788460672833025e-05,-1.023447907755326e-06,5.524256266653538e-05
1.7838665371527895e-05,-4.6438024583039805e-05,3.273308539064601e-05,2.756813591986429e-05,3.0226885883166688e-06,5.199508450459689e-05
1.8378243112238124e-05,-4.555837222142145e-05,2.95113477477571e-05,2.758522896328941e-05,5.00167971040355e-06,4.939786231261678e-05
1.7914659110829234e-05,-4.368033114587888e-05,2.6086381694767624e-05,2.660061181813944e-05,6.333109013212379e-06,4.6715660573681816e-05
1.883654658740852e-05,-4.3721844122046605e-05,2.533572114771232e-05,2.7571835744311102e-05,7.79207948653493e-06,4.179331517661922e-05
2.1575178834609687e-05,-4.639096368919127e-05,2.843922447937075e-05,3.3545700716786087e-05,7.246806944749551e-06,3.3943975722650066e-05
2.59956723311916e-05,-4.86895369249396e-05,3.233445022488013e-05,3.843334343400784e-05,6.680519618385006e-06,2.67552059085574e-05
2.7774762202170677e-05,-4.9444515752838925e-05,3.5205608583055437e-05,3.927985380869359e-05,5.085560587758664e-06,2.4012877474888228e-05
2.51335422944976e-05,-5.1133258239133283e-05,3.310230022179894e-05,3.7709738535340875e-05,-1.7633032811659177e-09,3.21081570291426e-05
2.0571698769344948e-05,-5.385608892538585e-05,2.927773675764911e-05,3.459035724517889e-05,-8.943645298131742e-06,4.452365465112962e-05
1.7290038158535026e-05,-5.586680708802305e-05,2.7973846954409964e-05,3.428144918871112e-05,-2.5130671929218806e-05,5.0150199967902154e-05
1.7615679098526016e-05,-5.668770245392807e-05,3.0268194677773863e-05,3.5556549846660346e-05,-4.559549779514782e-05,5.1404313126113266e-05
1.8916452972916886e-05,-5.595416951109655e-05,2.9091474061715417e-05,3.354346699779853e-05,-6.179267802508548e-05,5.312524808687158e-05
1.965866977116093e-05,-5.5890519433887675e-05,2.3872626115917228e-05,2.9666813134099357e-05,-7.128342986106873e-05,5.584983591688797e-05
1.9835299099213444e-05,-5.662184048560448e-05,2.3153126676334068e-05,2.7420761398389004e-05,-7.776662823744118e-05,6.049690637155436e-05
2.0226028937031515e-05,-5.5814940424170345e-05,2.6832876756088808e-05,2.358711753913667e-05,-7.663403084734455e-05,6.348801252897829e-05
2.0969875549781136e-05,-5.40460241609253e-05,2.871473589038942e-05,1.8178321624873206e-05,-6.703084363834932e-05,6.306958675850183e-05
2.1935595214017667e-05,-5.312759822118096e-05,2.7240326744504273e-05,1.5893077943474054e-05,-4.839012763113715e-05,6.335129728540778e-05
2.1611760530504398e-05,-5.210360177443363e-05,2.3950906324898824e-05,1.708214040263556e-05,-2.2541420548805036e-05,6.656707410002127e-05
1.97890058188932e-05,-5.07505756104365e-05,2.4662080249981955e-05,1.5149782484513707e-05,6.190473413880682e-06,6.924527406226844e-05
1.868352592282463e-05,-5.157465420779772e-05,2.6770660042529926e-05,1.3114637113176286e-05,3.2530846510780975e-05,7.138228829717264e-05
1.806694308470469e-05,-5.415343912318349e-05,2.7124551706947386e-05,1.3517874322133139e-05,5.621827222057618e-05,7.156730134738609e-05
1.787697328836657e-05,-5.438237712951377e-05,2.875365134968888e-05,1.4323391042125877e-05,7.362223550444469e-05,6.645211396971717e-05
1.8393433492747135e-05,-5.231726754573174e-05,3.141811612294987e-05,1.28297297123936e-05,7.682939030928537e-05,5.750449054175988e-05
2.0554198272293434e-05,-5.193836841499433e-05,3.2577630918240175e-05,1.3055129784333985e-05,6.86623461660929e-05,5.305158265400678e-05
2.1556752471951768e-05,-5.295497248880565e-05,3.091538019361906e-05,1.792603507055901e-05,5.610294101643376e-05,5.8531073591439053e-05
2.2893584173289128e-05,-5.408717697719112e-05,3.083692354266532e-05,2.377825148869306e-05,4.11043110943865e-05,6.765918078599498e-05
2.6914050977211446e-05,-5.366459663491696e-05,3.441906301304698e-05,2.883502747863531e-05,2.2594236725126393e-05,7.457904575858265e-05
2.811855847539846e-05,-5.103633884573355e-05,3.647040648502298e-05,3.1486270017921925e-05,7.035483577055857e-06,7.84511212259531e-05
2.4539487640140578e-05,-4.841675763600506e-05,3.430785363889299e-05,3.3060827263398096e-05,-1.9187443740520393e-06,7.77661261963658e-05
2.0854809918091632e-05,-4.6385950554395095e-05,3.293297777418047e-05,3.738942541531287e-05,-6.854971616121475e-06,7.265863678185269e-05
2.216260509158019e-05,-4.390801041154191e-05,3.089255187660456e-05,4.469370833248831e-05,-1.1562781764951069e-05,6.893213139846921e-05
2.929128459072672e-05,-4.383614577818662e-05,2.8794907848350704e-05,5.4660835303366184e-05,-1.4714194549014792e-05,6.858976121293381e-05
3.435101098148152e-05,-4.719177377410233e-05,2.9334103601286188e-05,7.23223784007132e-05,-1.965040610230062e-05,6.75906048854813e-05
3.561450284905732e-05,-5.052821143181063e-05,3.270622619311325e-05,8.681246254127473e-05,-2.942869468824938e-05,6.344190478557721e-05
3.4001393942162395e-05,-5.269825123832561e-05,3.368638863321394e-05,8.612687088316306e-05,-3.556508454494178e-05,5.8462461311137304e-05
3.147760435240343e-05,-5.156480256118812e-05,2.9164062652853318e-05,7.391193503281102e-05,-3.588748222682625e-05,5.3438630857272074e-05
3.189815834048204e-05,-4.9251215386902913e-05,2.5789124265429564e-05,6.088014197302982e-05,-3.318144445074722e-05,5.4085143347037956e-05
3.187434413121082e-05,-4.7568151785526425e-05,2.7055375539930537e-05,4.723822348751128e-05,-2.8441516406019218e-05,5.67859060538467e-05
3.139375621685758e-05,-4.6233904868131503e-05,2.976844916702248e-05,3.672788443509489e-05,-2.771221988950856e-05,5.884547863388434e-05
2.821353882609401e-05,-4.813652776647359e-05,3.254341572755948e-05,3.55528318323195e-05,-3.093006671406329e-05,6.287181895459071e-05
2.4575456336606294e-05,-5.187948772800155e-05,3.216394907212816e-05,3.847140396828763e-05,-3.023846511496231e-05,6.387413304764777e-05
2.4046326871030033e-05,-5.183940447750501e-05,3.183344233548269e-05,4.247186370776035e-05,-2.280163243995048e-05,6.106134969741106e-05
2.3349835828412324e-05,-4.8056914238259196e-05,3.301521064713597e-05,4.612714474205859e-05,-1.5833913494134322e-05,5.439879168989137e-05
2.2327625629259273e-05,-4.636212543118745e-05,3.400121568120085e-05,4.272183286957443e-05,-1.305018668062985e-05,5.0292601372348145e-05
2.1247864424367435e-05,-4.795754648512229e-05,3.330209801788442e-05,2.9901602829340845e-05,-9.53948801907245e-06,5.279725883156061e-05
1.984129448828753e-05,-4.7906156396493316e-05,3.1395240512210876e-05,9.841191968007479e-06,-3.583503485060646e-06,5.774225064669736e-05
2.1052257579867728e-05,-4.563058610074222e-05,3.058100264752284e-05,-1.014518056763336e-05,-3.7516340398724424e-06,5.750768832513131e-05
2.5367260604980402e-05,-4.298350904718973e-05,3.114874562015757e-05,-1.9126280676573515e-05,-1.5856552636250854e-05,5.2340765250846744e-05
2.974073140649125e-05,-4.16763432440348e-05,3.0598315788665786e-05,-1.2328393495408818e-05,-3.408479460631497e-05,4.8397108912467957e-05
2.9124767024768516e-05,-4.2815492633963004e-05,2.7458250769996084e-05,2.0857735307799885e-06,-4.3327236198820174e-05,5.018628144171089e-05
2.525625859561842e-05,-4.605967114912346e-05,2.5469640604569577e-05,1.0952500815619715e-05,-3.647440826171078e-05,5.320560376276262e-05
2.4780223611742258e-05,-4.776568675879389e-05,2.651171053003054e-05,1.082298877008725e-05,-2.2212454496184364e-05,5.155154940439388e-05
2.854708509403281e-05,-4.7884703235467896e-05,3.093365012318827e-05,5.501997293322347e-06,-1.2293350664549507e-05,4.8818052164278924e-05
3.1126724934438244e-05,-5.0458427722333e-05,3.538685632520355e-05,1.5072856740516727e-06,-7.04262083672802e-06,5.016932846046984e-05
2.8557375117088668e-05,-5.5084852647269145e-05,3.713290061568841e-05,7.099395133991493e-07,-7.089783480296319e-07,5.7168752391589805e-05
2.43079866777407e-05,-5.7446377468295395e-05,3.630069477367215e-05,2.069562697215588e-06,5.931025043537375e-06,6.790021870983765e-05
2.2181111489771865e-05,-5.523280196939595e-05,3.540857142070308e-05,5.4606930461886805e-06,1.0135421689483337e-05,7.749089127173647e-05
2.349569149373565e-05,-5.330874409992248e-05,3.552547059371136e-05,5.896346465306124e-06,9.695115295471624e-06,8.119329868350178e-05
2.6789666662807576e-05,-5.2949701057514176e-05,3.6152854590909556e-05,1.2659864978559199e-06,8.338549378095195e-06,7.965738041093573e-05
2.972744005091954e-05,-5.189102012082003e-05,3.732446930371225e-05,-3.4055328796966933e-06,7.327813818847062e-06,7.328431820496917e-05
3.064707198063843e-05,-4.9814570957096294e-05,3.988625030615367e-05,-7.4379822763148695e-06,-3.0955104080021556e-07,6.607406248804182e-05
3.0471981517621316e-05,-4.864202855969779e-05,4.125174746150151e-05,-1.077521392289782e-05,-1.75178429344669e-05,5.869580854778178e-05
3.003169877047185e-05,-4.812457336811349e-05,4.1895415051840246e-05,-5.014294856664492e-06,-3.1416544516105205e-05,5.23808084835764e-05
2.947767461591866e-05,-4.459177580429241e-05,4.25754114985466e-05,2.064620639430359e-05,-2.926360502897296e-05,4.7035457100719213e-05
2.8269550966797397e-05,-3.987472882727161e-05,4.238946712575853e-05,5.467134542413987e-05,-1.83864904101938e-05,4.646699017030187e-05
2.4333274268428795e-05,-4.09043459512759e-05,4.148307198192924e-05,7.908754196250811e-05,-1.1415921107982285e-05,5.07122058479581e-05
2.1060552171547897e-05,-4.539954534266144e-05,3.878892312059179e-05,8.509053441230208e-05,-4.380035534268245e-06,5.2416929975152016e-05
2.183934884669725e-05,-4.876813181908801e-05,3.677100903587416e-05,7.280036516021937e-05,4.5012229747953825e-06,4.806633296539076e-05
2.489906910341233e-05,-5.073006832390092e-05,3.7571640859823674e-05,5.679120295098983e-05,1.2291516213736031e-05,4.100540900253691e-05
2.613657488836907e-05,-4.992493268218823e-05,3.859054413624108e-05,4.804683703696355e-05,1.5729716324131005e-05,3.80031815438997e-05
2.7140842576045543e-05,-4.968763096258044e-05,3.836568430415355e-05,4.4479264033725485e-05,1.2133638847444672e-05,4.100261867279187e-05
2.8754324375768192e-05,-5.144750321051106e-05,3.6340614315122366e-05,4.1507548303343356e-05,5.587894975178642e-06,4.647740570362657e-05
2.9862652809242718e-05,-5.1103586883982643e-05,3.4840621083276346e-05,3.7685160350520164e-05,-3.050520280822866e-09,5.0224451115354896e-05
3.0300190701382235e-05,-4.9287387810181826e-05,3.3926477044587955e-05,3.606507380027324e-05,-1.2895633290099795e-06,5.6308683269890025e-05
2.8831016607000493e-05,-4.901445208815858e-05,3.3024014555849135e-05,3.772321724682115e-05,-5.507873765964177e-07,6.417636177502573e-05
2.7484422389534302e-05,-4.9934318667510524e-05,3.398752960492857e-05,4.044610250275582e-05,-1.0287764098393382e-06,6.995451985858381e-05
2.6112715204362758e-05,-5.068564860266633e-05,3.4912798582809046e-05,3.892993845511228e-05,-4.549232016870519e-06,6.803240103181452e-05
2.3715632778475992e-05,-4.955063559464179e-05,3.285682760179043e-05,2.9578122848761268e-05,-9.95330174191622e-06,6.18096164544113e-05
2.0493778720265254e-05,-4.715114846476354e-05,2.8767683033947833e-05,1.930234066094272e-05,-1.482488187320996e-05,5.817532291985117e-05
1.8099684893968515e-05,-4.546447598841041e-05,2.7229298211750574e-05,1.6052457795012742e-05,-1.837851232266985e-05,5.957629036856815e-05
1.5527692085015588e-05,-4.466836617211811e-05,2.952686008939054e-05,1.8862918295781128e-05,-2.154767389583867e-05,6.089678208809346e-05
1.4987706890678965e-05,-4.614257704815827e-05,3.230439324397594e-05,2.0236208001733758e-05,-2.3718577722320333e-05,5.746183160226792e-05
1.614977554709185e-05,-4.9161324568558484e-05,3.200962601113133e-05,1.6876294466783293e-05,-2.5150991859845817e-05,5.2845178288407624e-05
1.438719846191816e-05,-5.031916225561872e-05,3.153669604216702e-05,1.2079073712811805e-05,-2.4994440536829643e-05,5.0565984565764666e-05
1.3098558156343643e-05,-4.943720341543667e-05,3.069257581955753e-05,9.820318155107088e-06,-2.056825178442523e-05,4.8942627472570166e-05
1.546369276184123e-05,-4.659133992390707e-05,3.0292439987533726e-05,1.0385656423750333e-05,-1.7184407624881715e-05,4.6924400521675125e-05
1.7145350284408778e-05,-4.5714816224062815e-05,3.19198879878968e-05,1.5573737982776947e-05,-1.699944732536096e-05,4.6826728066662326e-05
1.7439668226870708e-05,-4.864692527917214e-05,3.28229543811176e-05,2.2032656488590874e-05,-1.661984970269259e-05,4.785026249010116e-05
1.778767182258889e-05,-5.057645830675028e-05,3.264686165493913e-05,2.1324956833268516e-05,-1.69269296748098e-05,5.282117854221724e-05
1.9513501683832146e-05,-4.84865959151648e-05,3.077263318118639e-05,2.0093042621738277e-05,-1.6710178897483274e-05,5.614072142634541e-05
1.8952812752104364e-05,-4.594271376845427e-05,2.8419050067896023e-05,2.411633795418311e-05,-1.7336673408863135e-05,5.710703044314869e-05
1.703301131783519e-05,-4.875491140410304e-05,3.1025076168589294e-05,2.8418440706445836e-05,-1.9186527424608357e-05,5.8398200053488836e-05
1.780169623089023e-05,-5.165487164049409e-05,3.643402669695206e-05,2.747883991105482e-05,-1.6704363588360138e-05,6.0143309383420274e-05
1.893683111120481e-05,-5.523067738977261e-05,3.640210343291983e-05,2.5036722945515066e-05,-1.544648148410488e-05,6.3464161939919e-05
2.1308684154064395e-05,-5.885717837372795e-05,3.102357004536316e-05,2.8284572181291878e-05,-1.4375427781487815e-05,6.629506970057264e-05
2.3392998627969064e-05,-5.799670179840177e-05,2.6669158614822663e-05,3.3508913475088775e-05,-1.0866554475796875e-05,6.840871355962008e-05
2.5154606191790663e-05,-5.692398190149106e-05,2.5035033104359172e-05,4.0171747968997806e-05,-1.009504558169283e-05,6.795419176341966e-05
2.527853212086484e-05,-5.85586967645213e-05,2.218753070337698e-05,4.684130544774234e-05,-1.1703376003424637e-05,6.518369627883658e-05
2.2692840502713807e-05,-5.892538683838211e-05,2.168346145481337e-05,5.028337182011455e-05,-1.3210364159021992e-05,6.043402026989497e-05
1.8322834876016714e-05,-5.6464483350282535e-05,2.660414611455053e-05,4.678347613662481e-05,-1.48662493302254e-05,5.5425109167117625e-05
1.6112380762933753e-05,-5.563466766034253e-05,3.0954699468566105e-05,4.0002516470849514e-05,-1.5477329725399613e-05,5.218001751927659e-05
1.609488026588224e-05,-5.423366019385867e-05,2.9963905035401694e-05,3.4946435334859416e-05,-1.4260107491281815e-05,5.3544354159384966e-05
1.6889653124962933e-05,-5.005914863431826e-05,2.4726685296627693e-05,3.326404475956224e-05,-1.331883504462894e-05,6.0618975112447515e-05
1.8986802388099022e-05,-4.5288408728083596e-05,2.1006011593271978e-05,3.251792804803699e-05,-1.2640551176446024e-05,6.721576937707141e-05
2.1837535314261913e-05,-4.2708263208623976e-05,2.3515151042374782e-05,3.1345367460744455e-05,-1.0988509529852308e-05,7.01591488905251e-05
2.2368849386111833e-05,-4.187232116237283e-05,2.940640115411952e-05,3.0751238227821887e-05,-1.0263696822221391e-05,7.168199954321608e-05
2.0335819499450736e-05,-4.2153151298407465e-05,3.3439511753385887e-05,3.0247780159697868e-05,-1.355321455775993e-05,7.19966774340719e-05
1.8407330571790226e-05,-4.201502451905981e-05,3.420119173824787e-05,2.9772520065307617e-05,-1.6386473362217657e-05,6.932693941053003e-05
1.6217725715250708e-05,-4.2678828322095796e-05,3.370333797647618e-05,3.072642721235752e-05,-1.650551894272212e-05,6.798996037105098e-05
1.525752668385394e-05,-4.5873526687501e-05,3.353122519911267e-05,3.1671464967075735e-05,-1.6473699361085892e-05,7.163375266827643e-05
1.5717934729764238e-05,-4.983822873327881e-05,3.3973021345445886e-05,2.856026912922971e-05,-1.661200076341629e-05,7.449853728758171e-05
1.519755824119784e-05,-5.1245460781501606e-05,3.3907213946804404e-05,2.5426959837204777e-05,-1.552834510221146e-05,7.204835128504783e-05
1.1780114618886728e-05,-4.8385903937742114e-05,3.462818494881503e-05,2.4914852474466898e-05,-1.4024123629496899e-05,6.647353438893333e-05
9.564188985677902e-06,-4.470966086955741e-05,3.691888923640363e-05,2.5164246835629456e-05,-1.4743038263986818e-05,6.090329770813696e-05
1.1431598068156745e-05,-4.580435052048415e-05,3.6879278923152015e-05,2.5921490305336192e-05,-1.669579251029063e-05,5.959216287010349e-05
1.4835457477602176e-05,-4.926876863464713e-05,3.1970554118743166e-05,3.13987402478233e-05,-1.6239720935118385e-05,6.301857501966879e-05
1.7915524949785322e-05,-5.027733641327359e-05,2.829163713613525e-05,3.4610118746059015e-05,-1.686543873802293e-05,6.753800698788837e-05
1.8866732716560364e-05,-4.903691296931356e-05,3.011132503161207e-05,3.150621705572121e-05,-1.8720773368841037e-05,7.081547664711252e-05
1.6852138287504204e-05,-4.7370922402478755e-05,3.397260661586188e-05,2.703877726162318e-05,-1.7474954802310094e-05,7.26669022697024e-05
1.6283518561976962e-05,-4.5353972382145e-05,3.917876892955974e-05,2.486351877450943e-05,-1.4391443983186036e-05,6.624693924095482e-05
1.7808004486141726e-05,-4.31282605859451e-05,3.761693005799316e-05,2.3941538529470563e-05,-1.3355367627809756e-05,5.3731888328911737e-05
2.4006554667721502e-05,-4.517814886639826e-05,3.0350749511853792e-05,2.1963633116683923e-05,-1.5176149645412806e-05,4.761306263389997e-05
2.91126525553409e-05,-4.836685911868699e-05,2.390851659583859e-05,2.0960149413440377e-05,-1.5633686416549608e-05,4.978175275027752e-05
2.9039363653282635e-05,-4.772960164700635e-05,2.1774962078779936e-05,2.3212098312797025e-05,-1.2801992852473632e-05,5.27290758327581e-05
2.9620123314089142e-05,-4.5043609134154394e-05,2.2563166567124426e-05,2.8663291232078336e-05,-1.187854832096491e-05,4.9845268222270533e-05
2.9775776056339964e-05,-4.513626845437102e-05,2.3510960090789013e-05,3.431188815739006e-05,-1.3730999853578396e-05,4.5432512706611305e-05
3.0524115572916344e-05,-4.7289624490076676e-05,2.6282887120032683e-05,3.296432623756118e-05,-1.4730901057191659e-05,4.573735350277275e-05
3.114567880402319e-05,-4.958051795256324e-05,2.970955756609328e-05,2.8076696253265254e-05,-1.2451877410057932e-05,4.9011592636816204e-05
3.180151179549284e-05,-5.098376641399227e-05,3.2911819289438426e-05,2.3959017198649235e-05,-6.897363164171111e-06,4.897502003586851e-05
2.972914262500126e-05,-5.274033537716605e-05,3.388090408407152e-05,1.983400397875812e-05,-4.997927590011386e-06,4.806226206710562e-05
2.701248558878433e-05,-5.515125667443499e-05,3.266476051067002e-05,1.864407749962993e-05,-7.077669579302892e-06,4.7826073569012806e-05
2.6828993213712238e-05,-5.668102312483825e-05,3.145499067613855e-05,2.320611929462757e-05,-7.208396709756926e-06,4.884899317403324e-05
2.8732292776112445e-05,-5.632111424347386e-05,3.306319922558032e-05,3.089434540015645e-05,-2.579238525868277e-06,5.223186963121407e-05
3.0951523513067514e-05,-5.569906352320686e-05,3.555037983460352e-05,3.76385469280649e-05,2.1839634882780956e-06,5.519001206266694e-05
3.16429250233341e-05,-5.684770076186396e-05,3.606240716180764e-05,4.4293094106251374e-05,4.377733603178058e-06,5.4680975154042244e-05
3.046924393856898e-05,-5.723254434997216e-05,3.396948523004539e-05,4.870032717008144e-05,6.8419467424973845e-06,5.422212416306138e-05
2.7166093786945567e-05,-5.3986699640518054e-05,3.178070255671628e-05,4.8155663534998894e-05,1.0347386705689132e-05,5.7268811360700056e-05
2.40366152866045e-05,-4.9292844778392464e-05,3.041825766558759e-05,4.4035543396603316e-05,1.2895457075501326e-05,5.936961679253727e-05
2.204119118687231e-05,-5.014892667531967e-05,2.8696218578261323e-05,3.749781535589136e-05,1.2041334230161738e-05,5.672536281053908e-05
1.9453522327239625e-05,-5.541865175473504e-05,2.8603342798305675e-05,2.9603079383377917e-05,6.852503702248214e-06,5.5013177188811824e-05
1.4795272363699041e-05,-5.6683678849367425e-05,3.2863736123545095e-05,2.539722845540382e-05,1.712709547518898e-07,6.033895624568686e-05
1.2479662473197095e-05,-5.357365444069728e-05,3.898789145750925e-05,2.530911660869606e-05,-2.7558321562537458e-06,6.767711602151394e-05
1.64224566105986e-05,-5.383167081163265e-05,4.23245073761791e-05,2.9741329854005016e-05,-2.945048663605121e-06,6.886342453071848e-05
2.11615097214235e-05,-5.652700929204002e-05,4.084737884113565e-05,3.176431346219033e-05,-5.37574169356958e-06,6.61476660752669e-05
2.2800199076300487e-05,-5.6632528867339715e-05,3.599479532567784e-05,2.861407119780779e-05,-8.206571692426223e-06,6.667154229944572e-05
2.365872023801785e-05,-5.222328763920814e-05,3.40220685757231e-05,2.6905396225629374e-05,-1.0574131010798737e-05,6.636114994762465e-05
2.1048756025265902e-05,-4.997853102395311e-05,3.6021097912453115e-05,2.5124285457422957e-05,-1.3353652320802212e-05,6.445634789997712e-05
1.9584078472689725e-05,-5.362453521229327e-05,3.795776137849316e-05,2.253175262012519e-05,-1.4302836461865809e-05,6.234133616089821e-05
2.1635274606524035e-05,-5.5191365390783176e-05,3.996479426859878e-05,2.1475232642842457e-05,-1.5854076991672628e-05,6.466971535701305e-05
2.4888109692255966e-05,-5.465542199090123e-05,3.936838038498536e-05,2.0840474462602288e-05,-1.7251917597604915e-05,6.701504753436893e-05
2.5932926291716285e-05,-5.633163527818397e-05,3.737064980668947e-05,2.4259839847218245e-05,-1.5921697922749445e-05,6.265618867473677e-05
2.3950402464834042e-05,-5.770017014583573e-05,3.6751262086909264e-05,2.7451669666334055e-05,-1.4411163647309877e-05,5.7467204896965995e-05
2.0666626369347796e-05,-5.579674689215608e-05,3.734449637704529e-05,2.5800723960855976e-05,-1.6237503587035462e-05,5.253655763226561e-05
1.7240163288079202e-05,-5.1190923841204494e-05,3.561789708328433e-05,2.5787248887354508e-05,-1.7887261492433026e-05,5.066956509836018e-05
1.4758828001504298e-05,-4.968784924130887e-05,3.209556234651245e-05,3.08071612380445e-05,-1.601310941623524e-05,5.309846528689377e-05
1.4203813407220878e-05,-5.22973423358053e-05,3.0605511710746214e-05,3.6570345400832593e-05,-1.3174810192140285e-05,5.861519093741663e-05
1.4963469766371418e-05,-5.3922540246276185e-05,3.0488457923638634e-05,3.959526293328963e-05,-1.0983198080793954e-05,6.47905544610694e-05
1.4784369341214187e-05,-5.160443106433377e-05,3.061017923755571e-05,4.084912870894186e-05,-9.958020200429019e-06,6.699238292640075e-05
1.4362775800691452e-05,-4.777614594786428e-05,3.0231634809751995e-05,3.906596975866705e-05,-1.0232006388832815e-05,6.376803503371775e-05
1.4874291991873179e-05,-4.559597800835036e-05,3.0189088647603057e-05,3.4608518035383895e-05,-1.1637197530944832e-05,5.8220521168550476e-05
1.789584530342836e-05,-4.6764009312028065e-05,3.1089133699424565e-05,2.9383045330177993e-05,-1.3784836482955143e-05,5.1492341299308464e-05
2.230685277027078e-05,-5.099623740534298e-05,3.1985291570890695e-05,2.6799643819686025e-05,-1.589220300957095e-05,4.608343806467019e-05
2.540641071391292e-05,-5.3624724387191236e-05,3.014894900843501e-05,2.7760021112044342e-05,-1.4970484699006192e-05,4.394421193865128e-05
2.3860206056269817e-05,-5.227329893386923e-05,2.8649405066971667e-05,2.9795861337333918e-05,-1.1173845450684894e-05,4.3285279389237985e-05
2.0500054233707488e-05,-4.950243965140544e-05,2.8998221750953235e-05,3.0203593269106932e-05,-7.628505954926368e-06,4.6094053686829284e-05
1.87597415788332e-05,-4.69441365567036e-05,3.0166591386660002e-05,3.114982973784208e-05,-7.815646313247271e-06,5.086302917334251e-05
1.9949660782003775e-05,-4.538019857136533e-05,3.17233607347589e-05,3.1467741791857406e-05,-1.1673657354549505e-05,5.3340685553848743e-05
2.2342359443427995e-05,-4.584661655826494e-05,3.197121623088606e-05,2.8181215384393e-05,-1.5121147043828387e-05,5.327543112798594e-05
2.2021562472218648e-05,-4.4862688810098916e-05,3.126121373497881e-05,2.7161429898114875e-05,-1.7340460544801317e-05,5.208259972278029e-05
1.8214255760540254e-05,-4.103394894627854e-05,3.242972888983786e-05,2.6276409698766656e-05,-1.7245878552785143e-05,5.0741509767249227e-05
1.599962342879735e-05,-3.8830432458780706e-05,3.5262950405012816e-05,2.491650593583472e-05,-1.4140693565423135e-05,5.06484393554274e-05
1.758824691933114e-05,-3.958623346989043e-05,3.640618160716258e-05,2.6219842766295187e-05,-1.0404523891338613e-05,4.934221942676231e-05
1.9502991563058458e-05,-3.881495285895653e-05,3.158928666380234e-05,3.0115843401290476e-05,-8.058129424171057e-06,4.693440496339463e-05
2.0932569896103814e-05,-3.952000770368613e-05,2.4463946829200722e-05,3.560234836186282e-05,-8.122005056065973e-06,4.813206032849848e-05
1.923193303809967e-05,-4.2121053411392495e-05,2.5079260012716986e-05,3.749409370357171e-05,-8.542671821487602e-06,4.769425140693784e-05
1.5396282833535224e-05,-4.594949496095069e-05,3.111464320681989e-05,3.663959796540439e-05,-8.973765034170356e-06,4.361434912425466e-05
1.413725931342924e-05,-5.2332681661937386e-05,3.2854128221515566e-05,3.27946909237653e-05,-1.2693874850810971e-05,4.4832569983555004e-05
1.8180915503762662e-05,-5.690968100680038e-05,3.136258601443842e-05,3.1234838388627395e-05,-1.6177915313164704e-05,4.7937053750501946e-05
2.442114237055648e-05,-5.690221951226704e-05,3.0069559215917252e-05,3.3129803341580555e-05,-1.6327565390383825e-05,4.9823927838588133e-05
2.5761293727555312e-05,-5.364582102629356e-05,3.028226456081029e-05,3.3703967346809804e-05,-1.4565995115844999e-05,5.2747545851161703e-05
2.512480568839237e-05,-4.8922451242106035e-05,2.9840930437785573e-05,3.0113673346932046e-05,-1.2113968296034727e-05,5.3678515541832894e-05
2.5392942916369066e-05,-4.418279058882035e-05,2.7958663849858567e-05,2.758470509434119e-05,-1.1718810128513724e-05,5.370720464270562e-05
2.5957211619243026e-05,-4.3121897761011496e-05,2.7359665182302706e-05,3.0209648684831336e-05,-2.222395414719358e-05,5.62966670258902e-05
2.714918809942901e-05,-4.4409753172658384e-05,2.783455784083344e-05,3.232394374208525e-05,-4.510670623858459e-05,6.113507697591558e-05
2.6997180611942895e-05,-4.4987267756368965e-05,2.582417437224649e-05,3.107406519120559e-05,-6.650362047366798e-05,6.380547711160034e-05
2.4508472051820718e-05,-4.4344527850626037e-05,2.2102874936535954e-05,2.814439903886523e-05,-7.502370135625824e-05,6.259747897274792e-05
2.1260935682221316e-05,-4.264560993760824e-05,2.1422023564809933e-05,2.7334224796504714e-05,-7.303207530640066e-05,6.146973464637995e-05
1.8999418898602016e-05,-4.271067518857308e-05,2.32548682106426e-05,2.8996682885917835e-05,-6.60336299915798e-05,6.130586552899331e-05
1.7242495232494548e-05,-4.590017124428414e-05,2.4466355171171017e-05,3.0421668270719238e-05,-5.443609188660048e-05,5.8758683735504746e-05
1.6463898646179587e-05,-4.710115899797529e-05,2.20521123992512e-05,2.9600114430650137e-05,-3.958891466027126e-05,5.599041469395161e-05
1.7970995031646453e-05,-4.6656470658490434e-05,1.9095958123216406e-05,2.851080716936849e-05,-1.9963992599514313e-05,5.7610770454630256e-05
1.831537338148337e-05,-4.974399053025991e-05,1.8797505617840216e-05,2.6420912035973743e-05,5.335635250958148e-06,6.292294710874557e-05
1.651904676691629e-05,-5.4076252126833424e-05,2.0989691620343365e-05,2.3272308681043796e-05,3.355453736730851e-05,6.69387009111233e-05
1.5007473848527297e-05,-5.53853387827985e-05,2.443877383484505e-05,1.731619158817921e-05,6.179908086778596e-05,6.749274325557053e-05
1.314281780651072e-05,-5.314720328897238e-05,2.621773091959767e-05,1.2908961252833251e-05,8.41191504150629e-05,6.357338861562312e-05
1.2911976227769628e-05,-5.4267438827082515e-05,2.568205127317924e-05,1.6128469724208117e-05,9.35994612518698e-05,5.9277572290739045e-05
1.5434921806445345e-05,-5.9157697251066566e-05,2.3807635443517938e-05,2.0151728676864877e-05,8.747182437218726e-05,6.109328387537971e-05
2.0084746211068705e-05,-5.878243246115744e-05,2.5534942324156873e-05,2.444511846988462e-05,6.889205542393029e-05,6.689572182949632e-05
2.6346349841332994e-05,-5.3948209824739024e-05,3.0325205443659797e-05,2.689802749955561e-05,4.878131949226372e-05,6.76855124766007e-05
2.712610876187682e-05,-5.254344068816863e-05,3.484110129647888e-05,2.6695039196056314e-05,3.338331953273155e-05,6.53699244139716e-05
2.40228146139998e-05,-5.288837564876303e-05,3.617346737883054e-05,2.601470987428911e-05,2.0307636077632196e-05,6.462685269070789e-05
2.469188802933786e-05,-5.2308474550955e-05,3.1958446925273165e-05,2.2265219740802422e-05,1.0289482816006057e-05,6.385158485500142e-05
2.9045684641459957e-05,-5.363377931644209e-05,3.2618336263112724e-05,1.816706935642287e-05,3.949434812966501e-06,6.432562076952308e-05
3.5784451029030606e-05,-5.320254058460705e-05,3.742582703125663e-05,1.7794474842958152e-05,-2.3597681320097763e-06,6.240035872906446e-05
3.8950558518990874e-05,-5.129760393174365e-05,3.949454185203649e-05,2.560008579166606e-05,-6.289551038207719e-06,6.0240428865654394e-05
4.044700472149998e-05,-5.049534956924617e-05,3.7498248275369406e-05,3.4905995562439784e-05,-7.203462246252457e-06,6.015554754412733e-05
4.100813021068461e-05,-4.8607624194119126e-05,3.543945786077529e-05,4.424307553563267e-05,-9.54866482061334e-06,6.468671199399978e-05
4.179886673227884e-05,-4.5810262236045673e-05,3.381167334737256e-05,5.315144153428264e-05,-1.4043696864973754e-05,7.035235466901213e-05
4.409987013787031e-05,-4.3963580537820235e-05,3.372502396814525e-05,6.775990914320573e-05,-1.8049335267278366e-05,7.16216818545945e-05
4.509563950705342e-05,-4.201772389933467e-05,3.6048553738510236e-05,8.393141615670174e-05,-2.025061985477805e-05,6.830854545114562e-05
4.4900130887981504e-05,-3.912540341843851e-05,3.907364953192882e-05,9.01004095794633e-05,-2.0278901502024382e-05,6.539824971696362e-05
4.513624298851937e-05,-3.6875651858281344e-05,4.011539203929715e-05,8.392062591155991e-05,-1.8159100363845937e-05,6.442215817514807e-05
4.6033685066504404e-05,-3.7902325857430696e-05,3.9110524085117504e-05,6.966586806811392e-05,-1.542474637972191e-05,5.917661837884225e-05
4.512771556619555e-05,-4.391259790281765e-05,3.876498158206232e-05,5.514493022928946e-05,-1.1629916116362438e-05,5.411874008132145e-05
4.366266148281284e-05,-5.083354335511103e-05,3.8335590943461284e-05,4.1844516090350226e-05,-8.726740816200618e-06,5.772170698037371e-05
4.291800723876804e-05,-5.225437416811474e-05,3.844627281068824e-05,3.176370955770835e-05,-8.701099432073534e-06,6.644008681178093e-05
4.116724448977038e-05,-5.0099224608857185e-05,3.759155151783489e-05,2.798327295749914e-05,-9.3826411102782e-06,7.0124318881426e-05
3.6423563869902864e-05,-4.7672612708993256e-05,3.579796975827776e-05,2.8872284019598737e-05,-8.492561391904019e-06,6.921328895259649e-05
3.2106880098581314e-05,-4.466975951800123e-05,3.2197593100136146e-05,2.5769308194867335e-05,-9.262771527573932e-06,6.735181523254141e-05
2.880356441892218e-05,-4.4650201743934304e-05,2.9682083550142124e-05,1.924750722537283e-05,-1.3977013622934464e-05,6.675214535789564e-05
2.5547722543706186e-05,-4.871424971497618e-05,3.0103026801953092e-05,1.2879769201390445e-05,-1.9063008949160576e-05,6.585251685464755e-05
2.149132160411682e-05,-5.191405944060534e-05,3.23841959470883e-05,4.722598987427773e-06,-2.0353441868792288e-05,6.442818266805261e-05
1.6177793440874666e-05,-5.1015871576964855e-05,3.273076799814589e-05,-5.15394503963762e-06,-1.8573149645817466e-05,6.753619527444243e-05
1.4191859918355476e-05,-4.884946974925697e-05,3.273748006904498e-05,-3.068916385018383e-06,-1.7435464542359114e-05,6.990710244281217e-05
1.7220476365764625e-05,-4.8818463255884126e-05,3.3316198823740706e-05,8.605783477833029e-06,-1.94820313481614e-05,5.823549145134166e-05
1.8492521121515892e-05,-5.0001941417576745e-05,3.372399805812165e-05,1.5663330486859195e-05,-3.1972344004316255e-05,4.328088471083902e-05
1.866249476734083e-05,-5.000174860469997e-05,3.509178350213915e-05,2.1518169887713157e-05,-4.972325041308068e-05,3.5008917620871216e-05
1.915012217068579e-05,-4.90074344270397e-05,3.554437716957182e-05,2.7058036721427925e-05,-5.7801869843387976e-05,3.176806785631925e-05
1.9570159565773793e-05,-4.952783274347894e-05,3.4841235901694745e-05,2.5911276679835282e-05,-5.391013837652281e-05,2.9926468414487317e-05
1.850717671914026e-05,-5.327200415194966e-05,3.450604708632454e-05,2.2451671611634083e-05,-3.997395106125623e-05,2.9405078748823144e-05
1.5097416508069728e-05,-5.520238482858986e-05,3.373832441866398e-05,1.569426058267709e-05,-2.6608924599713646e-05,2.993049201904796e-05
1.2365626389509998e-05,-5.340635834727436e-05,3.1194209441309795e-05,8.75050409376854e-06,-2.0432949895621277e-05,3.035242116311565e-05
9.47859552979935e-06,-4.964684194419533e-05,2.9141770937712863e-05,7.589289452880621e-06,-1.6435384168289602e-05,3.576061499188654e-05
7.210567218862707e-06,-4.7313918912550434e-05,2.7751533707487397e-05,1.2062372661603149e-05,-9.672678061178885e-06,4.484094097279012e-05
6.157928964967141e-06,-4.8333517042919993e-05,2.7337569918017834e-05,1.0081950676976703e-05,-7.818977678653027e-07,5.4887161240912974e-05
6.918009603396058e-06,-5.0359751185169443e-05,2.8418260626494884e-05,-1.6047856661316473e-06,8.341758984897751e-06,5.836180571350269e-05
7.724008355580736e-06,-5.044536374043673e-05,2.887378832383547e-05,-1.5065123079693876e-05,1.606183468538802e-05,5.777590922662057e-05
6.527607638417976e-06,-4.855760926147923e-05,2.794948341033887e-05,-1.8019100025412627e-05,1.952001366589684e-05,5.933090506005101e-05
3.947903678636067e-06,-4.841110057896003e-05,2.746525569818914e-05,-9.428037628822494e-06,1.8394432117929682e-05,6.4642503275536e-05
2.2481622181658167e-06,-5.118996341479942e-05,2.798283821903169e-05,1.608206844139204e-06,1.3378660696616862e-05,6.938057049410418e-05
2.468709681124892e-06,-5.501768464455381e-05,2.7611800760496408e-05,1.0449052751937415e-05,7.553712748631369e-06,6.852076330687851e-05
3.639004262367962e-06,-5.6383549235761166e-05,2.604999281174969e-05,1.5922638340271078e-05,2.9230288873804966e-06,6.40355356154032e-05
4.063283085997682e-06,-5.640908420900814e-05,2.4578966986155137e-05,2.7311038138577715e-05,1.9780179627559846e-07,6.210604624357074e-05
3.1690808555140393e-06,-5.64727743039839e-05,2.420887176413089e-05,4.8817011702340096e-05,-3.3362896374455886e-06,6.410403875634074e-05
2.8055264920112677e-06,-5.627194695989601e-05,2.5806080884649418e-05,7.173475751187652e-05,-8.571179932914674e-06,6.771177868358791e-05
4.586448540067067e-06,-5.488398528541438e-05,2.8760983695974573e-05,8.181345765478909e-05,-1.3432714695227332e-05,6.994133582338691e-05
6.822403520345688e-06,-5.447104558697902e-05,3.029964500456117e-05,7.724021998001263e-05,-1.741332198434975e-05,6.609086267417297e-05
9.439322639082093e-06,-5.4316496971296147e-05,2.9107493901392445e-05,6.170910637592897e-05,-2.0869802028755657e-05,6.155974551802501e-05
1.1817108315881342e-05,-5.462091576191597e-05,2.7335898266755976e-05,4.8278336180374026e-05,-2.418686381133739e-05,6.090288661653176e-05
1.2517842151282821e-05,-5.579823118750937e-05,2.7884227165486664e-05,3.835810275631957e-05,-2.4731094526941888e-05,5.7482717238599434e-05
1.0774251677503344e-05,-5.192387106944807e-05,3.0342200261657126e-05,2.9468706998159178e-05,-2.3697393771726638e-05,5.390717706177384e-05
8.949466064223088e-06,-4.9732985644368455e-05,3.1583189411321655e-05,2.6918576622847468e-05,-2.853692785720341e-05,5.6175125791924074e-05
1.219646401295904e-05,-5.164309186511673e-05,3.457724960753694e-05,2.8254251446924172e-05,-4.3053176341345534e-05,5.409944787970744e-05
1.868490653578192e-05,-5.407826029113494e-05,4.126034400542267e-05,3.0775219784118235e-05,-5.674538260791451e-05,5.1278773753438145e-05
2.1766281861346215e-05,-5.78431790927425e-05,4.292228550184518e-05,3.400746572879143e-05,-5.6241871789097786e-05,5.897736264159903e-05
1.8961985915666446e-05,-5.87379872740712e-05,3.452177770668641e-05,3.2196767278946936e-05,-4.810187965631485e-05,6.671722803730518e-05
1.7018461221596226e-05,-5.776389662059955e-05,2.9371287382673472e-05,2.95238642138429e-05,-3.8574362406507134e-05,6.494722765637562e-05
2.0637000488932244e-05,-5.6458990002283826e-05,3.4015054552583024e-05,2.9713433832512237e-05,-3.237914643250406e-05,6.241686787689105e-05
2.6839574275072664e-05,-5.51636767340824e-05,3.9469130570068955e-05,2.8412787287379615e-05,-2.5751736757229082e-05,6.263396790018305e-05
2.754680645011831e-05,-5.2066239732084796e-05,4.002939385827631e-05,2.391869384155143e-05,-1.2672036064032e-05,6.353225762723014e-05
2.4036551621975377e-05,-4.8649966629454866e-05,3.412829028093256e-05,2.1931746232439764e-05,-1.4648059050159645e-06,6.46019252599217e-05
2.0711579054477625e-05,-4.736710252473131e-05,2.8434118576114997e-05,2.330101233383175e-05,4.289579010219313e-06,6.219858914846554e-05
1.766538480296731e-05,-4.743906538351439e-05,2.7022906579077244e-05,2.5032701159943826e-05,5.1620804697449785e-06,5.696493462892249e-05
1.7463873518863693e-05,-4.839798202738166e-05,2.8970629500690848e-05,2.6490013624425046e-05,2.165673549825442e-06,5.545288877328858e-05
1.9609993614722043e-05,-4.876475941273384e-05,3.011959051946178e-05,2.98810591630172e-05,-3.2408227070845896e-06,6.052670141798444e-05
2.11740261875093e-05,-4.892266952083446e-05,2.7725158361135982e-05,3.4430289815645665e-05,-7.694571650063153e-06,6.444272730732337e-05
2.163693352486007e-05,-4.800318492925726e-05,2.527254036976956e-05,3.803787330980413e-05,-7.059081326588057e-06,6.393333023879677e-05
2.294477599207312e-05,-4.5548407797468826e-05,2.8010481400997378e-05,4.048740447615273e-05,1.57855913585081e-06,6.363946886267513e-05
2.4224935259553604e-05,-4.230562626617029e-05,3.622722579166293e-05,3.7529422115767375e-05,1.1793344128818717e-05,6.263925752136856e-05
2.6485764465178363e-05,-4.203134812996723e-05,4.239663030602969e-05,3.1672392651671544e-05,1.6507978216395713e-05,5.809592403238639e-05
3.1345069146482274e-05,-4.47021157015115e-05,4.165259815636091e-05,3.033056236745324e-05,1.569517007737886e-05,5.450583194033243e-05
3.649885184131563e-05,-4.721793447970413e-05,3.768540045712143e-05,3.135452789138071e-05,1.1498559615574777e-05,5.542541839531623e-05
3.639894930529408e-05,-4.7116227506194264e-05,3.5896733606932685e-05,3.236334669054486e-05,6.846151336503681e-06,5.590614819084294e-05
3.194889723090455e-05,-4.5602762838825583e-05,3.4123368095606565e-05,3.593709334381856e-05,4.30493128078524e-06,5.3671985369874164e-05
3.0565719498554245e-05,-4.513086241786368e-05,3.285460115876049e-05,3.566513260011561e-05,3.4999897025045357e-07,5.432993930298835e-05
3.354870932525955e-05,-4.612128759617917e-05,3.461812957539223e-05,2.9273431209730916e-05,-2.8544882297865115e-06,5.832590613863431e-05
3.3201929909409955e-05,-4.849640026804991e-05,3.741926411748864e-05,2.1654223019140773e-05,-1.0895290643020417e-06,6.287565338425338e-05
2.7959509679931216e-05,-4.913963857688941e-05,3.712643956532702e-05,1.6654546925565228e-05,9.33086596432986e-07,6.549479439854622e-05
2.227836193924304e-05,-4.603503839462064e-05,3.4748394682537764e-05,1.1927437299164012e-05,2.79495498034521e-06,6.256361666601151e-05
1.9771652659983374e-05,-4.2011775803985074e-05,3.22179876093287e-05,1.6842452168930322e-05,5.423097718448844e-06,5.9500882343854755e-05
2.0439150830497965e-05,-3.932160689146258e-05,3.251103771617636e-05,2.350968134123832e-05,8.245076969615184e-06,5.997773405397311e-05
2.2760892534279265e-05,-3.932442996301688e-05,3.5447810660116374e-05,2.1649346308549866e-05,9.168316864816006e-06,6.16688557784073e-05
2.403237158432603e-05,-4.247317701810971e-05,3.5990611650049686e-05,1.906344732560683e-05,4.05093442168436e-06,6.053759716451168e-05
2.2454751160694286e-05,-4.557431748253293e-05,3.6325141991255805e-05,2.115633833454922e-05,-2.3209256596601335e-06,5.6865847000153735e-05
2.2649259335594252e-05,-4.6856002882122993e-05,3.915122942999005e-05,2.6455549232196063e-05,-5.0856629059126135e-06,5.42651723662857e-05
2.6880461518885568e-05,-4.463115692487918e-05,3.936562643502839e-05,2.8727536118822172e-05,-5.577580850513186e-06,5.4071522754384205e-05
3.174923040205613e-05,-4.212034400552511e-05,3.677929635159671e-05,2.926228626165539e-05,-2.6564052859612275e-06,5.632781540043652e-05
3.2035412004916e-05,-4.3996340536978096e-05,3.559263495844789e-05,2.724776823015418e-05,1.0231715350528248e-06,5.586810948443599e-05
2.9771739718853496e-05,-4.6091925469227135e-05,3.590641063055955e-05,2.5407875000382774e-05,3.2693355933588464e-06,5.267086817184463e-05
2.7601981855696067e-05,-4.678953700931743e-05,3.7693363992730156e-05,2.8633281544898637e-05,1.1624250646491419e-06,4.994427217752673e-05
2.819236760842614e-05,-4.86625540361274e-05,3.777308666030876e-05,3.6403649573912844e-05,-6.882593424961669e-06,5.017075454816222e-05
3.0680337658850476e-05,-5.028416126151569e-05,3.590207052184269e-05,4.3079257011413574e-05,-1.5955303751979955e-05,5.414845873019658e-05
3.3093489037128165e-05,-4.9330796173308045e-05,3.347510937601328e-05,4.4049967982573435e-05,-2.267437957925722e-05,6.0514827055158094e-05
3.289741289336234e-05,-4.775242996402085e-05,3.192507574567571e-05,4.0454764530295506e-05,-2.539663910283707e-05,6.599162588827312e-05
2.9627182811964303e-05,-4.8864971176953986e-05,3.268555519753136e-05,3.627761179814115e-05,-2.305431007698644e-05,6.916546408319846e-05
2.5598757929401472e-05,-4.98014924232848e-05,3.4918430174002424e-05,3.386558819329366e-05,-2.012385448324494e-05,6.766476144548506e-05
2.3661184968659654e-05,-4.8901372792897746e-05,3.6545625334838405e-05,3.2821117201820016e-05,-2.2401060050469823e-05,6.334998761303723e-05
2.4401870177825913e-05,-4.884356167167425e-05,3.662661765702069e-05,3.196999023202807e-05,-2.750957901298534e-05,6.378775287885219e-05
2.358753226872068e-05,-5.190953015699051e-05,3.604316589189693e-05,2.9396882382570766e-05,-3.176939208060503e-05,6.725258572259918e-05
2.3059359591570683e-05,-5.332614091457799e-05,3.418274354771711e-05,2.48996693699155e-05,-3.17868689307943e-05,6.414044764824212e-05
2.3188085833680816e-05,-5.3318515710998327e-05,3.311481123091653e-05,1.940695983648766e-05,-2.71655462711351e-05,5.5610256822546944e-05
2.2590778826270252e-05,-5.4256819566944614e-05,3.4922621125588194e-05,1.5344659914262593e-05,-2.338990270800423e-05,5.052418782724999e-05
2.133553243766073e-05,-5.236505239736289e-05,3.8277110434137285e-05,1.563943806104362e-05,-2.163639510399662e-05,4.838993845623918e-05
2.1043109882157296e-05,-4.8237081500701606e-05,4.113477189093828e-05,1.6607591533102095e-05,-2.2066569727030583e-05,5.044451972935349e-05
2.18517379835248e-05,-4.4693893869407475e-05,4.080507642356679e-05,1.7251946701435372e-05,-2.3168309780885465e-05,5.338992195902392e-05
2.1517886125366203e-05,-4.718558193417266e-05,3.758677121368237e-05,1.963700015039649e-05,-2.3159194824984297e-05,5.681651964550838e-05
2.116941504937131e-05,-5.3892144933342934e-05,3.367249883012846e-05,2.0506526198005304e-05,-2.3995782612473704e-05,6.010772995068692e-05
2.1153720808797516e-05,-5.568873166339472e-05,3.1942512578098103e-05,1.8564827769296244e-05,-2.1622558051603846e-05,5.7594810641603544e-05
1.960458030225709e-05,-5.458578743855469e-05,3.194875898770988e-05,1.6656244042678736e-05,-1.5781784895807505e-05,5.683367999154143e-05
1.7499733075965196e-05,-5.6362034229096025e-05,3.184134402545169e-05,2.2080184862716123e-05,-1.4574209671991412e-05,5.9721980505855754e-05
1.8021544747170992e-05,-5.816776319989003e-05,3.4975906601175666e-05,3.276449569966644e-05,-1.6577872884226963e-05,6.122468039393425e-05
1.904592318169307e-05,-5.59529107704293e-05,3.832398942904547e-05,3.610345447668806e-05,-1.804076055123005e-05,6.0984537412878126e-05
1.863096622400917e-05,-5.2327653975225985e-05,3.674901381600648e-05,3.2714568078517914e-05,-1.9803808754659258e-05,5.986336327623576e-05
1.7690468666842207e-05,-5.1835650083376095e-05,3.283009209553711e-05,3.115831714239903e-05,-2.1741649106843397e-05,5.939238326391205e-05
1.7028776710503735e-05,-5.293954018270597e-05,3.1522395147476345e-05,3.06994334096089e-05,-2.1580503016593866e-05,5.86696041864343e-05
1.9007924493052997e-05,-5.473157943924889e-05,3.1797455449122936e-05,2.7963320462731645e-05,-1.9813605831586756e-05,5.7299021136714146e-05
2.1509975340450183e-05,-5.498030805028975e-05,3.0458000765065663e-05,2.5816763809416443e-05,-1.9175367924617603e-05,5.708107346436009e-05
2.251131081720814e-05,-5.3819341701455414e-05,2.8935348382219672e-05,2.4727476557018235e-05,-1.9101047655567527e-05,5.8528719819150865e-05
2.2177719074534252e-05,-5.070840416010469e-05,2.8022202968713827e-05,2.233103077742271e-05,-1.9757972040679306e-05,6.0794700402766466e-05
2.2943526346352883e-05,-4.952455128659494e-05,2.8712403945974074e-05,1.981659806915559e-05,-1.90647133422317e-05,6.029926225892268e-05
2.4832141207298264e-05,-5.257664088276215e-05,3.098177330684848e-05,1.9184000848326832e-05,-1.4264423043641727e-05,5.7685974752530456e-05
2.58860982285114e-05,-5.6536711781518534e-05,3.4140080970246345e-05,2.0127385141677223e-05,-8.362179869436659e-06,5.828691064380109e-05
2.7530120860319585e-05,-5.8547844673739746e-05,3.7566296668956056e-05,2.080475678667426e-05,-6.472117547673406e-06,5.971932114334777e-05
2.9767681553494185e-05,-5.8881174481939524e-05,3.9387523429468274e-05,2.1201965864747763e-05,-6.747235602233559e-06,5.8504854678176343e-05
3.0058512493269518e-05,-5.8764926507137716e-05,3.750194809981622e-05,2.2843576516606845e-05,-4.941241513733985e-06,5.4827403801027685e-05
3.0032128051971085e-05,-5.642581527354196e-05,3.422484587645158e-05,2.6459299988346174e-05,-3.6308715607447084e-06,4.9250877054873854e-05
2.929277798102703e-05,-5.46365772606805e-05,3.2381227356381714e-05,3.15721335937269e-05,-6.31933562544873e-06,4.883551810053177e-05
2.5919956897269003e-05,-5.394765321398154e-05,3.052457395824604e-05,3.26987101288978e-05,-1.0098420716531109e-05,5.5181360949063674e-05
2.3269218218047172e-05,-5.327498001861386e-05,2.7098034479422495e-05,2.7343594410922378e-05,-1.1059704775107093e-05,6.27577246632427e-05
2.3198766939458437e-05,-5.204221815802157e-05,2.7756630515796132e-05,2.494033833499998e-05,-9.389586011820938e-06,6.705101986881346e-05
2.434583439026028e-05,-5.1513106882339343e-05,3.192652729921974e-05,3.056811328860931e-05,-1.63775694090873e-05,6.296640640357509e-05
2.339393540751189e-05,-5.30967881786637e-05,3.311467662570067e-05,3.9263693906832486e-05,-4.021370114060119e-05,5.761521970271133e-05
1.9523349692462943e-05,-5.41934059583582e-05,3.1032566766953096e-05,4.569992597680539e-05,-6.393127114279196e-05,5.665692879119888e-05
1.8802877093548886e-05,-5.060261901235208e-05,2.7104279070044868e-05,4.679196354118176e-05,-7.222979184007272e-05,5.402532406151295e-05
2.207396028097719e-05,-5.02059847349301e-05,2.384529580012895e-05,4.014700243715197e-05,-7.354156696237624e-05,5.0830662075895816e-05
2.2347196136252023e-05,-5.155726466909982e-05,2.031503026955761e-05,3.278585791122168e-05,-7.223215652629733e-05,5.126694668433629e-05
1.8849672414944507e-05,-4.966259439243004e-05,1.9731218344531953e-05,3.235561234760098e-05,-6.111991388024762e-05,5.064728975412436e-05
1.613436506886501e-05,-4.772980901179835e-05,2.081815546262078e-05,3.498499427223578e-05,-3.958052911912091e-05,4.954081305186264e-05
1.5841440472286195e-05,-4.6147953980835155e-05,2.1170819309190847e-05,3.7653135223081335e-05,-1.214367694046814e-05,5.161310764378868e-05
1.785537642717827e-05,-4.5218184823170304e-05,2.2844393242849037e-05,3.8707032217644155e-05,1.8643886505742557e-05,5.2453233365667984e-05
2.2381029339157976e-05,-4.4116433855379e-05,2.6193063604296185e-05,3.6130841181147844e-05,4.984587212675251e-05,5.20657813467551e-05
2.517179564165417e-05,-4.442646604729816e-05,2.394957118667662e-05,3.307230144855566e-05,7.577306678285822e-05,5.38517560926266e-05
2.5499855837551877e-05,-4.679442281485535e-05,1.834290560509544e-05,3.2312553230440244e-05,9.082307951757684e-05,5.433141268440522e-05
2.5157700292766094e-05,-5.08215234731324e-05,1.8618637113831937e-05,3.0942639568820596e-05,9.103275078814477e-05,5.165615220903419e-05
2.5027185984072275e-05,-5.172838064027019e-05,2.2013497073203325e-05,3.0418999813264236e-05,8.006745338207111e-05,4.771054955199361e-05
2.409545959380921e-05,-5.0390885007800534e-05,2.3458313080482185e-05,3.111861951765604e-05,6.304375710897148e-05,4.748532228404656e-05
2.2338097551255487e-05,-5.0586262659635395e-05,2.2493444703286514e-05,2.9680028092116117e-05,4.5791908632963896e-05,4.933647142024711e-05
2.1949472284177318e-05,-5.28514756297227e-05,2.2600854208576493e-05,2.253547245345544e-05,3.291079337941483e-05,5.0239061238244176e-05
2.447805854899343e-05,-5.544624218600802e-05,2.3199781935545616e-05,1.572267501614988e-05,2.313599361514207e-05,5.340371353668161e-05
2.7980991944787093e-05,-5.533535295398906e-05,2.3875383703853004e-05,1.849722866609227e-05,1.3517060324375052e-05,5.754212543251924e-05
2.913170465035364e-05,-5.3271447541192174e-05,2.4889764972613193e-05,2.7778045478044078e-05,4.9837794904306065e-06,6.023098831064999e-05
2.747278085735161e-05,-4.9606631364440545e-05,2.6936693757306784e-05,3.4401433367747813e-05,2.8245450423014518e-08,6.150380795588717e-05
2.6856805561692454e-05,-4.6301051042973995e-05,2.961706013593357e-05,3.860540527966805e-05,-2.4852133719832636e-06,6.200264760991558e-05
2.841536479536444e-05,-4.4594620703719556e-05,3.146054223179817e-05,4.229333717375994e-05,-3.798523266596021e-06,6.156558083603159e-05
2.8006548745906912e-05,-4.4186654122313485e-05,3.0253344448283315e-05,4.212617204757407e-05,-6.366024535964243e-06,6.26315813860856e-05
2.7044679882237688e-05,-4.506255572778173e-05,3.102582195424475e-05,3.838994962279685e-05,-1.1491139957797714e-05,6.612893048441038e-05
2.9533726774388924e-05,-4.456248279893771e-05,3.406789619475603e-05,2.9963668566779234e-05,-1.7109223335864954e-05,7.085328252287582e-05
3.078040390391834e-05,-4.455033194972202e-05,3.380354246473871e-05,2.332255280634854e-05,-2.060374572465662e-05,7.360440940828994e-05
2.5674456992419437e-05,-4.660051126847975e-05,3.430855576880276e-05,2.3020742446533404e-05,-2.380510704824701e-05,7.219572580652311e-05
2.1018311599618755e-05,-4.729173087980598e-05,3.681127418531105e-05,2.1566445866483264e-05,-2.7060519641963765e-05,6.837919499957934e-05
1.7876067431643605e-05,-4.4877237087348476e-05,3.868897329084575e-05,1.6091529687400907e-05,-2.7308533390169032e-05,6.545811629621312e-05
1.8018652554019354e-05,-4.3948719394393265e-05,3.987364107160829e-05,1.2974443052371498e-05,-2.5492874556221068e-05,6.096868310123682e-05
2.259507164126262e-05,-4.639821781893261e-05,3.6114703107159585e-05,1.889205668703653e-05,-2.3274738850886934e-05,5.894621426705271e-05
2.2488837203127332e-05,-4.8350564611610025e-05,3.395472595002502e-05,2.74245558102848e-05,-2.050202601822093e-05,5.759715713793412e-05
1.7056638171197847e-05,-5.0150800234405324e-05,3.6687892134068534e-05,2.5642764740041457e-05,-1.9195313143427484e-05,5.237149525783025e-05
1.501824317529099e-05,-5.163562309462577e-05,3.6751349398400635e-05,1.7974371075979434e-05,-2.0765832232427783e-05,5.1598428399302065e-05
1.7382739315507933e-05,-5.27436968695838e-05,3.447296330705285e-05,1.5434445231221616e-05,-2.3919799787108786e-05,5.7713070418685675e-05
2.01326056412654e-05,-5.078429967397824e-05,3.3051645004888996e-05,1.9006789443665184e-05,-2.5290468329330906e-05,6.412835500668734e-05
2.217913424829021e-05,-4.789761806023307e-05,3.146751623717137e-05,2.2212439944269136e-05,-2.3172367946244776e-05,6.439872231567279e-05
2.4811073672026396e-05,-4.681136124418117e-05,2.8202313842484728e-05,2.2823902327218093e-05,-1.9790772057604045e-05,6.088044392527081e-05
2.7462278012535535e-05,-4.599361272994429e-05,2.6798679755302146e-05,2.1784291675430723e-05,-1.7908661902765743e-05,5.6799588492140174e-05
2.8147103876108304e-05,-4.480036659515463e-05,2.52861045737518e-05,2.2261585399974138e-05,-1.8142241970053874e-05,5.649653758155182e-05
2.8091080821468495e-05,-4.7625442675780505e-05,2.516649510653224e-05,2.6794308723765425e-05,-1.6360590961994603e-05,6.195799505803734e-05
2.7832871637656353e-05,-5.2721363317687064e-05,2.635203600220848e-05,3.427214687690139e-05,-1.131477711169282e-05,6.784392462577671e-05
2.7374655473977327e-05,-5.352284279069863e-05,2.694398062885739e-05,4.09970962209627e-05,-6.510010734928073e-06,6.951071554794908e-05
2.5837929570116103e-05,-5.0777936849044636e-05,2.631103416206315e-05,4.180027463007718e-05,-5.443489044409944e-06,6.899806612636894e-05
2.3387314286082983e-05,-4.833767161471769e-05,2.6050642190966755e-05,3.545303479768336e-05,-8.001591595530044e-06,6.81137535138987e-05
2.0846309780608863e-05,-4.745616024592891e-05,2.6894356778939255e-05,3.1077262974577025e-05,-9.352471352030989e-06,6.785475125070661e-05
2.0807512555620633e-05,-4.562348476611078e-05,2.8294127332628705e-05,3.895823465427384e-05,-8.385021828871686e-06,6.71554371365346e-05
2.2130690922494978e-05,-4.307051858631894e-05,3.027106504305266e-05,5.256986332824454e-05,-8.828650607028976e-06,6.33118543191813e-05
2.134597161784768e-05,-4.325649933889508e-05,3.228452624171041e-05,5.715313818654977e-05,-1.221479305968387e-05,5.98938568145968e-05
1.7299333194387145e-05,-4.5434826461132616e-05,3.4457745641702786e-05,4.8472626076545566e-05,-1.5380217519123107e-05,6.081715036998503e-05
1.2498022442741785e-05,-4.8377271014032885e-05,3.4712142223725095e-05,3.548900713212788e-05,-1.5803965652594343e-05,6.035899423295632e-05
1.1408882528485265e-05,-5.0421007472323254e-05,3.45205444318708e-05,2.631341340020299e-05,-1.5449340935447253e-05,5.372840678319335e-05
1.2341811270744074e-05,-4.816742875846103e-05,3.206338078598492e-05,2.0951147234882228e-05,-1.5824869478819892e-05,5.1077277021249756e-05
1.592244916537311e-05,-4.5673074055230245e-05,2.8013342671329156e-05,1.726390291878488e-05,-1.6672915080562234e-05,5.909058381803334e-05
2.177565693273209e-05,-4.502809315454215e-05,2.714888978516683e-05,1.8147089576814324e-05,-1.716733277135063e-05,6.92676767357625e-05
2.165385740227066e-05,-4.638330210582353e-05,3.0556300771422684e-05,2.3984483050298877e-05,-1.6805319319246337e-05,7.113106403267011e-05
1.730078656692058e-05,-4.838321910938248e-05,3.428284981055185e-05,2.6930936655844562e-05,-1.571518623677548e-05,6.522580952150747e-05
1.4879332411510404e-05,-5.239358506514691e-05,3.459301296970807e-05,2.4350660169147886e-05,-1.8373877537669614e-05,6.162885983940214e-05
1.3340464647626504e-05,-5.389817670220509e-05,3.2594056392554194e-05,2.176820817112457e-05,-2.5332985387649387e-05,6.107099761720747e-05
1.2374561265460216e-05,-5.30716497451067e-05,2.9830891435267404e-05,2.078936631733086e-05,-2.8473397833295166e-05,5.872979454579763e-05
1.2250844520167448e-05,-5.3328876674640924e-05,2.9155862648622133e-05,2.4685539756319486e-05,-2.7267562472843565e-05,5.532976138056256e-05
1.0785717677208595e-05,-5.485817382577807e-05,3.159944390063174e-05,3.1927851523505524e-05,-2.2156735212774947e-05,5.1726583478739485e-05
8.732442438486032e-06,-5.4621530580334365e-05,3.364462827448733e-05,4.020256164949387e-05,-1.9130378859699704e-05,5.127453914610669e-05
1.117129431804642e-05,-5.393672108766623e-05,3.1737963581690565e-05,4.6002023736946285e-05,-2.048597343673464e-05,5.387172132031992e-05
1.7512607882963493e-05,-5.307348692440428e-05,2.9225480830064043e-05,4.4347620132612064e-05,-1.996025093831122e-05,5.834326657350175e-05
2.3987084205145948e-05,-5.289764885674231e-05,3.1297095119953156e-05,3.953402119805105e-05,-1.5772013284731656e-05,6.339640822261572e-05
2.8420408852980472e-05,-5.501710984390229e-05,3.521178587106988e-05,3.7232795875752345e-05,-1.0380881576566026e-05,6.435626710299402e-05
3.1759089324623346e-05,-5.557806434808299e-05,3.5098808439215645e-05,3.699141961988062e-05,-6.691762337140972e-06,6.0988528275629506e-05
3.321140320622362e-05,-5.489085742738098e-05,3.214228490833193e-05,3.27004527207464e-05,-4.319975232647266e-06,5.793441232526675e-05
3.337263842695393e-05,-5.176462946110405e-05,3.0586234061047435e-05,2.327595757378731e-05,-3.3731412258930504e-06,5.841594247613102e-05
3.2975342037389055e-05,-5.010705717722885e-05,3.074306368944235e-05,1.4707920854561962e-05,-1.0286481710863882e-06,6.107374792918563e-05
3.1100942578632385e-05,-5.230405440670438e-05,3.176752579747699e-05,1.1690259270835668e-05,-1.0835974251222069e-07,5.899613461224362e-05
2.784862954285927e-05,-5.636132846120745e-05,3.2324634958058596e-05,1.4715084034833126e-05,-2.0862732981186127e-06,5.201247404329479e-05
2.3524862626800314e-05,-5.712658821721561e-05,3.1228846637532115e-05,2.16444386751391e-05,-4.777747108164476e-06,4.8446159780723974e-05
2.049231989076361e-05,-5.367999256122857e-05,3.118124004686251e-05,2.7568032237468287e-05,-3.611810143411276e-06,5.0090769946109504e-05
1.9273989892099053e-05,-4.804994387086481e-05,3.4386732295388356e-05,2.999049684149213e-05,1.5004803799456568e-06,5.01378090120852e-05
1.949088618857786e-05,-4.47177080786787e-05,3.7109970435267314e-05,3.071624814765528e-05,4.492833795666229e-06,4.784793418366462e-05
2.0186642359476537e-05,-4.592182085616514e-05,3.6881992855342105e-05,3.154644218739122e-05,2.627175945235649e-06,4.6794095396762714e-05
2.0511468392214738e-05,-4.998744043405168e-05,3.3165753848152235e-05,3.029308390978258e-05,1.3718403124585166e-06,4.49744111392647e-05
2.109043452946935e-05,-5.193695687921718e-05,2.9569553589681163e-05,3.090633617830463e-05,1.1651751492536278e-06,4.6161007048795e-05
2.1205212760833092e-05,-5.11712278239429e-05,3.139256659778766e-05,3.273038237239234e-05,-9.979296464734944e-07,4.89607518829871e-05
1.937293382070493e-05,-5.119913112139329e-05,3.403392474865541e-05,2.898100319725927e-05,-4.463011464395095e-06,4.819678724743426e-05
1.5066981177369598e-05,-5.287210296955891e-05,3.380414273124188e-05,2.7596302970778197e-05,-9.388286343892105e-06,4.894640369457193e-05
1.247112413693685e-05,-5.260088437353261e-05,3.291922257631086e-05,3.316766378702596e-05,-1.3054920600552578e-05,5.282845813781023e-05
1.7122152712545358e-05,-5.195632184040733e-05,3.05827779811807e-05,3.7744262954220176e-05,-1.5337174772867e-05,5.8141376939602196e-05
2.3824602976674214e-05,-5.16547734150663e-05,2.696654701139778e-05,3.680856752907857e-05,-1.4622886737925e-05,5.7386798289371654e-05
2.698055141081568e-05,-5.050324762123637e-05,2.2981181245995685e-05,3.4440708986949176e-05,-1.207294553751126e-05,4.9591144488658756e-05
2.5992834707722068e-05,-5.0642716814763844e-05,2.256667175970506e-05,3.1652638426749036e-05,-1.4436426681641024e-05,4.4887947296956554e-05
2.2455664293374866e-05,-5.043935379944742e-05,2.653022966114804e-05,2.8649121304624714e-05,-2.9291786631802097e-05,4.454749068827368e-05
2.0668509023380466e-05,-4.956562406732701e-05,3.077202563872561e-05,2.889727875299286e-05,-4.7459408961003646e-05,4.795119457412511e-05
2.013305129366927e-05,-4.835927757085301e-05,3.033888242498506e-05,3.1508036045124754e-05,-5.3719006245955825e-05,5.166150731383823e-05
1.7398808267898858e-05,-4.8944053560262546e-05,2.5863902919809334e-05,3.2425072276964784e-05,-4.5946457248646766e-05,5.56502491235733e-05
1.487849931436358e-05,-4.9860766011988744e-05,2.3448903448297642e-05,3.0279357815743424e-05,-3.3516906114527956e-05,5.657843576045707e-05
1.5738674846943468e-05,-4.810645623365417e-05,2.51491364906542e-05,2.6820336643140763e-05,-2.2988126147538424e-05,5.439003143692389e-05
1.8152737538912334e-05,-4.2696115997387096e-05,2.770619175862521e-05,2.2982103473623283e-05,-1.830936162150465e-05,5.48815842194017e-05
1.918687303259503e-05,-3.8666603359160945e-05,3.0007822715560906e-05,2.1609102986985818e-05,-2.1880561689613387e-05,5.767395850853063e-05
1.805280953703914e-05,-4.033597360830754e-05,3.109957469860092e-05,2.325320201634895e-05,-3.033382017747499e-05,5.88097536819987e-05
1.5648331100237556e-05,-4.3935648136539385e-05,2.9819910196238197e-05,2.5841469323495403e-05,-3.48071516782511e-05,5.844615225214511e-05
1.2564055396069307e-05,-4.4882330257678404e-05,2.7036980100092478e-05,2.683748425624799e-05,-2.804832547553815e-05,5.827605491504073e-05
1.046309535013279e-05,-4.366609937278554e-05,2.4185133952414617e-05,2.5012217520270497e-05,-1.2653020348807331e-05,5.916610098211095e-05
1.1124872798973229e-05,-4.264557719579898e-05,2.262145972053986e-05,2.2090867787483148e-05,3.188591790603823e-06,6.196137110237032e-05
1.3492904145095963e-05,-4.314479519962333e-05,2.2892561901244335e-05,2.308785042259842e-05,1.3898705219617113e-05,6.330555333988741e-05
1.4176011973177083e-05,-4.4623506255447865e-05,2.509393380023539e-05,2.7610722099780105e-05,2.2876731236465275e-05,6.220047362148762e-05
1.2902162779937498e-05,-4.431207344168797e-05,2.679987119336147e-05,3.0287090339697897e-05,3.3592124964343384e-05,6.193138688104227e-05
1.383158360113157e-05,-4.4561071263160557e-05,2.9241298761917278e-05,2.9344484573812224e-05,4.086825720150955e-05,6.605095404665917e-05
2.0025116100441664e-05,-4.6063993067946285e-05,3.322706470498815e-05,2.674130882951431e-05,4.220461050863378e-05,7.24547280697152e-05
2.8410580853233114e-05,-4.5721782953478396e-05,3.942663170164451e-05,2.7428419343777932e-05,4.028081821161322e-05,8.016810897970572e-05
3.394483064766973e-05,-4.309385622036643e-05,4.4445554522098973e-05,3.35367803927511e-05,3.374185325810686e-05,8.683501073392108e-05
3.5640037822304294e-05,-4.397409065859392e-05,4.2814292100956663e-05,3.91485846193973e-05,2.6479352527530864e-05,8.737537427805364e-05
3.222196392016485e-05,-4.852490019402467e-05,3.826401007245295e-05,3.6346031265566126e-05,2.3107175366021693e-05,8.077756501734257e-05
2.58183827099856e-05,-4.867387906415388e-05,3.887548155034892e-05,3.161715358146466e-05,1.6917996617848985e-05,7.40857285563834e-05
2.1699623175663874e-05,-4.71297389594838e-05,3.849849235848524e-05,3.375221785972826e-05,6.009462140355026e-06,7.061426731524989e-05
2.059679536614567e-05,-4.674969386542216e-05,3.638159250840545e-05,3.56424534402322e-05,-2.7184682949155103e-07,6.472385575762019e-05
2.0009700165246613e-05,-4.6437613491434604e-05,3.873084278893657e-05,3.328196908114478e-05,-6.6416532717994414e-06,5.7302197092212737e-05
2.1988062144373544e-05,-4.380769678391516e-05,4.309690120862797e-05,3.0495655664708465e-05,-1.5589361282764003e-05,5.477993909153156e-05
2.554702223278582e-05,-4.247765173204243e-05,4.484987221076153e-05,3.088973244302906e-05,-2.3245649572345428e-05,5.35024082637392e-05
2.648361805768218e-05,-4.4561296817846596e-05,4.3067833757959306e-05,3.2535088394070044e-05,-2.4392546038143337e-05,5.116463216836564e-05
2.3869724827818573e-05,-4.7245081077562645e-05,4.2521216528257355e-05,2.7419910111348145e-05,-2.1243837181827985e-05,4.994688060833141e-05
1.9832446923828684e-05,-4.764293771586381e-05,4.226202145218849e-05,1.987740324693732e-05,-1.92528787010815e-05,5.259879617369734e-05
1.989189513551537e-05,-4.746783815789968e-05,4.212008570902981e-05,1.522701404610416e-05,-1.8112477846443653e-05,5.616233465843834e-05
2.2728940166416578e-05,-4.995629205950536e-05,4.2476858652662486e-05,1.3896899872634094e-05,-1.6799409422674216e-05,5.544776649912819e-05
2.452780790918041e-05,-5.3365612984634936e-05,4.142397301620804e-05,1.531925954623148e-05,-1.6870426406967454e-05,4.894089215667918e-05
2.366414810239803e-05,-5.448586671263911e-05,3.832469155895524e-05,1.853645153460093e-05,-1.76333178387722e-05,3.97333933506161e-05
2.2273117792792618e-05,-5.272877751849592e-05,3.543934508343227e-05,2.061329360003583e-05,-1.888087899715174e-05,3.585173544706777e-05
2.157790913770441e-05,-5.03602932440117e-05,3.458764695096761e-05,1.8689788703341037e-05,-2.2560463548870757e-05,3.915696652256884e-05
2.28762819460826e-05,-4.9157719331560656e-05,3.541662954376079e-05,1.567571598570794e-05,-2.5338667910546064e-05,4.49696381110698e-05
2.817214044625871e-05,-4.8918798711383715e-05,3.715070852194913e-05,1.4008291145728435e-05,-2.4015209419303574e-05,5.159263309906237e-05
3.31650189764332e-05,-4.8454465286340564e-05,3.599594856495969e-05,1.4780061974306591e-05,-2.021085128944833e-05,5.767795300926082e-05
3.3165077184094116e-05,-4.894942321698181e-05,3.082395051023923e-05,1.539949698781129e-05,-1.6594878616160713e-05,6.160135671962053e-05
3.103742710663937e-05,-4.8940288252197206e-05,2.543230220908299e-05,1.3105387552059256e-05,-1.1360705684637651e-05,6.662237865384668e-05
2.982784280902706e-05,-5.032779154134914e-05,2.2589312720810995e-05,1.2484011676860973e-05,-5.666629931511125e-06,7.269831257872283e-05
2.900389335991349e-05,-5.2543658966897056e-05,2.2748123228666373e-05,1.7048556401277892e-05,-5.681339416696574e-07,7.590280438307673e-05
2.7347479772288352e-05,-5.259054887574166e-05,2.5317563995486125e-05,1.9842953406623565e-05,3.2477844342793105e-06,7.129949517548084e-05
2.4174052668968216e-05,-5.001447061658837e-05,2.8731255952152424e-05,1.947452619788237e-05,5.896458787901793e-06,6.434693204937503e-05
2.4484468667651527e-05,-4.721702862298116e-05,3.054766057175584e-05,1.977615465875715e-05,3.985284365626285e-06,6.517343717860058e-05
2.9447042834362946e-05,-4.623668428394012e-05,3.112492413492873e-05,2.3854363462305628e-05,-1.1517913662828505e-06,6.689700239803642e-05
3.135413135169074e-05,-4.916594480164349e-05,3.185195237165317e-05,3.307366932858713e-05,-5.9944136410194915e-06,6.279530498431996e-05
2.9990918847033754e-05,-5.026669168728404e-05,3.190245115547441e-05,4.205852746963501e-05,-8.39810491015669e-06,5.828700523125008e-05
2.936979944934137e-05,-4.672233990277164e-05,3.315582944196649e-05,5.2116978622507304e-05,-9.5955319920904e-06,5.703751230612397e-05
2.8161792215541936e-05,-4.1899267671396956e-05,3.422682493692264e-05,7.074107270454988e-05,-1.0238981303700712e-05,5.7699799071997404e-05
2.499928086763248e-05,-3.7984547816449776e-05,3.368680700077675e-05,9.319997479906306e-05,-1.3250164556666277e-05,5.296162999002263e-05
1.979127773665823e-05,-3.771107367356308e-05,3.1360152206616476e-05,0.00010732175724115223,-1.962018541235011e-05,4.841589179704897e-05
1.4782473044760991e-05,-3.989071774412878e-05,2.7642247005132958e-05,0.00010504506644792855,-2.3327424059971236e-05,5.072417116025463e-05
1.1945488950004801e-05,-4.30997388320975e-05,2.7121139282826334e-05,8.902303670765832e-05,-2.3756543669151142e-05,5.8438454288989305e-05
1.164404511655448e-05,-4.607839582604356e-05,3.0640887416666374e-05,7.026023376965895e-05,-2.5421521058888175e-05,6.30968643235974e-05
1.2454685020202305e-05,-4.9024161853594705e-05,3.520247992128134e-05,5.36451734660659e-05,-2.783972377073951e-05,6.169257540022954e-05
1.3815668353345245e-05,-5.2416431572055444e-05,3.4871758543886244e-05,4.533917672233656e-05,-2.8870077585452236e-05,5.806338231195696e-05
1.3784244401904289e-05,-5.5058921134332195e-05,2.982012665597722e-05,4.5510583731811494e-05,-2.728576509980485e-05,5.581674486165866e-05
1.3391182619670872e-05,-5.644659177050926e-05,2.5346220354549587e-05,4.63013602711726e-05,-2.3247293938766234e-05,5.5066240747692063e-05
1.459173745388398e-05,-5.6305943871848285e-05,2.4937844500527717e-05,4.245673699188046e-05,-1.7779226254788227e-05,5.425014751381241e-05
1.740243169479072e-05,-5.5014275858411565e-05,2.85239966615336e-05,3.007455416081939e-05,-1.2017510016448796e-05,5.733273064834066e-05
2.2518877813126892e-05,-5.5801792768761516e-05,3.3186970540555194e-05,1.3517707884602714e-05,-9.39137225941522e-06,6.03795051574707e-05
2.891893745982088e-05,-5.63119538128376e-05,3.5658486012835056e-05,3.421049086682615e-06,-9.83606241788948e-06,5.618582872557454e-05
3.273904076195322e-05,-5.4774780437583104e-05,3.3979089494096115e-05,4.957435976393754e-06,-1.133984733314719e-05,4.835400977754034e-05
3.1123970984481275e-05,-5.295715527608991e-05,2.9730326787102968e-05,1.4012163774168584e-05,-1.3958750059828162e-05,4.734855247079395e-05
2.777854388114065e-05,-5.226125358603895e-05,2.6534484277362935e-05,2.180743649660144e-05,-1.586079270055052e-05,5.145625618752092e-05
2.5489442123216577e-05,-5.2344377763802186e-05,2.6772926503326744e-05,1.980614979402162e-05,-1.3702348951483145e-05,5.365448669181205e-05
2.2936790628591552e-05,-5.385029362514615e-05,3.020009353349451e-05,1.3612260772788431e-05,-1.2585183867486194e-05,5.460698957904242e-05
1.8926568372990005e-05,-5.767177208326757e-05,3.5297791328048334e-05,1.3295731150719803e-05,-1.3588645742856897e-05,5.879480158910155e-05
1.5020338651083875e-05,-6.140759069239721e-05,3.798045145231299e-05,1.856070593930781e-05,-1.3242248314782046e-05,6.137158925412223e-05
1.2666641850955784e-05,-6.323052366496995e-05,3.575349910533987e-05,2.3979737306945026e-05,-1.313320444751298e-05,6.126443622633815e-05
1.3462803508446086e-05,-6.11364739597775e-05,3.294436464784667e-05,2.5579556677257642e-05,-1.5552293916698545e-05,6.251757440622896e-05
1.6311289073200896e-05,-5.929508915869519e-05,3.199675484211184e-05,2.488439167791512e-05,-1.7118525647674687e-05,6.413855589926243e-05
1.436046113667544e-05,-5.952024002908729e-05,3.29092908941675e-05,2.1484989702003077e-05,-1.3804758964397479e-05,6.300202221609652e-05
1.122520370699931e-05,-5.534853335120715e-05,3.61163001798559e-05,1.6672785932314582e-05,-8.38320829643635e-06,6.422142178053036e-05
1.1661320058919955e-05,-5.061312185716815e-05,3.5985536669613793e-05,1.6488740584463812e-05,-6.018161911924835e-06,6.717048381688073e-05
1.0527561244089156e-05,-4.901755528408103e-05,3.4618762583704665e-05,1.7700394892017357e-05,-7.136070962587837e-06,7.061556971166283e-05
7.824763088137843e-06,-4.905256355414167e-05,3.6795037885895e-05,1.3507453331840225e-05,-9.085936653718818e-06,7.387440564343706e-05
3.1503357149631483e-06,-5.1259408792247996e-05,3.9287813706323504e-05,8.022980182431638e-06,-7.800740604579914e-06,6.82211248204112e-05
4.30877094004245e-07,-5.124903691466898e-05,3.8289119402179495e-05,6.9196339609334245e-06,-4.584698217513505e-06,5.972630242467858e-05
1.1161330348841147e-06,-4.934892422170378e-05,3.546730295056477e-05,8.696184522705153e-06,-1.2512684861576417e-06,5.7376277254661545e-05
3.3498911307106027e-06,-4.774087938130833e-05,3.441747321630828e-05,1.2500341654231306e-05,-3.364764324942371e-06,6.225307151908055e-05
6.14035843682359e-06,-4.728464409708977e-05,3.221646693418734e-05,1.7058704543160275e-05,-1.2284129297768231e-05,6.924363697180524e-05
7.103594725776929e-06,-4.791698302142322e-05,2.7767107894760557e-05,2.086429412884172e-05,-2.0551748093566857e-05,7.151510362746194e-05
1.0219921932730358e-05,-4.810584505321458e-05,2.3558945031254552e-05,2.156368464056868e-05,-2.518426117603667e-05,6.63303435430862e-05
1.4334781553770881e-05,-4.675062882597558e-05,2.2270669433055446e-05,1.954792969627306e-05,-2.661606777110137e-05,5.949099795543589e-05
1.5777030057506636e-05,-4.4081003579776734e-05,2.3787251848261803e-05,1.8647213437361643e-05,-2.6209398129140027e-05,5.640455492539331e-05
1.3644236787513364e-05,-4.384226485854015e-05,2.616677011246793e-05,1.7093008864321746e-05,-2.2102429284132086e-05,5.6289907661266625e-05
1.2966992471774574e-05,-4.600005195243284e-05,2.8757900508935563e-05,1.3187073818698991e-05,-1.4883099538565148e-05,5.8255121984984726e-05
1.718864768918138e-05,-4.8783087549963966e-05,3.133753489237279e-05,1.0840068171091843e-05,-1.0027763892139774e-05,5.814626638311893e-05
2.3197884729597718e-05,-4.912707663606852e-05,3.3739815989974886e-05,1.283045821764972e-05,-9.886853149509989e-06,5.307957690092735e-05
2.722666431509424e-05,-4.824906136491336e-05,3.476894926279783e-05,1.7312593627138995e-05,-9.383131327922456e-06,4.5977329136803746e-05
2.9683427783311345e-05,-4.85583623230923e-05,3.2908104913076386e-05,2.2492768039228395e-05,-6.0483812376332935e-06,4.171341788605787e-05
3.079639282077551e-05,-5.084725853521377e-05,2.9127813832019456e-05,2.3604001398780383e-05,-3.924702014046488e-06,3.848692722385749e-05
3.0495613827952184e-05,-5.4021060350351036e-05,2.5455272407270968e-05,2.2129883291199803e-05,-5.576171133725438e-06,3.6281871871324256e-05
3.1978212064132094e-05,-5.434000922832638e-05,2.52386016654782e-05,2.368264176766388e-05,-8.680854080012068e-06,3.7312140193535015e-05
3.357617242727429e-05,-5.1518771215341985e-05,2.7766425773734227e-05,2.6756213628686965e-05,-8.330909622600302e-06,3.9694630686426535e-05
3.159785774187185e-05,-4.979617369826883e-05,3.0373292247531936e-05,3.018875577254221e-05,-4.346711193647934e-06,4.1106733988272026e-05
3.089464735239744e-05,-5.239442180027254e-05,3.2564494176767766e-05,3.05425601254683e-05,-1.253433197234699e-06,4.4577132939593866e-05
3.494246266200207e-05,-5.4116429964778945e-05,3.1993011361919343e-05,2.7925867470912635e-05,2.067322611765121e-06,5.340653660823591e-05
3.689154254971072e-05,-5.177901402930729e-05,3.511743852868676e-05,3.0016688469913788e-05,7.020684734015958e-06,6.17920741206035e-05
3.609803388826549e-05,-5.0041595386574045e-05,3.858262789435685e-05,3.3031607017619535e-05,9.44096245802939e-06,6.700245285173878e-05
3.635287066572346e-05,-5.3160656534601e-05,3.664198811748065e-05,3.499440572340973e-05,4.91181390316342e-06,6.805438169976696e-05
3.8674683310091496e-05,-5.5823507864261046e-05,3.618418122641742e-05,3.558039679774083e-05,-3.904273739863129e-07,7.034052396193147e-05
3.845883111353032e-05,-5.316222086548805e-05,3.6317473131930456e-05,3.61887359758839e-05,-9.363415074403747e-07,7.401034963550046e-05
3.572503192117438e-05,-5.0251132051926106e-05,3.5085162380710244e-05,3.880189615301788e-05,1.4326470818559756e-06,6.998133176239207e-05
3.297507646493614e-05,-4.823048220714554e-05,3.4942469937959686e-05,3.938246300094761e-05,7.671752086935157e-07,5.869544838787988e-05
3.0133551263133995e-05,-4.576443461701274e-05,3.816167372860946e-05,3.6478792026173323e-05,-2.200914877903415e-06,5.1857616199413314e-05
2.8249887691345066e-05,-4.366925350041129e-05,4.0657349018147215e-05,3.144640868413262e-05,-2.9256600555527257e-06,5.232660987530835e-05
2.8736427339026704e-05,-4.289799107937142e-05,3.888649371219799e-05,2.653968294907827e-05,-1.1148176781716757e-06,5.391092781792395e-05
3.0318371500470676e-05,-4.407859159982763e-05,3.656199260149151e-05,2.0728804884129204e-05,-1.5543284916930133e-06,5.459285603137687e-05
3.063616168219596e-05,-4.523240204434842e-05,3.655492400866933e-05,1.7761034541763365e-05,-1.3951595974504016e-05,5.3724648751085624e-05
3.138850661343895e-05,-4.558782893582247e-05,3.786612433032133e-05,1.805626743589528e-05,-3.485048364382237e-05,5.154508471605368e-05
3.211812872905284e-05,-4.302518937038258e-05,3.582556018955074e-05,2.0240562662365846e-05,-5.415055784396827e-05,4.986246858607046e-05
3.16958648909349e-05,-3.871072840411216e-05,2.971508729388006e-05,2.118535303452518e-05,-6.537040462717414e-05,4.932708907290362e-05
2.8268319510971196e-05,-3.7487152440007776e-05,2.6132767743547447e-05,2.2484440705738962e-05,-6.840845890110359e-05,4.820681715500541e-05
2.264570866827853e-05,-4.2418279917910695e-05,2.815525294863619e-05,2.5835863198153675e-05,-6.32056180620566e-05,4.717411502497271e-05
1.6947031326708384e-05,-4.780306699103676e-05,3.2084775739349425e-05,3.2311651011696085e-05,-5.0441871280781925e-05,4.7409273975063115e-05
1.3632145964947995e-05,-4.831934711546637e-05,3.230199945392087e-05,3.917402136721648e-05,-2.957087053800933e-05,5.159896318218671e-05
1.453791992389597e-05,-4.7652200009906664e-05,2.8574906536960043e-05,4.106041160412133e-05,-2.2533761239174055e-06,5.920881812926382e-05
1.78396931005409e-05,-4.974226249032654e-05,2.582230263215024e-05,3.86147185054142e-05,2.5671753974165767e-05,6.0982649301877245e-05
1.9149405488860793e-05,-5.165936454432085e-05,2.718402538448572e-05,3.391594873392023e-05,4.92552608193364e-05,5.089424303150736e-05
1.9237568267271854e-05,-5.254300049273297e-05,3.192158692399971e-05,2.8674134227912873e-05,6.711026071570814e-05,4.306745177018456e-05
2.2514663214678876e-05,-5.279882680042647e-05,3.486412970232777e-05,2.2482103304355405e-05,8.024731505429372e-05,4.6247187128756195e-05
2.6444793547852896e-05,-4.9226433475269005e-05,3.4630895243026316e-05,2.117065741913393e-05,8.177563722711056e-05,5.496601443155669e-05
2.7836613298859447e-05,-4.695919415098615e-05,3.45301341440063e-05,2.4861423298716545e-05,6.831045175204054e-05,5.761703505413607e-05
2.8168762582936324e-05,-4.846374940825626e-05,3.6914305383106694e-05,2.9189754059189e-05,4.8861384129850194e-05,5.4027241276344284e-05
2.7674599550664425e-05,-4.941154475091025e-05,3.755697616725229e-05,2.955415766336955e-05,3.4150689316447824e-05,5.239410893409513e-05
2.3436106857843697e-05,-5.00664536957629e-05,3.382634531590156e-05,2.6807103495229967e-05,2.1720277800341137e-05,5.261072510620579e-05
1.7725089492159896e-05,-5.02686234540306e-05,2.817320819303859e-05,2.4164428396034054e-05,9.11528604774503e-06,5.8931647799909115e-05
1.8323153199162334e-05,-4.8135858378373086e-05,2.5223696866305545e-05,2.3035023332340643e-05,-1.6649304370730533e-06,6.456218397943303e-05
2.1351985196815804e-05,-4.5508193579735234e-05,2.631161260069348e-05,2.681701516848989e-05,-1.104465172829805e-05,6.33674644632265e-05
2.2618267394136637e-05,-4.5372096792561933e-05,2.7354153644409962e-05,3.069122976739891e-05,-1.6146474081324413e-05,6.02100117248483e-05
2.3752563720336184e-05,-4.706185427494347e-05,2.543474874983076e-05,2.9624650778714567e-05,-2.035352554230485e-05,6.110237154643983e-05
2.1512792955036275e-05,-4.7430890845134854e-05,2.2315543901640922e-05,2.7588941520662047e-05,-2.5191362510668114e-05,6.550681428052485e-05
1.6041110939113423e-05,-4.7186826122924685e-05,2.5421099053346552e-05,2.91526139335474e-05,-2.8250287869013846e-05,6.947015936020762e-05
1.1481547517178115e-05,-4.89134035888128e-05,3.156720049446449e-05,3.280086093582213e-05,-2.8676509828073904e-05,7.124919648049399e-05
1.2516370588855352e-05,-5.4091022320790216e-05,3.4646327549126e-05,3.6976787669118494e-05,-3.0223012799979188e-05,7.18046649126336e-05
1.7949352695723064e-05,-5.668338053510524e-05,3.166470196447335e-05,4.0291510231327266e-05,-3.307948281872086e-05,7.350176019826904e-05
2.4072074666037224e-05,-5.541984137380496e-05,2.7635272999759763e-05,4.2436378862475976e-05,-3.522037513903342e-05,7.601270772283897e-05
2.7372516342438757e-05,-5.164934555068612e-05,2.834805127349682e-05,4.884186273557134e-05,-3.8024089008104056e-05,7.53581989556551e-05
2.8966664103791118e-05,-4.873032230534591e-05,3.268852742621675e-05,6.227686390047893e-05,-4.0863858885131776e-05,6.879104330437258e-05
3.0049624911043793e-05,-5.028177838539705e-05,3.73016664525494e-05,7.534984615631402e-05,-4.2896397644653916e-05,5.966846947558224e-05
2.9070901291561313e-05,-5.25832838320639e-05,3.981106783612631e-05,7.628383173141629e-05,-4.239985719323158e-05,5.2065879572182894e-05
2.594349098217208e-05,-4.978208744432777e-05,3.854543683701195e-05,6.501889583887532e-05,-3.84967279387638e-05,5.120474088471383e-05
2.113587106578052e-05,-4.512176019488834e-05,3.4415792470099404e-05,4.971481394022703e-05,-3.098631714237854e-05,5.563551894738339e-05
1.603175769560039e-05,-4.63645628769882e-05,3.310254396637902e-05,3.618349364842288e-05,-2.5485471269348636e-05,6.003187445458025e-05
1.3497149666363839e-05,-5.2166225941618904e-05,3.219851714675315e-05,2.6433572202222422e-05,-2.522175600461196e-05,5.9930491261184216e-05
1.4320457012217958e-05,-5.674019121215679e-05,2.9325185096240602e-05,1.9918687030440196e-05,-2.465588659106288e-05,5.5676639021839947e-05
1.7166341422125697e-05,-5.866977880941704e-05,2.990539178426843e-05,1.658106702961959e-05,-2.0226747437845916e-05,5.3919677156955004e-05
1.8171296687796712e-05,-5.966886237729341e-05,3.285452112322673e-05,1.7004687833832577e-05,-1.6488778783241287e-05,5.810298171127215e-05
1.904189593915362e-05,-5.801113729830831e-05,3.2546857255510986e-05,1.7564763766131364e-05,-1.494607568020001e-05,6.304505950538442e-05
2.326617504877504e-05,-5.5326614528894424e-05,3.164114968967624e-05,2.172844142478425e-05,-1.680038076301571e-05,6.503955228254199e-05
2.9155949960113503e-05,-5.424722621683031e-05,3.291881876066327e-05,3.20435174216982e-05,-1.911920844577253e-05,6.261466478463262e-05
2.9378723411355168e-05,-5.256235090200789e-05,3.6817858926951885e-05,3.5559754905989394e-05,-1.6657300875522196e-05,5.7248158555012196e-05
2.1763771655969322e-05,-4.715413160738535e-05,3.8558999222004786e-05,3.384075534995645e-05,-1.2842349860875402e-05,5.3033549193060026e-05
1.673019323789049e-05,-4.6293433115351945e-05,3.44599066011142e-05,3.4304823202546686e-05,-1.0031228157458827e-05,5.417015199782327e-05
1.6029143807827495e-05,-5.085399970994331e-05,2.6920128220808692e-05,3.538430974003859e-05,-1.0426389053463936e-05,5.9171881730435416e-05
1.6220961697399616e-05,-5.411371967056766e-05,2.3473226974601857e-05,3.705062044900842e-05,-1.1842409548989963e-05,5.966939352219924e-05
1.6886144294403493e-05,-5.3402716730488464e-05,2.573065103206318e-05,3.631625077105127e-05,-1.0443318387842737e-05,5.976859392831102e-05
1.9793769752141088e-05,-5.212822725297883e-05,2.9969420211273246e-05,3.1186355045065284e-05,-1.0323799870093353e-05,6.128395034465939e-05
2.1605479560093954e-05,-5.5158117902465165e-05,3.2303021725965664e-05,2.476550616847817e-05,-1.0808880688273348e-05,5.992435762891546e-05
2.2624040866503492e-05,-5.816291377414018e-05,3.324958379380405e-05,2.456643596815411e-05,-1.1860330232593697e-05,5.558004340855405e-05
2.0238905563019216e-05,-5.8511934184934944e-05,3.438142448430881e-05,2.5952655050787143e-05,-1.4093229765421711e-05,5.508599861059338e-05
1.8580509276944213e-05,-5.963554576737806e-05,3.5175740777049214e-05,2.3365111701423302e-05,-1.7163267330033705e-05,5.979036359349266e-05
2.0309867977630347e-05,-6.268543802434579e-05,3.7921967305010185e-05,1.9428289306233637e-05,-1.8523975086282007e-05,6.365542503772303e-05
2.219079397036694e-05,-6.37501070741564e-05,4.152767360210419e-05,1.6506284737261012e-05,-1.8076196283800527e-05,6.57840573694557e-05
2.208082878496498e-05,-6.0109119658591226e-05,4.2976858821930364e-05,1.6619133020867594e-05,-1.984083792194724e-05,6.65460029267706e-05
1.922206865856424e-05,-5.5523418268421665e-05,3.967121665482409e-05,2.0055627828696743e-05,-2.216368193330709e-05,6.659370410488918e-05
1.660816269577481e-05,-5.259280078462325e-05,3.4664295526454225e-05,2.4402836061199196e-05,-2.142585981346201e-05,6.377418321790174e-05
1.628497011552099e-05,-5.203015825827606e-05,3.1484665669268e-05,2.5151888621621765e-05,-1.7562908396939747e-05,5.743913789046928e-05
1.8018452465184964e-05,-5.4449381423182786e-05,3.078227018704638e-05,2.3563923605252057e-05,-1.2688605238508899e-05,5.2380441047716886e-05
1.719236206554342e-05,-5.5410499044228345e-05,3.089404708589427e-05,2.429344385745935e-05,-7.838380952307489e-06,5.33171187271364e-05
1.3257718819659203e-05,-5.301257624523714e-05,2.9219478165032342e-05,2.6239058570354246e-05,-5.9274047998769674e-06,5.734560181736015e-05
9.061453965841793e-06,-5.1126149628544226e-05,2.494511500117369e-05,2.5008126613101922e-05,-6.390247563103912e-06,5.8445199101697654e-05
6.700476205878658e-06,-5.13077866344247e-05,2.2267257008934394e-05,2.37700132856844e-05,-6.987268534430768e-06,5.798451093141921e-05
6.696037871734006e-06,-5.123234586790204e-05,2.1714367903769016e-05,2.3701679310761392e-05,-6.403447969205445e-06,5.9832269471371546e-05
1.1394600733183324e-05,-5.0035429012496024e-05,2.4670611310284585e-05,2.757352194748819e-05,-6.485044195869705e-06,6.109063542680815e-05
1.6945043171290308e-05,-4.9006011977326125e-05,3.123299757135101e-05,3.5509154258761555e-05,-7.3926903496612795e-06,5.903379860683344e-05
2.163307544833515e-05,-4.870941484114155e-05,3.68247929145582e-05,3.938824374927208e-05,-5.193015113036381e-06,6.13202282693237e-05
2.4282666345243342e-05,-4.9218513595405966e-05,3.533585186232813e-05,3.6027027817908674e-05,-3.1352230962511385e-06,6.878873682580888e-05
2.358325400564354e-05,-4.8354304453823715e-05,3.062082396354526e-05,2.8568465495482087e-05,-3.2618099794490263e-06,6.699007644783705e-05
2.020674764935393e-05,-4.5097971451468766e-05,2.9028946300968528e-05,2.5081793864956126e-05,-3.636401288531488e-06,5.885909195058048e-05
2.072226743621286e-05,-3.991796256741509e-05,2.8275455406401306e-05,2.823020076903049e-05,-1.9779261037911056e-06,5.6138051149901e-05
2.8222468245076016e-05,-3.864881000481546e-05,2.7271025828667916e-05,2.974958624690771e-05,2.6473321668163408e-06,6.0086178564233705e-05
3.5807130188914016e-05,-4.227713725413196e-05,2.6665480618248694e-05,3.076430948567577e-05,5.910656454943819e-06,6.155972369015217e-05
3.906687561539002e-05,-4.378199446364306e-05,3.039590228581801e-05,3.516448850859888e-05,5.976342436042614e-06,5.4286338126985356e-05
3.795920929405838e-05,-4.211439591017552e-05,3.3089225325966254e-05,3.9494272641604766e-05,8.779545623838203e-07,4.5501063141273335e-05
3.267772262915969e-05,-4.1124811104964465e-05,3.1545889214612544e-05,3.699739318108186e-05,-6.331435088213766e-06,4.123021426494233e-05
2.6477500796318054e-05,-4.398123928694986e-05,2.6225503461319022e-05,2.7210273401578888e-05,-1.2325584066275042e-05,3.954652129323222e-05
2.38693282881286e-05,-4.485619501792826e-05,2.3056949430610985e-05,1.7104202925111167e-05,-1.277764022233896e-05,3.82926118618343e-05
2.7031732315663248e-05,-4.489913408178836e-05,2.4230765120591968e-05,1.284137943002861e-05,-1.0553687388892286e-05,4.177444498054683e-05
2.7899555789190345e-05,-4.6667577407788485e-05,2.9987728339619935e-05,1.5059409633977339e-05,-8.57285522215534e-06,4.866114613832906e-05
2.338448575756047e-05,-5.009254164178856e-05,3.508725421852432e-05,2.008973024203442e-05,-6.693472187180305e-06,5.391794184106402e-05
1.8023121810983866e-05,-5.092692663311027e-05,3.205115353921428e-05,2.6135412554140203e-05,-3.719811502378434e-06,5.3424442739924416e-05
1.6514690287294798e-05,-4.8959365813061595e-05,2.4088833015412092e-05,3.116740481345914e-05,-2.9228554012661334e-06,4.887371324002743e-05
1.802024598873686e-05,-4.5838693040423095e-05,1.8488608475308865e-05,3.439543434069492e-05,-7.223140528367367e-06,4.547038406599313e-05
1.8211769202025607e-05,-4.4590608013095334e-05,2.0792802388314158e-05,3.614590605138801e-05,-1.1086613085353747e-05,4.549248842522502e-05
1.806625550671015e-05,-4.728054045699537e-05,2.675365067261737e-05,3.725032365764491e-05,-1.0251568710373249e-05,4.8044796130852774e-05
1.978429645532742e-05,-5.002647594665177e-05,3.137619569315575e-05,3.7759913539048284e-05,-8.569437341066077e-06,5.3500625654123724e-05
2.59289317909861e-05,-4.9270478484686464e-05,3.483122054603882e-05,3.717630897881463e-05,-1.574449925101362e-05,6.159362237667665e-05
3.345320146763697e-05,-4.878429899690673e-05,3.7100500776432455e-05,3.4702625271165743e-05,-3.195534009137191e-05,7.081149669829756e-05
3.6770736187463626e-05,-5.0658978580031544e-05,3.483683758531697e-05,3.146038216073066e-05,-4.656348028220236e-05,7.912584260338917e-05
3.471017043921165e-05,-4.9371650675311685e-05,2.89593699562829e-05,2.7985686756437644e-05,-4.8247438826365396e-05,8.25331881060265e-05
3.093706982326694e-05,-4.5337208575801924e-05,2.4292594389407896e-05,2.6955996872857213e-05,-4.1148101445287466e-05,7.995004125405103e-05
2.9691953386645764e-05,-4.302981324144639e-05,2.3574915758217685e-05,2.6031590095954016e-05,-2.9871152946725488e-05,7.411634578602389e-05
3.190648931195028e-05,-4.7284596803365275e-05,2.5628805815358646e-05,2.47584939643275e-05,-1.8034659660770558e-05,7.082628144416958e-05
3.618780101533048e-05,-5.1442442781990394e-05,2.951569877041038e-05,2.4048766135820188e-05,-6.289909379120218e-06,7.255511445691809e-05
4.0590450225863606e-05,-5.274342402117327e-05,2.8473212296376005e-05,2.393234899500385e-05,1.2148502719355747e-06,7.613991328980774e-05
3.945603748434223e-05,-5.0244791054865345e-05,2.7733713068300858e-05,2.4620918338769116e-05,-6.158648830023594e-06,7.275120151462033e-05
3.4361441066721454e-05,-4.45764308096841e-05,3.0053108275751583e-05,2.260357177874539e-05,-2.0010516891488805e-05,6.239978392841294e-05
3.01738746202318e-05,-4.244415686116554e-05,3.13929449475836e-05,2.0806019165320322e-05,-2.515911364753265e-05,5.286898522172123e-05
3.0985447665443644e-05,-4.639449616661295e-05,2.9922621251898818e-05,1.834557951951865e-05,-2.050184593826998e-05,4.7941972297849134e-05
3.3203719794983044e-05,-4.671798160416074e-05,2.6782354325405322e-05,1.7922611732501537e-05,-8.834901564114261e-06,4.652918505598791e-05
3.358105823281221e-05,-4.3609852582449093e-05,2.6235378754790872e-05,2.2317401089821942e-05,2.972321908600861e-06,4.499179340200499e-05
2.9256270863697864e-05,-4.449378320714459e-05,2.6575129595585167e-05,2.5485382138867863e-05,1.2234079804329667e-05,4.22633602283895e-05
2.2880045435158536e-05,-4.784981138072908e-05,2.4573742848588154e-05,2.369851245020982e-05,1.633991087146569e-05,3.889318759320304e-05
1.7499743989901617e-05,-4.850069308304228e-05,2.197914000134915e-05,2.0044282791786827e-05,1.6377422070945613e-05,4.2873522033914924e-05
1.542873178550508e-05,-4.774489934789017e-05,2.1026951799285598e-05,1.8851256754714996e-05,1.5099097254278604e-05,5.3132833272684366e-05
1.545117629575543e-05,-5.0327649660175666e-05,2.0756328012794256e-05,1.6045081792981364e-05,1.184543452836806e-05,6.050148658687249e-05
1.5135829926293809e-05,-5.353579035727307e-05,2.2360898583428934e-05,1.1317531061649788e-05,5.9649905779224355e-06,6.440494325943291e-05
1.271202927455306e-05,-5.338308255886659e-05,2.547291478549596e-05,1.2257378330104984e-05,2.0147767827438656e-06,6.591050623683259e-05
8.903423804440536e-06,-4.984028419130482e-05,2.844490882125683e-05,2.621862768137362e-05,2.5381932573509403e-06,6.361427222145721e-05
7.165982879087096e-06,-4.766567508340813e-05,3.0490300559904426e-05,5.1492363127181306e-05,1.7762607740223757e-06,6.118672899901867e-05
8.311397323268466e-06,-4.831876140087843e-05,3.4028951631626114e-05,7.195688522187993e-05,-5.733693910769944e-07,6.16570541751571e-05
1.3537915037886705e-05,-4.871427154284902e-05,3.9336810004897416e-05,7.224612636491656e-05,-3.7709688172071765e-07,6.423331069527194e-05
1.8839893527911045e-05,-4.6755427320022136e-05,4.2287210817448795e-05,5.931383202550933e-05,-7.680806675125496e-07,6.677199417026713e-05
1.8374330466031097e-05,-4.580929089570418e-05,4.147221625316888e-05,4.976161289960146e-05,-7.205322617664933e-06,6.704800034640357e-05
1.2396825695759617e-05,-4.601434920914471e-05,3.9499853301094845e-05,4.5233369746711105e-05,-1.837659510783851e-05,6.861698057036847e-05
8.63343939272454e-06,-4.4669250200968236e-05,3.618426126195118e-05,4.245532909408212e-05,-2.992422378156334e-05,7.276369433384389e-05
8.391727533307858e-06,-4.219475886202417e-05,3.357331297593191e-05,4.25948019255884e-05,-3.579457552405074e-05,7.558664219686761e-05
1.008128765533911e-05,-4.2596857383614406e-05,3.398922490305267e-05,4.318291030358523e-05,-3.5097571526421234e-05,7.136110798455775e-05
1.00807692433591e-05,-4.430667468113825e-05,3.46052875102032e-05,4.163747507845983e-05,-2.914283686550334e-05,6.16879333392717e-05
1.0375982128607575e-05,-4.463051300263032e-05,3.2064959668787196e-05,3.9435995859093964e-05,-1.9273560610599816e-05,5.3727573686046526e-05
1.1580757018236909e-05,-4.3799776904052123e-05,3.3458676625741646e-05,3.052507236134261e-05,-1.1129517588415183e-05,5.4225522035267204e-05
1.1615403309406247e-05,-4.10191532864701e-05,3.5949946322944015e-05,2.3943135602166876e-05,-7.151083536882652e-06,5.596470145974308e-05
1.2321652320679277e-05,-4.145305501879193e-05,3.4221688110847026e-05,3.19783175655175e-05,-2.452817170706112e-06,5.442864858196117e-05
1.2765422980010044e-05,-4.357064244686626e-05,3.0470397177850828e-05,4.0113958675647154e-05,1.6280820318570477e-06,5.571219662670046e-05
1.1686175639624707e-05,-4.474253364605829e-05,2.8742450012941845e-05,4.314058242016472e-05,5.247116860118695e-06,5.764732486568391e-05
1.3058778677077498e-05,-4.742730743600987e-05,3.118255699519068e-05,4.209242615615949e-05,8.950252777140122e-06,5.579791832133196e-05
1.5680212527513504e-05,-4.890262789558619e-05,3.305511927464977e-05,3.679125802591443e-05,1.321110175922513e-05,5.1747723773587495e-05
1.9518471162882634e-05,-5.027162114856765e-05,3.55498559656553e-05,2.9415637982310727e-05,1.4277989976108074e-05,5.3225539886625484e-05
2.291272539878264e-05,-5.111317295813933e-05,3.710166129167192e-05,2.136703005817253e-05,1.4859314433124382e-05,5.859237353433855e-05
2.633875010360498e-05,-5.2515362767735496e-05,3.605402889661491e-05,1.722572596918326e-05,1.591084037499968e-05,6.464834586950019e-05
3.0482457077596337e-05,-5.453261474031024e-05,3.4868804505094886e-05,1.9343171516084112e-05,1.571240500197746e-05,6.910245429025963e-05
3.275301060057245e-05,-5.4519132390851155e-05,3.627818659879267e-05,2.297193896083627e-05,1.358094232273288e-05,7.075162284309044e-05
3.1149702408583835e-05,-5.179962681722827e-05,4.0212467865785584e-05,2.2474658180726692e-05,9.779597348824609e-06,7.032230496406555e-05
2.7680061975843273e-05,-4.8764624807517976e-05,4.246731259627268e-05,2.210392995039001e-05,5.516389592230553e-06,6.783675053156912e-05
2.5362618544022553e-05,-4.715559771284461e-05,4.10703505622223e-05,2.3788315957062878e-05,1.9994620288343867e-06,6.564157956745476e-05
2.5475499569438398e-05,-4.7073957830434665e-05,3.841810394078493e-05,2.283081630594097e-05,-3.735676727956161e-07,6.28735579084605e-05
2.6945850549964234e-05,-4.8893416533246636e-05,3.69562185369432e-05,1.7127082173828967e-05,-3.5489554193190997e-06,5.98616898059845e-05
2.5691593691590242e-05,-5.0408183597028255e-05,3.7008834624430165e-05,1.1085206097050104e-05,-7.3535084084142e-06,5.6001088523771614e-05
2.385392326686997e-05,-5.143103044247255e-05,3.650131475296803e-05,8.475540198560338e-06,-1.1880024430865888e-05,5.472980410559103e-05
2.2982972950558178e-05,-5.2294009947218e-05,3.4043034247588366e-05,1.0631314580678008e-05,-1.4161816579871811e-05,5.711449193768203e-05
2.097473588946741e-05,-5.389572834246792e-05,3.1568702979711816e-05,1.3667146959051024e-05,-1.6885645891306922e-05,5.971524296910502e-05
1.717206214379985e-05,-5.41740155313164e-05,3.029730032722e-05,1.6102556401165202e-05,-1.956808046088554e-05,5.87660979363136e-05
1.6466297893202864e-05,-5.4581414588028565e-05,3.0406528821913525e-05,1.8180722690885887e-05,-2.1720388758694753e-05,5.182355744182132e-05
1.6700731066521257e-05,-5.794675598735921e-05,3.2047810236690566e-05,1.7180482245748863e-05,-2.237338230770547e-05,4.4039221393177286e-05
1.3607703294837847e-05,-5.9376692661317065e-05,3.35872609866783e-05,1.6411726392107084e-05,-2.3277059881365858e-05,4.357886064099148e-05
8.724907274881843e-06,-5.761877400800586e-05,3.19537975883577e-05,1.9892107957275584e-05,-2.6103316486114636e-05,4.6958411985542625e-05
8.42463668959681e-06,-5.4725616791984066e-05,2.7786349164671265e-05,2.6595822419039905e-05,-2.8132837542216294e-05,5.13957129442133e-05
1.041678297042381e-05,-5.179482468520291e-05,2.7590704121394083e-05,2.5973751689889468e-05,-2.882276567106601e-05,5.257740485831164e-05
1.2063176654919516e-05,-5.106030948809348e-05,3.1413528631674126e-05,2.063717329292558e-05,-3.002165431098547e-05,5.074485670775175e-05
1.6632091501378454e-05,-5.1554947276599705e-05,3.4009288356173784e-05,1.9439528841758147e-05,-3.21822808473371e-05,4.863562571699731e-05
1.855734626587946e-05,-4.998072836315259e-05,3.171536445734091e-05,2.026384390774183e-05,-3.475870835245587e-05,4.685260864789598e-05
1.7781201677280478e-05,-4.6382760046981275e-05,2.8102489523007534e-05,2.5971550712711178e-05,-3.487590220174752e-05,4.727130726678297e-05
1.8367834854871035e-05,-4.510708822635934e-05,2.7765157938119955e-05,3.2320505852112547e-05,-3.09159149765037e-05,4.228938996675424e-05
1.6859155948623084e-05,-4.5900262193754315e-05,3.123551869066432e-05,3.607481630751863e-05,-2.572515768406447e-05,3.6157209251541644e-05
1.557250834594015e-05,-4.532310049398802e-05,3.447190101724118e-05,3.699753142427653e-05,-2.4249160560430028e-05,3.4852218959713355e-05
1.7929514797287993e-05,-4.370545138954185e-05,3.396604006411508e-05,3.44293330272194e-05,-2.4837214368744753e-05,4.294407699489966e-05
2.1122683392604813e-05,-4.2395251512061805e-05,3.2664880563970655e-05,3.298903538961895e-05,-2.32183956541121e-05,5.4292519052978605e-05
2.3413222152157687e-05,-4.117710705031641e-05,3.3063479349948466e-05,3.349692633491941e-05,-2.0875468180747703e-05,6.215852044988424e-05
2.609655166452285e-05,-4.304578396840952e-05,3.691922393045388e-05,3.369378100614995e-05,-2.1466496036737226e-05,5.9152367612114176e-05
2.9278546207933687e-05,-4.74000335088931e-05,4.004778020316735e-05,3.3774540497688577e-05,-2.228411722171586e-05,4.8662252083886415e-05
3.272157482570037e-05,-5.030841566622257e-05,4.0380098653258756e-05,3.311304681119509e-05,-1.810284811654128e-05,4.332574826548807e-05
3.565824590623379e-05,-5.0703871238511056e-05,3.947470031562261e-05,3.104170536971651e-05,-1.2177292774140369e-05,4.5239059545565397e-05
3.863932943204418e-05,-5.054190842201933e-05,3.8122736441437155e-05,2.8943441066076048e-05,-6.957355708436808e-06,4.61337658634875e-05
4.112291208002716e-05,-5.0858321628766134e-05,3.377468601684086e-05,2.9026545234955847e-05,-6.119203590060351e-06,4.327264832681976e-05
4.101615195395425e-05,-5.161043372936547e-05,2.830063567671459e-05,2.9490558517863974e-05,-1.6891804989427328e-05,4.3545554945012555e-05
3.85379753424786e-05,-5.120588684803806e-05,2.7825582947116345e-05,2.9545008146669716e-05,-3.852764712064527e-05,4.80697926832363e-05
3.531350739649497e-05,-4.9888032663147897e-05,3.200028368155472e-05,3.12019583361689e-05,-5.594375033979304e-05,5.4527252359548584e-05
3.314406785648316e-05,-5.058496753918007e-05,3.579389885999262e-05,3.3146890928037465e-05,-6.139925244497135e-05,6.067640060791746e-05
2.9916827770648524e-05,-5.171202792553231e-05,3.751231270143762e-05,3.381823262316175e-05,-6.03163534833584e-05,6.483655306510627e-05
2.6245947083225474e-05,-5.210547897149809e-05,3.632179868873209e-05,3.402177389943972e-05,-5.3961244702804834e-05,6.522048352053389e-05
2.7664869776344858e-05,-5.252865594229661e-05,3.298590672784485e-05,3.33176321873907e-05,-4.191872358205728e-05,6.791094347136095e-05
3.291727989562787e-05,-5.388842328102328e-05,3.1073723221197724e-05,2.799368121486623e-05,-2.5926756279659458e-05,7.038177136564627e-05
3.376479435246438e-05,-5.387600322137587e-05,3.347005622345023e-05,2.3952758056111634e-05,-8.284948307846207e-06,7.008419197518378e-05
2.841884270310402e-05,-5.388846329879016e-05,3.614556044340134e-05,2.0921072064084e-05,9.609910193830729e-06,6.741599645465612e-05
2.2215401259018108e-05,-5.446433351607993e-05,3.1713607313577086e-05,2.03921281354269e-05,3.500663660815917e-05,6.662034138571471e-05
1.9277449609944597e-05,-5.404380863183178e-05,2.6923924451693892e-05,2.558766027505044e-05,6.275184568949044e-05,6.750928878318518e-05
1.857428105722647e-05,-5.2195584430592135e-05,2.6088153390446678e-05,2.836279963958077e-05,8.00379493739456e-05,6.848943303339183e-05
1.5617211829521693e-05,-5.01783870276995e-05,2.5519542759866454e-05,2.6970614271704108e-05,8.211898966692388e-05,6.873904931126162e-05
1.17643003250123e-05,-5.3729589126305655e-05,2.2804031686973758e-05,2.2696225641993806e-05,6.81377641740255e-05,6.806256715208292e-05
1.244496161234565e-05,-5.614664405584335e-05,2.0404635506565683e-05,1.9087081454927102e-05,5.1050144975306466e-05,6.732544716214761e-05
1.460762996430276e-05,-5.468588278745301e-05,2.2194850316736847e-05,2.0724475689348765e-05,3.677269342006184e-05,6.348900205921382e-05
1.40264328365447e-05,-5.3007166570750996e-05,2.6545545551925898e-05,2.477241105225403e-05,2.4011282221181318e-05,5.940670598647557e-05
1.2338307897152845e-05,-5.161235458217561e-05,2.847605719580315e-05,2.525191848690156e-05,1.2858104128099512e-05,5.6372380640823394e-05
1.059760143107269e-05,-5.014005728298798e-05,2.8896443836856633e-05,2.3026712369755842e-05,5.413613962446107e-06,5.4001346143195406e-05
9.306503670813981e-06,-4.645416629500687e-05,3.0125394914648496e-05,2.418242183921393e-05,1.222636797137966e-06,5.3007242968305945e-05
9.61602563620545e-06,-4.644385626306757e-05,3.263292455812916e-05,2.6755828002933413e-05,-2.5010961053339997e-06,5.544564555748366e-05
1.0208617823082022e-05,-4.9547139497008175e-05,3.295508577139117e-05,2.7024991140933707e-05,-5.241860435489798e-06,6.097957884776406e-05
1.0724560524977278e-05,-5.322227661963552e-05,3.216410550521687e-05,2.4749921067268588e-05,-7.671560524613596e-06,6.428805500036106e-05
1.13336964204791e-05,-5.515486918739043e-05,3.341926640132442e-05,2.1810736143379472e-05,-9.215776117343921e-06,6.248058343771845e-05
1.2649326890823431e-05,-5.400205554906279e-05,3.3619518944760785e-05,2.2233616618905216e-05,-1.0103934982907958e-05,5.9494592278497294e-05
1.4267890037444886e-05,-5.14408566232305e-05,3.258576543885283e-05,2.4513532480341382e-05,-1.0045400813396554e-05,5.689916361006908e-05
1.5333718693000264e-05,-5.0845836085500196e-05,3.456693229964003e-05,2.5881210603984073e-05,-1.147235252574319e-05,5.291877096169628e-05
1.768718720995821e-05,-5.1965969760203734e-05,3.9619313611183316e-05,2.880281135730911e-05,-1.6328191122738644e-05,5.1609025831567124e-05
2.1313326215022244e-05,-5.3398049203678966e-05,4.192398046143353e-05,3.1590258004143834e-05,-2.2524025553138927e-05,5.801758379675448e-05
2.181228410336189e-05,-5.354440872906707e-05,3.9945298340171576e-05,3.054432454518974e-05,-2.5399636797374114e-05,6.778648094041273e-05
1.869301195256412e-05,-5.134941602591425e-05,3.802416904363781e-05,2.9631801226059906e-05,-2.5232828193111345e-05,7.10490348865278e-05
1.6057947505032644e-05,-5.076357047073543e-05,4.029890988022089e-05,3.336692680022679e-05,-2.492091698513832e-05,6.593906437046826e-05
1.7136837414000183e-05,-5.0892933359136805e-05,4.3180552893318236e-05,3.985284274676815e-05,-2.305994348716922e-05,6.23554369667545e-05
2.124576349160634e-05,-4.817894659936428e-05,4.3462405301397666e-05,4.216475645080209e-05,-1.639073343540076e-05,6.67763888486661e-05
2.4999118977575563e-05,-4.5538865379057825e-05,4.049144990858622e-05,3.9801507227821276e-05,-9.362051059724763e-06,7.448426185874268e-05
2.595473051769659e-05,-4.5132721425034106e-05,3.511461181915365e-05,3.508275403873995e-05,-8.811034604150336e-06,7.767504575895146e-05
2.89168438030174e-05,-4.8301179049303755e-05,3.211078728782013e-05,3.185060268151574e-05,-1.1572707080631517e-05,6.911431410117075e-05
3.200532228220254e-05,-5.376102853915654e-05,3.4256878279848024e-05,3.413440572330728e-05,-1.3285955901665147e-05,6.144973303889856e-05
3.171465141349472e-05,-5.703653005184606e-05,3.5564593417802826e-05,3.698364525916986e-05,-1.800357858883217e-05,6.350674811983481e-05
2.9735956559306942e-05,-5.7037133956328034e-05,3.118399763479829e-05,3.806643871939741e-05,-2.4015442249947228e-05,6.385258166119456e-05
2.3587375835631974e-05,-5.528072142624296e-05,2.4510989533155225e-05,3.8087484426796436e-05,-2.6628100386005826e-05,6.151441630208865e-05
2.004471571126487e-05,-5.3977517382008955e-05,2.206270619353745e-05,3.527910666889511e-05,-2.7789697924163193e-05,6.104270869400352e-05
2.038062666542828e-05,-5.0239912525285035e-05,2.3208303900901228e-05,3.0243552828324027e-05,-2.7358850275049917e-05,6.341668631648645e-05
2.044796201516874e-05,-4.7043460654094815e-05,2.5190629457938485e-05,2.834189945133403e-05,-2.4641267373226583e-05,6.711055902997032e-05
1.824825449148193e-05,-4.726916449726559e-05,2.609860348457005e-05,3.152475255774334e-05,-2.093082912324462e-05,7.26821890566498e-05
1.6275431335088797e-05,-5.144279930391349e-05,2.4428771212114953e-05,3.0815386708127335e-05,-1.753488504618872e-05,7.571091555291787e-05
1.7075637515517883e-05,-5.352324660634622e-05,2.2373811589204706e-05,2.414539449091535e-05,-1.3458936336974148e-05,7.218842802103609e-05
2.0357712855911814e-05,-5.477383456309326e-05,2.0644689357141033e-05,2.0109240722376853e-05,-1.0749668035714421e-05,6.732654583174735e-05
2.350427894270979e-05,-5.5398813856299967e-05,1.831732333812397e-05,2.1096077034599148e-05,-9.219887033395935e-06,6.634929013671353e-05
2.3863574824645184e-05,-5.490869443747215e-05,1.802591941668652e-05,2.1597508748527616e-05,-8.894343409338035e-06,6.539421156048775e-05
2.2942700525163673e-05,-5.278660682961345e-05,2.1056344849057496e-05,1.9800791051238775e-05,-9.194892300001811e-06,6.193284934852272e-05
2.231948747066781e-05,-4.880907727056183e-05,2.4784802008070983e-05,1.919422356877476e-05,-9.391095773025881e-06,5.75481572013814e-05
2.1858364561921917e-05,-4.5646193029824644e-05,2.628619949973654e-05,2.1291705706971698e-05,-9.064943697012495e-06,5.39921093150042e-05
2.0602352378773503e-05,-4.306944538257085e-05,2.6290987079846673e-05,2.3511218387284316e-05,-7.767877832520753e-06,5.1727172831306234e-05
1.9851546312565915e-05,-4.157659350312315e-05,2.6548190362518653e-05,2.3445369151886553e-05,-6.658167421846883e-06,5.310316555551253e-05
2.1018040570197627e-05,-4.185345824225806e-05,2.5342258595628664e-05,2.6993080609827302e-05,-7.184183232311625e-06,5.759101622970775e-05
2.2663005438516848e-05,-4.2932762880809605e-05,2.5861800168058835e-05,3.440218642936088e-05,-8.398290447075851e-06,6.116416625445709e-05
2.1089928850415163e-05,-4.1431132558500394e-05,2.9273462132550776e-05,3.8342532207025215e-05,-9.191773642669432e-06,6.109641253715381e-05
1.970204357348848e-05,-4.2713192669907585e-05,3.1467432563658804e-05,3.805269443546422e-05,-8.68790903041372e-06,5.819479702040553e-05
1.958590110007208e-05,-4.900796557194553e-05,3.0067205443629064e-05,3.829379420494661e-05,-5.635706656903494e-06,5.693989805877209e-05
1.9839177184621803e-05,-5.400863301474601e-05,2.920849328802433e-05,4.493042433750816e-05,-3.9410751924151555e-06,5.722708738176152e-05
2.107218824676238e-05,-5.321661592461169e-05,3.088007724727504e-05,5.9666690503945574e-05,-5.466870788950473e-06,5.764168963651173e-05
2.1217219909885898e-05,-5.0394588470226154e-05,3.183203807566315e-05,7.416916923830286e-05,-6.535633929161122e-06,5.8450950746191666e-05
2.3386257453239523e-05,-4.855160295846872e-05,3.193383599864319e-05,7.660570554435253e-05,-6.533174200740177e-06,6.129305256763473e-05
2.504461008356884e-05,-4.877852916251868e-05,3.6287288821768016e-05,6.756335642421618e-05,-1.1564852684387006e-05,6.404485611710697e-05
2.43704689637525e-05,-4.965850894222967e-05,4.160505341133103e-05,5.572127702180296e-05,-1.5333120245486498e-05,6.282401591306552e-05
2.3618560589966364e-05,-4.945289401803166e-05,4.244454248691909e-05,4.380845348350704e-05,-1.2250920008227695e-05,5.1976239774376154e-05
2.2444008209276944e-05,-4.753688335767947e-05,4.4173706555739045e-05,2.5647872462286614e-05,-8.945558874984272e-06,4.0687860746402293e-05
2.355618926230818e-05,-4.8563881136942655e-05,4.7575282223988324e-05,9.186572242469992e-06,-1.725676338537596e-05,3.8655882235616446e-05
2.7185644285054877e-05,-5.28943601239007e-05,4.751676169689745e-05,7.0942101046966854e-06,-3.594936788431369e-05,4.380401151138358e-05
3.279082739027217e-05,-5.7970191846834496e-05,4.2568513890728354e-05,1.4306552657217253e-05,-4.864848961005919e-05,5.055147994426079e-05
3.787206514971331e-05,-6.107247463660315e-05,3.8888374547241256e-05,2.1956893760943785e-05,-4.834196806768887e-05,5.3202860726742074e-05
3.85827079298906e-05,-6.274610495893285e-05,3.850246866932139e-05,2.3636295736650936e-05,-3.8789628888480365e-05,5.2183986554155126e-05
3.289229789515957e-05,-6.11181603744626e-05,3.860372817143798e-05,2.2159094442031346e-05,-2.7968619178864174e-05,5.132419755682349e-05
2.713567482715007e-05,-5.676458386005834e-05,3.773720527533442e-05,2.359887002967298e-05,-1.793657793314196e-05,5.1059239922324196e-05
2.4176364604500122e-05,-5.3937612392473966e-05,3.821019345195964e-05,2.4366510842810385e-05,-8.582343070884235e-06,4.809171878150664e-05
2.409279659332242e-05,-5.287954627419822e-05,4.1240680729970336e-05,1.6651078112772666e-05,-4.213375177641865e-07,4.7129709855653346e-05
2.3332382625085302e-05,-5.1328057452337816e-05,4.316444756113924e-05,-8.323414135702478e-07,5.318254807207268e-06,5.067734673502855e-05
1.901234827528242e-05,-4.927214831695892e-05,4.0672621253179386e-05,-1.6188232621061616e-05,7.2985171755135525e-06,5.040848191129044e-05
1.4991263924457598e-05,-4.874000296695158e-05,3.650303551694378e-05,-1.7923905033967458e-05,2.3342017811955884e-06,4.3769352487288415e-05
1.4544567420671228e-05,-4.860906847170554e-05,3.4847264032578096e-05,-1.0037465472123586e-05,-1.0113059033756144e-05,3.7805370084242895e-05
1.6016307199606672e-05,-4.797949077328667e-05,3.407108670216985e-05,3.2794707749417285e-07,-2.00255453819409e-05,3.8429581763921306e-05
1.4361787179950625e-05,-4.5900902478024364e-05,3.276633651694283e-05,1.5244088899635244e-05,-1.866249840531964e-05,4.35341389675159e-05
1.2336277904978488e-05,-4.552682730718516e-05,3.207014742656611e-05,3.0468918339465745e-05,-1.0265715900459327e-05,4.673421062761918e-05
1.4502586964226793e-05,-4.6255307097453624e-05,3.280044620623812e-05,3.9359976653940976e-05,-3.522159431668115e-06,4.609717507264577e-05
1.9563347450457513e-05,-4.65543162135873e-05,3.229867434129119e-05,4.193855056655593e-05,1.396376887896622e-06,4.445560625754297e-05
2.3590064301970415e-05,-4.747065395349637e-05,3.0355635317391716e-05,4.085278123966418e-05,5.124913514009677e-06,4.5231045078253374e-05
2.80468120763544e-05,-4.957805867888965e-05,2.7698932171915658e-05,4.030187483294867e-05,4.815843112737639e-06,4.816520231543109e-05
3.0268283808254637e-05,-4.974813782609999e-05,2.4611959815956652e-05,3.9602691686013713e-05,4.179098596068798e-06,5.508477261173539e-05
3.0172142942319624e-05,-4.932016599923372e-05,2.223249430244323e-05,3.9304239180637524e-05,1.1388173334125895e-05,6.53176466585137e-05
3.110280158580281e-05,-4.9080292228609324e-05,2.6684021577239037e-05,3.638665657490492e-05,1.932534360093996e-05,6.625473906751722e-05
3.243068931624293e-05,-4.840429392061196e-05,3.0454180887318216e-05,3.2201660360442474e-05,1.9325332687003538e-05,6.340831168927252e-05
2.9962704502395354e-05,-4.910580173600465e-05,2.858679181372281e-05,3.2574953365838155e-05,1.5522726243943907e-05,6.441825098590925e-05
2.5752779038157314e-05,-4.8459620302310213e-05,2.8604472390725277e-05,3.64140396413859e-05,8.334065569215454e-06,6.0534977819770575e-05
2.5126044420176186e-05,-4.825715222978033e-05,3.1908435630612075e-05,3.726002250914462e-05,2.06327445084753e-06,5.637833965010941e-05
2.5460909455432557e-05,-4.892898869002238e-05,3.763425047509372e-05,3.318347080494277e-05,-2.1709075781473075e-07,5.474024874274619e-05
2.504396252334118e-05,-4.8915935622062534e-05,3.946083234040998e-05,2.948728433693759e-05,-2.091125224978896e-06,5.815736949443817e-05
2.503537507436704e-05,-5.16825748491101e-05,3.553989154170267e-05,2.9741435355390422e-05,-5.508450158231426e-06,6.363005377352238e-05
2.3590582713950425e-05,-5.372993109631352e-05,2.8487509553087875e-05,3.0916173272999004e-05,-1.0670573828974739e-05,6.634016608586535e-05
1.9674704162753187e-05,-5.385756594478153e-05,2.5193137844325975e-05,2.9421367798931897e-05,-1.4570271559932735e-05,6.739229138474911e-05
1.593681372469291e-05,-5.222934851190075e-05,2.6335268557886593e-05,2.9821636417182162e-05,-1.6888705431483686e-05,6.926438072696328e-05
1.576047361595556e-05,-5.033179695601575e-05,2.7708943889592774e-05,3.10940777126234e-05,-1.9178360162186436e-05,7.278109842445701e-05
1.957536551344674e-05,-4.838397944695316e-05,2.850870441761799e-05,3.0073260859353468e-05,-2.03347244678298e-05,7.484629895770922e-05
2.2278123651631176e-05,-4.8210415116045624e-05,3.0681116186315194e-05,3.0078825147938915e-05,-1.8638451365404762e-05,7.116566121112555e-05
2.140321521437727e-05,-5.102098293718882e-05,3.1736224627820775e-05,3.248948269174434e-05,-1.529594010207802e-05,6.357984966598451e-05
1.8944554540212266e-05,-5.277766831568442e-05,2.8782556910300627e-05,3.300720709376037e-05,-1.2741130376525689e-05,6.169642438180745e-05
1.690092722128611e-05,-5.1219893066445366e-05,2.5258703317376785e-05,3.1267813028534874e-05,-1.360312853648793e-05,6.721373938489705e-05
1.6666417650412768e-05,-4.8689395043766126e-05,2.4972448954940774e-05,3.053203909075819e-05,-1.72535510500893e-05,7.150576857384294e-05
