3.1993859010981396e-05,-4.263037772034295e-05,3.8067209970904514e-05,2.3689455701969564e-05,-4.232729406794533e-05,3.885026671923697e-05
3.152866702293977e-05,-4.153907866566442e-05,3.906299389200285e-05,2.340016908419784e-05,-4.227948375046253e-05,4.061883009853773e-05
2.972749643959105e-05,-3.846334220725112e-05,3.822059807134792e-05,2.4321840101038106e-05,-4.04464517487213e-05,4.6535456931451336e-05
2.6642930606612936e-05,-3.9780217775842175e-05,4.071087823831476e-05,3.0001117920619436e-05,-3.740773172467016e-05,4.7071418521227315e-05
2.6611318389768712e-05,-4.3961015762761235e-05,4.066865221830085e-05,3.669561192509718e-05,-3.782245039474219e-05,4.5153235987527296e-05
2.4864988517947495e-05,-4.582041219691746e-05,3.82776306651067e-05,4.136950519750826e-05,-3.681983071146533e-05,4.626655572792515e-05
1.971494384633843e-05,-4.7551700845360756e-05,3.479595034150407e-05,3.8780395698267967e-05,-2.7992067771265283e-05,4.7795965656405315e-05
1.8680902940104716e-05,-4.739349242299795e-05,3.153857323923148e-05,2.7388139642425813e-05,-1.9814728148048744e-05,5.0781614845618606e-05
2.511508319003042e-05,-4.46874437329825e-05,3.0051072826609015e-05,1.0943864253931679e-05,-1.799951496650465e-05,5.637873618979938e-05
3.149337135255337e-05,-4.514355896390043e-05,2.9569617254310288e-05,-3.1133374704950256e-06,-1.7568054317962378e-05,6.026940536685288e-05
3.14922581310384e-05,-4.791111859958619e-05,2.656764081621077e-05,-5.5730783969920594e-06,-1.5805069779162295e-05,5.664116906700656e-05
2.9591357815661468e-05,-4.672786599257961e-05,2.4331740860361606e-05,1.8623358073455165e-06,-1.3909693734603934e-05,5.043469718657434e-05
2.621895146148745e-05,-4.546266427496448e-05,2.543032132962253e-05,1.173476721305633e-05,-1.3871947885490954e-05,4.6188633859856054e-05
2.2992118829279207e-05,-4.9280835810350254e-05,2.7486481485539116e-05,2.0792986106243916e-05,-1.583647281222511e-05,4.378536686999723e-05
2.206467070209328e-05,-5.524362131836824e-05,2.7324982511345297e-05,2.7466203391668387e-05,-1.9850829630740918e-05,4.2061597923748195e-05
2.2891052140039392e-05,-5.8582485507940874e-05,2.7151576432515867e-05,2.9849976272089407e-05,-2.5544279196765274e-05,4.171495675109327e-05
2.3459570002160035e-05,-5.867524305358529e-05,2.8993492378504016e-05,3.060236485907808e-05,-2.929977563326247e-05,4.3286105210427195e-05
2.4489136194461025e-05,-5.571382644120604e-05,3.0472581784124486e-05,3.179966734023765e-05,-3.0419661925407127e-05,4.750264633912593e-05
2.6641540898708627e-05,-5.194513505557552e-05,2.9572833227575757e-05,3.0629289540229365e-05,-2.7819709430332296e-05,5.409775621956214e-05
2.7271988074062392e-05,-5.316764145391062e-05,2.6474250262253918e-05,2.687742562557105e-05,-2.2327451006276533e-05,5.901361146243289e-05
2.62761241174303e-05,-5.677837543771602e-05,2.5542889488860965e-05,2.558613232395146e-05,-1.8334432752453722e-05,5.7191406085621566e-05
2.69883603323251e-05,-5.618390059680678e-05,2.759924427664373e-05,2.751977626758162e-05,-1.56818514369661e-05,5.247660374152474e-05
2.8802080123568885e-05,-5.2486870117718354e-05,2.7776510250987485e-05,2.960027450171765e-05,-1.1301684025966097e-05,5.370685539674014e-05
2.7768444851972163e-05,-5.049249739386141e-05,2.6262912797392346e-05,3.058286165469326e-05,-6.688089342787862e-06,6.185087113408372e-05
2.4885845050448552e-05,-5.082635107100941e-05,2.9343929782044142e-05,3.095031570410356e-05,-2.6323941710870713e-06,7.097219349816442e-05
2.4517052224837244e-05,-5.3021503845229745e-05,3.3970169170061126e-05,3.2100022508529946e-05,5.829945735058573e-07,7.554794137831777e-05
2.5125069441855885e-05,-5.1493516366463155e-05,3.47869899997022e-05,3.607843245845288e-05,-2.3759089344821405e-06,7.552444731118158e-05
2.6365771191194654e-05,-4.517634806688875e-05,3.3823729609139264e-05,3.9037469832692295e-05,-7.2984407779586036e-06,7.007704698480666e-05
2.5273104256484658e-05,-4.1154144128086045e-05,3.5355980799067765e-05,3.609650957514532e-05,-8.29610235086875e-06,6.312542973319069e-05
2.373740244365763e-05,-4.437844472704455e-05,3.678150096675381e-05,3.340956391184591e-05,-5.7715215007192455e-06,6.057188147678971e-05
2.2459018509835005e-05,-5.1920836995122954e-05,3.567350358935073e-05,3.6320350773166865e-05,-1.858760242612334e-06,6.2445571529679e-05
1.8568582163425162e-05,-5.47039853699971e-05,3.483123509795405e-05,4.3242747779004276e-05,-3.0133155632938724e-06,6.610983837163076e-05
1.4678783372801263e-05,-4.985541454516351e-05,3.4791763027897105e-05,4.462519063963555e-05,-5.804743523185607e-06,6.845583266112953e-05
1.0047933756140992e-05,-4.387192893773317e-05,3.267673309892416e-05,4.071086004842073e-05,-6.810338618379319e-06,7.068069680826738e-05
8.42517056298675e-06,-4.3708783778129146e-05,3.26606459566392e-05,3.857435149257071e-05,-8.388092282984871e-06,7.154241029638797e-05
1.0477411706233397e-05,-4.807161167263985e-05,3.4795615647453815e-05,3.944451600546017e-05,-1.1738613466150127e-05,7.395474676741287e-05
1.432358203601325e-05,-5.239076926955022e-05,3.6896530218655244e-05,4.2350056901341304e-05,-1.5689414794906043e-05,7.180550892371684e-05
1.727919516270049e-05,-5.4118307161843404e-05,3.876449045492336e-05,4.197079033474438e-05,-1.638533649384044e-05,6.638367631239817e-05
1.9293202058179304e-05,-5.2289527957327664e-05,3.9213984564412385e-05,3.448285497142933e-05,-1.4060055946174543e-05,6.113172275945544e-05
2.0536479496513493e-05,-4.909290873911232e-05,3.917384674423374e-05,2.4210019546444528e-05,-1.1745079973479733e-05,5.423677066573873e-05
1.8935925254481845e-05,-4.821872425964102e-05,3.814443698502146e-05,2.305870657437481e-05,-1.1107834325230215e-05,4.9891536036739126e-05
1.6635354768368416e-05,-5.0996168283745646e-05,3.6213186831446365e-05,2.8354716050671414e-05,-1.2708703252428677e-05,4.902640648651868e-05
1.6759084246587008e-05,-5.358186535886489e-05,3.35484255629126e-05,3.147618190268986e-05,-1.6344411051250063e-05,4.933638047077693e-05
1.9833334590657614e-05,-5.313225483405404e-05,3.3137806894956157e-05,3.071574974455871e-05,-1.7707297956803814e-05,4.9843642045743763e-05
2.258857239212375e-05,-5.059444811195135e-05,3.697548891068436e-05,2.630828385008499e-05,-1.5824296497157775e-05,5.287138992571272e-05
2.2180181986186653e-05,-4.9105321522802114e-05,4.1558585508028045e-05,2.1974514311295934e-05,-1.4008312973601278e-05,5.607075217994861e-05
1.7999502233578824e-05,-5.050476829637773e-05,4.223296127747744e-05,2.4356306312256493e-05,-1.4458109944825992e-05,5.917155067436397e-05
1.2715530829154886e-05,-5.252760820440017e-05,4.0746239392319694e-05,3.014995854755398e-05,-1.611357947695069e-05,6.086218490963802e-05
1.0622818081174046e-05,-5.291363413562067e-05,3.9638103771721944e-05,3.407507756492123e-05,-1.598622475285083e-05,6.030952135915868e-05
1.3223896530689672e-05,-5.1129278290318325e-05,3.895166082656942e-05,3.62438804586418e-05,-1.533762042527087e-05,6.194855086505413e-05
1.533990325697232e-05,-5.05428652104456e-05,3.603004734031856e-05,3.5614917578641325e-05,-1.4189813555276487e-05,6.878032581880689e-05
1.5110716049093753e-05,-5.254498319118284e-05,3.586048478609882e-05,3.3410778996767476e-05,-1.2218587471579667e-05,7.153324986575171e-05
1.7352802387904376e-05,-5.269765460980125e-05,3.933648258680478e-05,2.9318383894860744e-05,-1.1286854714853689e-05,6.840338028268889e-05
2.1596040824078955e-05,-5.052311098552309e-05,4.110266308998689e-05,2.661543658177834e-05,-1.0910670425801072e-05,6.606132228625938e-05
2.201520328526385e-05,-5.050273102824576e-05,3.685104093165137e-05,2.6437999622430652e-05,-1.3505577044270467e-05,6.676050543319434e-05
2.386470077908598e-05,-5.084475560579449e-05,3.182024374837056e-05,2.6866471671382897e-05,-1.6483212675666437e-05,6.629567360505462e-05
2.760986353678163e-05,-4.8970723582897335e-05,3.208435737178661e-05,2.9760103643639013e-05,-1.5058069038786925e-05,6.415021925931796e-05
2.6558436729828827e-05,-4.907830953015946e-05,3.2510521123185754e-05,3.324025237816386e-05,-8.987391083792318e-06,6.186462269397452e-05
2.1890880816499703e-05,-5.097474422655068e-05,3.187458423781209e-05,3.2788968383101746e-05,-5.171667908143718e-06,5.8381800045026466e-05
2.01214734261157e-05,-5.16244035679847e-05,2.812522325257305e-05,3.32141098624561e-05,-5.924325705564115e-06,5.3901061619399115e-05
2.2335058019962162e-05,-5.147838601260446e-05,2.6670441002352163e-05,2.944920925074257e-05,-5.103989678900689e-06,4.673656076192856e-05
2.2737158360541798e-05,-5.0695693062152714e-05,2.8689115424640477e-05,1.7747408492141403e-05,-3.767485168282292e-06,3.846672916552052e-05
2.1883124645682983e-05,-4.871120836469345e-05,2.8787066185032018e-05,1.1156017535540741e-05,-5.000564669899177e-06,3.4201548260170966e-05
2.160602707590442e-05,-4.680707570514642e-05,2.5015280698426068e-05,1.6296977264573798e-05,-5.153005076863337e-06,3.513009869493544e-05
2.2637399524683133e-05,-4.907555194222368e-05,2.167682396247983e-05,2.5396779165021144e-05,-4.45557589046075e-06,4.140600503887981e-05
2.173582288378384e-05,-5.48511634406168e-05,2.0129662516410463e-05,2.9906721465522423e-05,-4.420724962983513e-06,4.646467277780175e-05
1.9395092749618925e-05,-5.5865049944259226e-05,2.0419118300196715e-05,2.9757076845271513e-05,-3.827599357464351e-06,4.6288918383652344e-05
1.8375221770838834e-05,-5.021362449042499e-05,2.3429642169503495e-05,2.9003391318838112e-05,-2.8155629934190074e-06,4.7182096750475466e-05
1.9950872228946537e-05,-4.6395682147704065e-05,2.650926762726158e-05,2.949618465208914e-05,-2.6595159852149663e-06,5.035441427025944e-05
2.2292702851700597e-05,-4.71613384434022e-05,2.663417035364546e-05,3.0235070880735293e-05,-4.731899934995454e-06,5.28513737663161e-05
2.5485594960628077e-05,-4.8429585149278864e-05,2.6172174329985864e-05,3.2051662856247276e-05,-7.1076838139561005e-06,5.604808029602282e-05
2.910162766056601e-05,-4.8468336899532005e-05,2.888904418796301e-05,3.497202123980969e-05,-9.575482181389816e-06,6.082166873966344e-05
3.07329828501679e-05,-4.992043977836147e-05,3.236666088923812e-05,3.757894955924712e-05,-1.1004280167981051e-05,6.22711522737518e-05
2.8776876206393354e-05,-5.088739635539241e-05,3.454427860560827e-05,3.881990778609179e-05,-1.0399224265711382e-05,6.121818296378478e-05
2.4489700081176125e-05,-4.8165293264901266e-05,3.5280965676065534e-05,3.708024087245576e-05,-1.0011830454459414e-05,5.987230542814359e-05
2.278887950524222e-05,-4.512114901444875e-05,3.597613613237627e-05,3.317256778245792e-05,-1.104869988921564e-05,5.564367165789008e-05
2.394111106696073e-05,-4.371889735921286e-05,3.575938899302855e-05,3.162715438520536e-05,-9.38790435611736e-06,5.1675386202987283e-05
2.545428287703544e-05,-4.2148498323513195e-05,3.55753545591142e-05,3.0209621399990283e-05,-6.6241459535376634e-06,5.378249625209719e-05
2.49969834840158e-05,-4.235959204379469e-05,3.6841764085693285e-05,2.7053538360632956e-05,-7.1627409852226265e-06,5.78726248932071e-05
2.2790363800595514e-05,-4.464579978957772e-05,3.8774931454099715e-05,2.8872191251139157e-05,-1.0447827662574127e-05,5.9224294091109186e-05
1.8800239558913745e-05,-4.6518620365532115e-05,3.6589357478078455e-05,3.260562152718194e-05,-1.4118199942458887e-05,5.491088450071402e-05
1.559646443638485e-05,-5.023220364819281e-05,3.4821245208149776e-05,3.339354589115828e-05,-1.75715540535748e-05,4.962308958056383e-05
1.2265197256056126e-05,-5.162955858395435e-05,3.0290091672213748e-05,3.398941771592945e-05,-1.7984648366109468e-05,4.856352097704075e-05
8.79264098330168e-06,-5.164830508874729e-05,2.4775055862846784e-05,2.904434768424835e-05,-1.33708826979273e-05,4.8259873437928036e-05
9.825965207710396e-06,-5.1790815632557496e-05,2.614769800857175e-05,2.1427857063827105e-05,-5.888135092391167e-06,4.7844627260928974e-05
1.385975701850839e-05,-4.790437742485665e-05,3.004508835147135e-05,1.574738053022884e-05,-4.687538876169128e-06,4.886599344899878e-05
1.65388537425315e-05,-4.428326428751461e-05,3.315684080007486e-05,1.1349048691045027e-05,-1.352463641524082e-05,4.7827714297454804e-05
1.6960200809990056e-05,-4.249667108524591e-05,3.238047065678984e-05,1.3029645742790308e-05,-2.136071998393163e-05,4.453336805454455e-05
1.5859763152548112e-05,-4.255028034094721e-05,2.843531547114253e-05,1.8137317965738475e-05,-2.0450224837986752e-05,4.2522930016275495e-05
1.624055948923342e-05,-4.202577474643476e-05,2.6286428692401387e-05,2.3887510906206444e-05,-1.4075415492698085e-05,4.2557192500680685e-05
1.6852431144798175e-05,-4.252817961969413e-05,2.9769496904918924e-05,3.136601662845351e-05,-1.0752945854619611e-05,4.280278881196864e-05
1.6185334970941767e-05,-4.3058589653810486e-05,3.337203452247195e-05,3.7536399759119377e-05,-1.1167546290380415e-05,4.4253578380448744e-05
1.7674117771093734e-05,-4.1490136936772615e-05,3.3240459742955863e-05,3.8650778151350096e-05,-9.0282674136688e-06,4.7072033339645714e-05
2.029711140494328e-05,-4.006514063803479e-05,2.9132619602023624e-05,3.287424624431878e-05,-2.953277999040438e-06,4.994515620637685e-05
2.0240751837263815e-05,-4.1278097342001274e-05,2.5148401618935168e-05,2.658418998180423e-05,9.352308438792534e-07,5.451613833429292e-05
1.832777343224734e-05,-4.67876743641682e-05,2.3851918740547262e-05,2.7279746063868515e-05,1.2301909464440541e-06,6.110053072916344e-05
1.7646001651883125e-05,-5.181931555853225e-05,2.4321321689058095e-05,3.364898293511942e-05,9.905394335874007e-07,6.713709444738925e-05
1.9816534404526465e-05,-5.5024571338435635e-05,2.6106808945769444e-05,3.881172233377583e-05,-8.508890800840163e-07,7.002409256529063e-05
2.3138636606745422e-05,-5.660192982759327e-05,2.776537621684838e-05,4.152309338678606e-05,-5.033426532463636e-06,6.963941996218637e-05
2.3762528144288808e-05,-5.6270229833899066e-05,2.7570400561671704e-05,4.2885905713774264e-05,-7.466743682016386e-06,6.973596464376897e-05
1.976374005607795e-05,-5.33764687133953e-05,2.727797800616827e-05,3.859521166305058e-05,-7.86282544140704e-06,7.309296779567376e-05
1.4988117072789464e-05,-4.930800787406042e-05,2.9279990485520102e-05,2.808116732921917e-05,-6.689713700325228e-06,7.990992162376642e-05
1.5033730960567482e-05,-4.8090190830407664e-05,2.8174481485621072e-05,1.9310535208205692e-05,-5.741404947912088e-06,8.285033982247114e-05
1.7817723346524872e-05,-5.087596582598053e-05,2.2956142856855877e-05,1.9275606973678805e-05,-6.610887339775218e-06,7.607050065416843e-05
2.180053161282558e-05,-5.212349788052961e-05,2.1819094399688765e-05,2.5206505597452633e-05,-7.664048098376952e-06,6.78025753586553e-05
2.444718666083645e-05,-4.883385554421693e-05,2.7567682991502807e-05,3.0995503038866445e-05,-8.088788490567822e-06,6.58487479086034e-05
2.090564521495253e-05,-4.539364454103634e-05,3.0621758924098685e-05,3.197192199877463e-05,-4.981785423296969e-06,7.225344597827643e-05
1.9172235624864697e-05,-4.64919357909821e-05,2.9243376047816128e-05,3.0579518352169544e-05,-2.8976326120755402e-06,7.741421723039821e-05
2.5181607270496897e-05,-4.6530705731129274e-05,2.859461346815806e-05,2.965624662465416e-05,-5.710974619432818e-06,7.621906843269244e-05
3.111370460828766e-05,-4.393131166580133e-05,2.793471321638208e-05,3.0830909963697195e-05,-9.641617907618638e-06,6.866293551865965e-05
2.9333494239836e-05,-4.243824878358282e-05,2.6758922103908844e-05,3.334391658427194e-05,-9.225462235917803e-06,6.118699093349278e-05
2.297145692864433e-05,-4.456522219697945e-05,2.795186810544692e-05,3.28301903209649e-05,-7.12992186890915e-06,5.825747211929411e-05
2.060547558357939e-05,-4.710153370979242e-05,3.271443711128086e-05,3.0728675483260304e-05,-7.651819032616913e-06,5.7595334510551766e-05
2.4542086975998245e-05,-4.629313843906857e-05,3.272879257565364e-05,2.661646249180194e-05,-6.282259164436255e-06,5.950125341769308e-05
3.010264663316775e-05,-4.442208228283562e-05,2.7752137611969374e-05,1.929462086991407e-05,-1.5643799997633323e-06,6.0157432017149404e-05
3.160579944960773e-05,-4.2429175664437935e-05,2.6326219085603952e-05,1.2894065548607614e-05,-8.792997618911613e-07,5.705637886421755e-05
3.131011180812493e-05,-4.240436101099476e-05,2.8617230782401748e-05,6.9598713707819115e-06,-7.009690307313576e-06,5.17508560733404e-05
3.162582288496196e-05,-4.4351683754939586e-05,3.11084404529538e-05,-6.987105649614023e-08,-1.0745244253484998e-05,4.8267131205648184e-05
3.117032247246243e-05,-4.811206599697471e-05,3.532422488206066e-05,-4.172252829448553e-06,-8.342452929355204e-06,4.876462844549678e-05
3.0346389394253492e-05,-5.122349102748558e-05,3.9442387787858024e-05,-5.36394281880348e-06,-2.8584825031430228e-06,5.281744961393997e-05
3.0392322514671832e-05,-5.255042196949944e-05,3.715723505592905e-05,-2.8584613573912065e-06,1.2406143241605605e-06,5.667767982231453e-05
3.023787030542735e-05,-5.1199192967033014e-05,3.068196747335605e-05,5.889204658160452e-06,1.8474132730261772e-06,5.688633245881647e-05
2.9060018277959898e-05,-4.8828573198989034e-05,2.5694051146274433e-05,1.6100409993669018e-05,-2.552018713686266e-06,5.443845657282509e-05
2.6100658942596056e-05,-4.889005867880769e-05,2.4272920200019144e-05,2.0987305106245913e-05,-8.288034223369323e-06,5.318968032952398e-05
2.185698576795403e-05,-5.111918653710745e-05,2.4541230231989175e-05,1.9682089259731583e-05,-1.0675605153664947e-05,5.3583808039547876e-05
1.8346765500609763e-05,-5.309388870955445e-05,2.7467460313346237e-05,1.8287253624293953e-05,-9.631884495320264e-06,5.436376159195788e-05
1.6036470697144978e-05,-5.4111940698930994e-05,3.277489304309711e-05,2.2113346858532168e-05,-8.569720193918329e-06,5.5203650845214725e-05
1.4385077520273626e-05,-5.430737655842677e-05,3.740455213119276e-05,3.2797350286273286e-05,-9.218967534252442e-06,5.597876224783249e-05
1.3165245036361739e-05,-5.406032141763717e-05,3.869341526296921e-05,5.1566043111961335e-05,-9.992435479944106e-06,5.7042863772949204e-05
1.2968947885383386e-05,-5.4292970162350684e-05,3.8461206713691354e-05,7.546919368905947e-05,-1.127552877733251e-05,6.005949398968369e-05
1.309847448283108e-05,-5.4963478760328144e-05,3.8371003029169515e-05,9.506802598480135e-05,-1.2613290891749784e-05,6.836299144197255e-05
1.4384337191586383e-05,-5.361838702810928e-05,3.81799072783906e-05,0.00011047362932004035,-1.4307529454526957e-05,7.718750566709787e-05
1.5788176824571565e-05,-5.318403054843657e-05,3.796548116952181e-05,0.00011786518734879792,-1.6399297237512656e-05,7.766636554151773e-05
1.5514491678914055e-05,-5.656780558638275e-05,3.4210668673040345e-05,0.00010527421545702964,-1.78800146386493e-05,7.553836621809751e-05
1.631022860237863e-05,-5.8123452618019655e-05,2.803182360366918e-05,8.026236173463985e-05,-1.8960021407110617e-05,7.615160575369373e-05
1.657268512644805e-05,-5.458889063447714e-05,2.4511788069503382e-05,5.120938294567168e-05,-2.1584006390185095e-05,7.624684076290578e-05
1.2745801541313995e-05,-5.0824783102143556e-05,2.3394495656248182e-05,3.0487031835946254e-05,-2.367742854403332e-05,7.202041888376698e-05
6.637842943746364e-06,-5.1226325012976304e-05,2.753730586846359e-05,2.4035669412114657e-05,-2.389732799201738e-05,6.504703924292699e-05
4.869334588875063e-06,-5.0922029913635924e-05,3.493620170047507e-05,2.236759064544458e-05,-2.1992473193677142e-05,5.746431270381436e-05
6.720553301420296e-06,-5.203175896895118e-05,3.7699268432334065e-05,2.1678923076251522e-05,-1.9358280042069964e-05,4.9554331781109795e-05
7.733850907243323e-06,-5.6022639910224825e-05,3.676008418551646e-05,1.9041170162381604e-05,-1.7313255739281885e-05,4.40750882262364e-05
7.69915095588658e-06,-5.916399823036045e-05,3.4088094253093004e-05,1.6662665075273253e-05,-1.5368665117421187e-05,4.173449633526616e-05
8.119344784063287e-06,-5.7657216530060396e-05,3.597313116188161e-05,1.5637395335943438e-05,-1.0026734344137367e-05,4.0684604755369946e-05
1.1724655450962018e-05,-5.1706392696360126e-05,3.903664037352428e-05,1.6483600120409392e-05,-3.410872523090802e-06,4.138258009334095e-05
1.789739508240018e-05,-4.682792132371105e-05,3.762190681300126e-05,1.5424304365296848e-05,-2.700019422263722e-06,4.595412246999331e-05
2.424057493044529e-05,-4.3963442294625565e-05,3.4557142498670146e-05,1.2185084415250458e-05,-6.291441422945354e-06,4.888677358394489e-05
2.8869000743725337e-05,-4.3697640649043024e-05,3.477206701063551e-05,1.0907556315942202e-05,-8.27387975732563e-06,4.819612149731256e-05
3.401783760637045e-05,-4.3947755330009386e-05,3.787091191043146e-05,1.4128464499663096e-05,-4.344071840023389e-06,4.6598877815995365e-05
3.7332036299631e-05,-4.578127482091077e-05,4.051514406455681e-05,1.8498436475056224e-05,2.9363757221290143e-06,5.012236215407029e-05
3.6850084143225104e-05,-4.921528307022527e-05,4.0768147300696e-05,2.0353631043690257e-05,7.5606571954267565e-06,5.6949571444420144e-05
3.272807225584984e-05,-5.0492133595980704e-05,3.942092735087499e-05,1.997902108996641e-05,8.5381561802933e-06,6.031493830960244e-05
2.7736208721762523e-05,-4.939302380080335e-05,3.9367281715385616e-05,1.799341043806635e-05,8.35064838611288e-06,5.856380084878765e-05
2.5939965780708008e-05,-4.8761248763184994e-05,4.02726509491913e-05,1.9095143215963617e-05,7.569253284600563e-06,5.7798493799054995e-05
2.6078625523950905e-05,-4.9593923904467374e-05,3.9720573113299906e-05,2.722840872593224e-05,7.02654369888478e-06,6.088221925892867e-05
2.5543438823660836e-05,-5.149879143573344e-05,3.811368878814392e-05,4.178701783530414e-05,5.8792966228793375e-06,5.882382902200334e-05
2.455686808389146e-05,-5.3554413170786574e-05,3.642975934781134e-05,5.280812183627859e-05,1.2996157465750002e-06,5.226422581472434e-05
2.491600753273815e-05,-5.4406351409852505e-05,3.359793481649831e-05,5.177149796509184e-05,-4.8874398999032564e-06,4.826332951779477e-05
2.6998874091077596e-05,-5.467466326081194e-05,3.157717947033234e-05,4.265822281013243e-05,-1.1212832760065794e-05,4.759898365591653e-05
2.896220757975243e-05,-5.423479524324648e-05,2.944865082099568e-05,3.2782078051241115e-05,-1.4758786164748017e-05,4.964983236277476e-05
2.9732686016359366e-05,-5.294186848914251e-05,3.012125671375543e-05,2.475324072293006e-05,-1.4639499568147585e-05,5.541709833778441e-05
2.916483936132863e-05,-5.076753950561397e-05,3.4163134841946885e-05,2.7110234441352077e-05,-1.6394224076066166e-05,6.097649020375684e-05
2.6430352590978146e-05,-4.9378842959413305e-05,3.4307824535062537e-05,4.317160346545279e-05,-1.930554753926117e-05,6.27699337201193e-05
2.368136301811319e-05,-4.960633668815717e-05,3.098051092820242e-05,6.231303268577904e-05,-1.9321892978041433e-05,6.39201607555151e-05
2.2511021597892977e-05,-5.223871266935021e-05,3.0799048545304686e-05,6.718515942338854e-05,-2.063799365714658e-05,6.512375694001094e-05
2.0387462427606806e-05,-5.2721450629178435e-05,3.361836206750013e-05,6.183499499456957e-05,-2.3630402210983448e-05,6.800909613957629e-05
1.542629615869373e-05,-5.0567748985486105e-05,3.477423160802573e-05,5.246808359515853e-05,-2.4328621293534525e-05,7.025713421171531e-05
1.2228415471327025e-05,-5.087888348498382e-05,3.119994653388858e-05,4.207060192129575e-05,-2.3840711946832016e-05,6.895463593536988e-05
1.3375154594541527e-05,-5.0824746722355485e-05,2.837137617461849e-05,3.481122257653624e-05,-2.336587022000458e-05,7.0533475081902e-05
1.8300852389074862e-05,-5.107934703119099e-05,2.6530107788858004e-05,2.8508618925116025e-05,-2.4941527954069898e-05,7.016245217528194e-05
2.2499150873045437e-05,-5.315949601936154e-05,2.528342702134978e-05,2.5758672563824803e-05,-2.3437087293132208e-05,6.673359894193709e-05
2.611076706671156e-05,-5.410558878793381e-05,2.768974627542775e-05,2.548840166127775e-05,-1.8490136426407844e-05,6.360234692692757e-05
3.0361463359440677e-05,-5.208884977037087e-05,2.9301585527719e-05,2.866317481675651e-05,-1.6402927940362133e-05,6.138212484074757e-05
3.2944295526249334e-05,-5.0249258492840454e-05,2.6781739506986924e-05,3.1836334528634325e-05,-1.7565011148690246e-05,5.9707730542868376e-05
3.2275998819386587e-05,-5.177448838367127e-05,2.360230610065628e-05,3.09128372464329e-05,-1.7471713363192976e-05,5.8670884754974395e-05
2.837219653883949e-05,-5.369336940930225e-05,2.3781998606864363e-05,2.2053314751246944e-05,-1.5274046745616943e-05,5.7217650464735925e-05
2.4014680093387142e-05,-5.241735198069364e-05,2.755124296527356e-05,9.315853276348207e-06,-1.3697643225896172e-05,5.189730291021988e-05
2.0024994228151627e-05,-4.967695349478163e-05,3.191305950167589e-05,-8.123340080601338e-07,-1.3608447261503898e-05,4.500756404013373e-05
1.927908306242898e-05,-4.984048428013921e-05,3.309697058284655e-05,-4.74985790788196e-06,-1.5341407561209053e-05,3.995211227447726e-05
2.1793441192130558e-05,-5.10199461132288e-05,3.105035284534097e-05,-3.108317969235941e-06,-1.6359987057512626e-05,3.53971408912912e-05
2.5281146008637734e-05,-4.8458554374519736e-05,2.9959397579659708e-05,-2.171397909478401e-06,-1.4071471014176495e-05,2.800769652822055e-05
2.6758185413200408e-05,-4.3814885430037975e-05,3.307175211375579e-05,-6.8291660682007205e-06,-8.808029633655678e-06,2.4108358047669753e-05
2.5279628971475177e-05,-4.179613824817352e-05,3.805699816439301e-05,-1.2372340279398486e-05,-4.316948434279766e-06,2.7731863156077452e-05
2.2208201698958874e-05,-4.286578041501343e-05,4.0554761653766036e-05,-9.640019015932921e-06,-1.3380728205447667e-06,3.334785651532002e-05
1.7843405657913536e-05,-4.29202445957344e-05,3.765793007914908e-05,4.291336608730489e-06,-1.0816572171279404e-07,3.539154204190709e-05
1.4256941540224943e-05,-4.063765300088562e-05,3.368081888766028e-05,2.0591543943737634e-05,-1.4546266129400465e-06,3.778959217015654e-05
1.6238729585893452e-05,-3.9902955904835835e-05,3.346233643242158e-05,2.3002958187134936e-05,-5.493791945809789e-07,4.4031105062458664e-05
2.2169237126945518e-05,-4.0244100091513246e-05,3.5959015804110095e-05,1.2110956049582455e-05,8.686202818353195e-06,4.8162415623664856e-05
2.6010993678937666e-05,-4.2458410462131724e-05,3.813246439676732e-05,-4.379281790534151e-07,1.782309300324414e-05,5.020026583224535e-05
2.6025021725217812e-05,-4.5278502511791885e-05,3.8077090721344575e-05,-3.6743024338647956e-06,1.8077522327075712e-05,5.5477161367889494e-05
2.4834451323840767e-05,-4.679065750679001e-05,3.781095438171178e-05,6.38398250885075e-06,1.1232281394768506e-05,6.345052679535002e-05
2.1808065866935067e-05,-4.77253197459504e-05,3.8038211641833186e-05,1.798254561435897e-05,3.899816874763928e-06,6.800400296924636e-05
1.7269154341192916e-05,-4.892901415587403e-05,3.3061180147342384e-05,2.307891918462701e-05,-3.057834305764118e-07,7.078221824485809e-05
1.6947011317824945e-05,-5.340396091924049e-05,2.7258927730144933e-05,2.410040542599745e-05,-4.339930455898866e-06,7.773459947202355e-05
1.772223367879633e-05,-5.3684841986978427e-05,2.6971474653691985e-05,2.2394602638087235e-05,-6.409959496522788e-06,8.429121226072311e-05
1.6347279597539455e-05,-5.152040466782637e-05,2.8685632059932686e-05,2.1488118363777176e-05,-6.018955446052132e-06,8.437101496383548e-05
1.611361585673876e-05,-5.108672849019058e-05,3.061505776713602e-05,2.3737780793453567e-05,-6.525248409161577e-06,8.039885869948193e-05
2.1899393686908297e-05,-5.0932172598550096e-05,3.0014502044650726e-05,2.6984889700543135e-05,-1.0170177120016888e-05,7.918324990896508e-05
3.003016536240466e-05,-5.0536575145088136e-05,2.5805182303884067e-05,2.5177479983540252e-05,-1.3098039744363632e-05,8.674336277181283e-05
3.3536220144014806e-05,-4.773982072947547e-05,2.1827616365044378e-05,1.8021475625573657e-05,-1.373187933495501e-05,0.00010266929166391492
3.099558671237901e-05,-4.67363242933061e-05,2.008122464758344e-05,1.1333174370520283e-05,-1.5240921129588969e-05,0.00011158948473166674
2.705903534661047e-05,-4.831174373975955e-05,1.9818786313408054e-05,1.1709447790053673e-05,-1.9205053831683472e-05,0.00010637150990078226
2.6704674382926896e-05,-4.977816206519492e-05,2.0434656107681803e-05,1.309474555455381e-05,-2.330624556634575e-05,9.285001578973606e-05
2.6740330213215202e-05,-4.6613440645160154e-05,2.1756446585641243e-05,9.172834324999712e-06,-2.5851524696918204e-05,7.677844405407086e-05
2.3959772079251707e-05,-4.240537600708194e-05,2.3443632017006166e-05,4.915663112114999e-07,-2.679237695701886e-05,6.014606333337724e-05
2.1056599507573992e-05,-4.2605675844242796e-05,2.596425656520296e-05,-6.011899586155778e-06,-2.4017441319301724e-05,4.4917829654878005e-05
2.184263212257065e-05,-4.6370074414880946e-05,2.8511825803434476e-05,1.6400247204728657e-07,-2.038933598669246e-05,3.7435678677866235e-05
2.4917861082940362e-05,-4.899089253740385e-05,3.069919330300763e-05,2.0043218682985753e-05,-2.300100095453672e-05,3.9661583286942914e-05
2.7527326892595738e-05,-5.010783934267238e-05,3.265868508606218e-05,3.965200812672265e-05,-3.221682345611043e-05,4.623383574653417e-05
2.775764551188331e-05,-5.081558265374042e-05,3.2765678042778745e-05,4.657840327126905e-05,-3.838767952402122e-05,5.0088154239347205e-05
2.6807021640706807e-05,-4.875552622252144e-05,3.057459616684355e-05,4.4617601815843955e-05,-3.6395667848410085e-05,5.375841647037305e-05
2.5523067961330526e-05,-4.5613516704179347e-05,2.8283780920901336e-05,4.179179450147785e-05,-2.798697278194595e-05,6.190445128595456e-05
2.4302975361933932e-05,-4.404856008477509e-05,2.9378183171502315e-05,4.213766078464687e-05,-1.921978036989458e-05,7.510942668886855e-05
2.1690457288059406e-05,-4.780503149959259e-05,3.184698289260268e-05,4.842687485506758e-05,-1.3731787475990131e-05,8.367944974452257e-05
1.81344585143961e-05,-5.4774554882897064e-05,3.1806961487745866e-05,7.067570550134405e-05,-8.853274266584776e-06,8.010157762328163e-05
1.7251839381060563e-05,-5.905171929043718e-05,3.091645339736715e-05,0.00010206890146946535,-3.691915026138304e-06,7.09132436895743e-05
1.8571616237750277e-05,-5.722698551835492e-05,3.398306216695346e-05,0.00012106425856472924,1.6075159692263696e-06,6.546809891005978e-05
2.0424124159035273e-05,-5.287824023980647e-05,4.1391540435142815e-05,0.00011330027336953208,6.9556781454593875e-06,6.142783968243748e-05
2.2740143322153017e-05,-5.171557859284803e-05,4.4114527554484084e-05,8.527889440301806e-05,1.3003219464735594e-05,5.273913484415971e-05
2.4481383661623113e-05,-5.1463819545460865e-05,4.271757643437013e-05,5.373138264985755e-05,1.816421718103811e-05,4.6881956222932786e-05
2.239395871583838e-05,-5.026976577937603e-05,4.062195876031183e-05,2.9533548513427377e-05,1.769231676007621e-05,4.344901753938757e-05
1.893200897029601e-05,-4.996292045689188e-05,3.45348053087946e-05,2.0283376215957105e-05,1.3153301551938057e-05,3.891878077411093e-05
1.72927429957781e-05,-4.7718520363559946e-05,2.997357296408154e-05,2.458122617099434e-05,6.5351396187907085e-06,3.70916495739948e-05
1.871546010079328e-05,-4.5052427594782785e-05,2.9676482881768607e-05,3.2900337828323245e-05,-7.221765372378286e-06,3.853008820442483e-05
2.3002674424787983e-05,-4.601366526912898e-05,2.9689259463339113e-05,3.671212471090257e-05,-2.6106561563210562e-05,3.939628732041456e-05
2.6629362764651887e-05,-4.589638047036715e-05,3.091496182605624e-05,3.697021020343527e-05,-4.349413211457431e-05,3.998105239588767e-05
2.674195457075257e-05,-4.445010927156545e-05,3.202898005838506e-05,3.893647954100743e-05,-5.7274733990198e-05,4.421252015163191e-05
2.5425306375836954e-05,-4.619578248821199e-05,3.231876689824276e-05,4.010635529994033e-05,-6.67591521050781e-05,5.216411591391079e-05
2.5017237931024283e-05,-4.941202496411279e-05,3.5568798921303824e-05,3.9112048398237675e-05,-6.782860873499885e-05,5.979845445835963e-05
2.4532359020668082e-05,-5.069701364845969e-05,4.014084697701037e-05,3.406545874895528e-05,-5.897464507143013e-05,6.413168011931702e-05
2.3544527721242048e-05,-5.052956839790568e-05,4.028902549180202e-05,2.3915048586786725e-05,-4.373059346107766e-05,6.78344295010902e-05
2.315344136150088e-05,-5.1064042054349557e-05,3.4505032090237364e-05,1.0736328476923518e-05,-2.280930675624404e-05,6.920163286849856e-05
2.2029349565855227e-05,-5.160293585504405e-05,3.089517485932447e-05,-1.6008343663997948e-06,4.45412933913758e-06,6.766593287466094e-05
1.856416383816395e-05,-5.09810633957386e-05,3.1364943424705416e-05,-9.157606655207928e-06,3.584187652450055e-05,6.648411363130435e-05
1.5138146409299225e-05,-5.021118340664543e-05,3.1936382583808154e-05,-7.309536158572882e-06,6.344221765175462e-05,6.826625758549199e-05
1.4243075384001713e-05,-4.955410258844495e-05,3.233914321754128e-05,5.490791863849154e-06,7.959007052704692e-05,7.156873471103609e-05
1.5203322618617676e-05,-4.9993122956948355e-05,3.43456631526351e-05,1.9609251467045397e-05,8.067709131864831e-05,7.463716610800475e-05
1.6181189494091086e-05,-5.1574948884081095e-05,3.677881250041537e-05,2.3360644263448194e-05,6.830786151112989e-05,7.757618004688993e-05
1.5358276868937537e-05,-5.274867726257071e-05,3.6280045605963096e-05,1.539625554869417e-05,5.0607577577466145e-05,8.001998503459617e-05
1.2509113730629906e-05,-5.4574698879150674e-05,3.32021591020748e-05,5.6531084737798665e-06,3.5627075703814626e-05,8.302491187350824e-05
1.0524128811084665e-05,-5.458763553178869e-05,3.3278447517659515e-05,-1.3205842606112128e-06,2.2125770556158386e-05,8.739027543924749e-05
1.0593637853162363e-05,-5.2842235163552687e-05,3.578191535780206e-05,-8.875627827364951e-06,8.147177140926942e-06,8.455978968413547e-05
1.322847128903959e-05,-5.314617374096997e-05,3.791532799368724e-05,-1.8576520233182237e-05,-2.95482323053875e-06,7.611460023326799e-05
1.4534314686898142e-05,-5.637928916257806e-05,4.138341682846658e-05,-2.2722742869518697e-05,-1.0877455679292325e-05,7.035212183836848e-05
1.1479639397293795e-05,-6.019377178745344e-05,4.240543785272166e-05,-1.6562875316594727e-05,-1.7324100554105826e-05,6.392346404027194e-05
1.1843630090879742e-05,-5.7857072533806786e-05,3.723319241544232e-05,-8.190014341380447e-06,-1.9297856852062978e-05,5.69561161682941e-05
2.0301042241044343e-05,-5.0943857786478475e-05,3.2189727789955214e-05,7.6071587500337046e-06,-1.8948128854390234e-05,5.132234582561068e-05
2.8039587050443515e-05,-4.8724545195000246e-05,3.450811345828697e-05,3.9722039218759164e-05,-2.0311106709414162e-05,4.7736095439177006e-05
3.2803080102894455e-05,-5.1234128477517515e-05,3.771038245758973e-05,8.189510845113546e-05,-2.1453466615639627e-05,4.213647480355576e-05
3.6024339351570234e-05,-5.548822446144186e-05,3.572500645532273e-05,0.00011620741861406714,-2.309931551280897e-05,3.511756585794501e-05
3.769422255572863e-05,-5.626077836495824e-05,3.339172690175474e-05,0.00013095352915115654,-2.420486453047488e-05,3.67944230674766e-05
3.966421718359925e-05,-5.1876042562071234e-05,3.339000613777898e-05,0.00013204992865212262,-2.0705470888060518e-05,4.77889298053924e-05
3.9281094359466806e-05,-4.9307953304378316e-05,3.290811582701281e-05,0.00012092819815734401,-1.650777085160371e-05,5.571166184381582e-05
3.431513687246479e-05,-4.8479094402864575e-05,3.393654333194718e-05,0.00010021805064752698,-1.785093809303362e-05,5.700828114640899e-05
2.7422403945820406e-05,-4.739763608085923e-05,3.385154559509829e-05,7.663188443984836e-05,-2.2198311853571795e-05,5.543010774999857e-05
2.466830119374208e-05,-4.8555499233771116e-05,3.183378430549055e-05,5.970652637188323e-05,-2.5654071578173898e-05,5.4721454944228753e-05
2.6926589271170087e-05,-5.2754323405679315e-05,2.9277238354552537e-05,4.9327394663123414e-05,-2.3713781047263183e-05,5.823662650072947e-05
3.0255181627580896e-05,-5.7065040891757235e-05,2.620124359964393e-05,3.7837082345504314e-05,-1.8798838937073015e-05,6.434760871343315e-05
3.070819366257638e-05,-5.776764373877086e-05,2.49123913818039e-05,2.0550429326249287e-05,-1.4966257367632352e-05,6.587110692635179e-05
2.9205095415818505e-05,-5.554799281526357e-05,2.7810823667095974e-05,3.6233523132978007e-06,-1.3765396033704747e-05,6.251693412195891e-05
2.840414526872337e-05,-5.407347634900361e-05,3.1626168492948636e-05,-3.940594069717918e-06,-1.3658677744388115e-05,5.830764348502271e-05
2.800826587190386e-05,-5.2851792133878917e-05,3.1816405680729076e-05,2.494387899787398e-06,-1.3310431313584559e-05,5.6322667660424486e-05
2.7061438231612556e-05,-4.9591770221013576e-05,2.927611603809055e-05,2.1761747120763175e-05,-1.3129230865160935e-05,5.7988254411611706e-05
2.6355402951594442e-05,-4.735591937787831e-05,2.6619600248523057e-05,4.38859970017802e-05,-1.29641839521355e-05,5.5902917665662244e-05
2.7572401450015604e-05,-4.9057562137022614e-05,2.6143017748836428e-05,5.573511225520633e-05,-1.2602311471709982e-05,4.620456456905231e-05
2.7842901545227505e-05,-5.2223265811335295e-05,2.534051782276947e-05,4.907022957922891e-05,-1.2650407370529138e-05,3.6992372770328075e-05
2.4523522370145656e-05,-5.409454388427548e-05,2.525727904867381e-05,3.0112858439679258e-05,-1.7964348444365896e-05,3.38735080731567e-05
2.253040292998776e-05,-5.427130963653326e-05,2.6455807528691366e-05,1.235131003340939e-05,-2.8906408260809258e-05,3.1423398468177766e-05
2.1238574845483527e-05,-5.36134211870376e-05,2.6277670258423313e-05,4.08158530262881e-06,-3.777908568736166e-05,2.6496003556530923e-05
1.930307007569354e-05,-5.168065399629995e-05,2.644401502038818e-05,4.363957486930303e-06,-3.908258076990023e-05,2.2574096874450333e-05
1.7427930288249627e-05,-4.9215901526622474e-05,2.6902440367848612e-05,9.670175131759606e-06,-3.5392320569371805e-05,2.5547495170030743e-05
2.0882391254417598e-05,-4.8552548832958564e-05,2.652465809660498e-05,1.2418853657436557e-05,-2.8184691473143175e-05,3.131333505734801e-05
2.6203893867204897e-05,-4.5460597903002053e-05,2.9561793780885637e-05,1.297974813496694e-05,-2.2823476683697663e-05,3.564145663403906e-05
2.5755432943697087e-05,-4.437758616404608e-05,3.301756441942416e-05,1.6615582353551872e-05,-1.946581141964998e-05,4.1381219489267096e-05
2.3895554477348924e-05,-4.8779900680528954e-05,3.1672101613366976e-05,1.9382463506190106e-05,-1.4681159882456996e-05,5.412629252532497e-05
1.9430663087405264e-05,-4.8873705964069813e-05,2.860564927686937e-05,1.9080434867646545e-05,-9.865865649771877e-06,7.000575715210289e-05
1.5741583410999738e-05,-4.835941581404768e-05,2.8434164050850086e-05,2.1098261640872806e-05,-3.3603189422137802e-06,7.94230290921405e-05
1.3526955626730341e-05,-4.9292917537968606e-05,3.1057312298798934e-05,2.842031062755268e-05,4.1518710531818215e-06,8.631072705611587e-05
1.2224126294313464e-05,-4.800375972990878e-05,3.279128213762306e-05,3.8442565710283816e-05,6.562559065059759e-06,8.658605656819418e-05
1.1306631677143741e-05,-4.6243658289313316e-05,3.325726720504463e-05,4.3565119995037094e-05,3.5993709843751276e-06,7.70362967159599e-05
1.1828798051283229e-05,-4.758776776725426e-05,3.16902733175084e-05,4.1606534068705514e-05,-3.481287365048047e-07,6.980526086408645e-05
1.5931138477753848e-05,-4.9449492507847026e-05,3.0101056836429052e-05,3.2038129575084895e-05,-3.176274276484037e-06,7.20039606676437e-05
2.14218016481027e-05,-4.965420885127969e-05,3.095913052675314e-05,1.8704249669099227e-05,-2.1430469132610597e-06,7.648116297787055e-05
2.5139477656921372e-05,-4.88946789118927e-05,3.313986599096097e-05,7.868605280236807e-06,2.2584772523259744e-06,7.544794789282605e-05
2.7383512133383192e-05,-4.7408197133336216e-05,3.5507637221599e-05,3.096005229963339e-06,5.317800059856381e-06,6.751080945832655e-05
2.8010848836856894e-05,-4.624578286893666e-05,3.571619890863076e-05,2.369097273913212e-06,4.336486199463252e-06,5.596628398052417e-05
2.487703022779897e-05,-4.593474659486674e-05,3.286309583927505e-05,2.57814213000529e-06,9.875266187009402e-07,4.737855488201603e-05
1.887608232209459e-05,-4.604920468409546e-05,2.9233224267954938e-05,3.5049724829150364e-06,-2.8030679004587e-06,4.511484439717606e-05
1.343761232419638e-05,-4.5931185013614595e-05,2.8735603336826898e-05,4.505835477175424e-06,-6.56068232274265e-06,4.904134766547941e-05
1.3326573025551625e-05,-4.547554635792039e-05,3.0981529562268406e-05,5.4573965826421045e-06,-8.870036253938451e-06,5.532895011128858e-05
1.8135111531591974e-05,-4.496684778132476e-05,3.206056499038823e-05,8.814441571303178e-06,-9.234942808689084e-06,5.8167010138276964e-05
2.2890237232786603e-05,-4.790766615769826e-05,3.0228573450585827e-05,1.954365143319592e-05,-9.139697795035318e-06,5.661249451804906e-05
2.4390750695602037e-05,-4.9885707994690165e-05,2.8129621568950824e-05,3.422887675696984e-05,-1.0182460755459033e-05,5.760835483670235e-05
2.365080581512302e-05,-4.884271038463339e-05,2.6244284526910633e-05,4.3062580516561866e-05,-1.0289379133610055e-05,6.166342063806951e-05
1.843933387135621e-05,-4.724296377389692e-05,2.590193980722688e-05,3.9456608647014946e-05,-1.0745678991952445e-05,6.118611781857908e-05
1.4573884072888177e-05,-4.371118120616302e-05,2.9140721380827017e-05,3.104648203589022e-05,-1.4346550415211823e-05,5.6773656979203224e-05
1.575879468873609e-05,-4.065799294039607e-05,3.185400419170037e-05,2.539493107178714e-05,-1.6139289073180407e-05,5.5072305258363485e-05
1.7979804397327825e-05,-4.0589009586256e-05,3.1925999792292714e-05,2.312807373527903e-05,-1.2033971870550886e-05,5.5043623433448374e-05
1.8538994481787086e-05,-4.236634049448185e-05,3.243354149162769e-05,3.065025157411583e-05,-9.740589121065568e-06,5.764356683357619e-05
1.5636194802937098e-05,-4.1755451093195006e-05,3.378061592229642e-05,3.543805723893456e-05,-1.449225874239346e-05,6.2317427364178e-05
1.2120783139835112e-05,-3.988511525676586e-05,3.236538032069802e-05,3.3031832572305575e-05,-1.5449983038706705e-05,6.511685205623507e-05
1.065830383595312e-05,-4.009421536466107e-05,2.9598326364066452e-05,3.1986804970074445e-05,-9.706499440653715e-06,6.453821697505191e-05
1.2300079106353223e-05,-4.056596299051307e-05,2.8185744668007828e-05,3.0561939638573676e-05,-7.287177595571848e-06,6.244099495233968e-05
1.6406762370024808e-05,-4.206328230793588e-05,2.9194989110692404e-05,2.8145719625172205e-05,-1.0651491720636841e-05,6.0477137594716623e-05
1.7997421309701167e-05,-4.4718675781041384e-05,2.8739485060214065e-05,2.0608107661246322e-05,-1.1886148968187626e-05,5.957351459073834e-05
1.7872300304588862e-05,-4.73053332825657e-05,2.6296758733224124e-05,1.605287798156496e-05,-1.1202884707017802e-05,6.0330468841129914e-05
1.8623775758896954e-05,-4.6551918785553426e-05,2.7187541491002776e-05,1.74899378180271e-05,-1.1148902558488771e-05,6.114599091233686e-05
2.0316247173468582e-05,-4.484305827645585e-05,2.9769877073704265e-05,2.356578261242248e-05,-1.2929036529385485e-05,6.32364972261712e-05
1.9929366317228414e-05,-4.446710954653099e-05,3.2773110433481634e-05,2.6759613319882192e-05,-1.4964639376557898e-05,6.409509660443291e-05
1.818954842747189e-05,-4.5713841245742515e-05,3.4232758480357006e-05,2.7837904781335965e-05,-1.481123581470456e-05,6.464304897235706e-05
2.073628820653539e-05,-4.6321514673763886e-05,3.586077582440339e-05,2.8930753614986315e-05,-1.4869435290165711e-05,6.337810918921605e-05
2.5579349312465638e-05,-4.675932723330334e-05,3.727879811776802e-05,2.8668311642832123e-05,-1.3648582353198435e-05,6.081252286094241e-05
2.6773885110742413e-05,-4.8185807827394456e-05,3.48880494129844e-05,2.8446676878957078e-05,-1.1807145710918121e-05,5.998293636366725e-05
2.3926897483761422e-05,-4.97904111398384e-05,2.9763401471427642e-05,2.9559139875345863e-05,-9.814192708290648e-06,6.036895138095133e-05
2.060021688521374e-05,-5.1197388529544696e-05,2.7002899514627643e-05,3.125462171738036e-05,-8.243318006861955e-06,6.234682950889692e-05
1.7775024389266036e-05,-5.1937673561042175e-05,2.898020829888992e-05,3.084195850533433e-05,-8.954179065767676e-06,6.489085353678092e-05
1.783828884072136e-05,-5.2128274546703324e-05,3.142429704894312e-05,3.27928937622346e-05,-1.2265806617506314e-05,6.617524195462465e-05
2.1716236005886458e-05,-5.2110535762039945e-05,3.142025161650963e-05,3.6177960282657295e-05,-1.5042580344015732e-05,6.273599137784913e-05
2.6361802156316116e-05,-5.245233478490263e-05,3.095293868682347e-05,3.736154394573532e-05,-1.887821599666495e-05,5.463805791805498e-05
2.700896220630966e-05,-5.10966892761644e-05,3.219620339223184e-05,3.549278335412964e-05,-2.3728078303975053e-05,4.697056283475831e-05
2.2574975446332246e-05,-4.973510658601299e-05,3.1425512133864686e-05,3.754268618649803e-05,-2.4644527002237737e-05,4.29480969614815e-05
1.6870406398084015e-05,-4.941098086419515e-05,3.138964166282676e-05,4.0343060391023755e-05,-2.447837687213905e-05,4.361717219580896e-05
1.3165549717086833e-05,-5.0851416744990274e-05,3.392254438949749e-05,3.6744870158145204e-05,-2.465414763719309e-05,4.719025673693977e-05
1.1775517123169266e-05,-5.565273386309855e-05,3.5411547287367284e-05,2.9813840228598565e-05,-1.9968227206845768e-05,4.5511944335885346e-05
1.234960109286476e-05,-5.953003710601479e-05,3.4166925615863875e-05,2.7442600185167976e-05,-1.685955976427067e-05,4.078945130459033e-05
1.0759949873317964e-05,-5.932651401963085e-05,3.196568286512047e-05,3.017808558070101e-05,-1.7342435967293568e-05,3.6452769563766196e-05
9.277114259020891e-06,-5.562166916206479e-05,3.0439883630606346e-05,3.529096284182742e-05,-1.6381649402319454e-05,3.325811121612787e-05
1.3791981473332271e-05,-5.413273902377114e-05,3.19483588100411e-05,4.02422301704064e-05,-1.7590558854863048e-05,3.54331023117993e-05
2.056801713479217e-05,-5.800978760817088e-05,3.366987584740855e-05,4.04267520934809e-05,-1.8379370885668322e-05,4.12459958170075e-05
2.3573673388455063e-05,-5.90971321798861e-05,3.338391979923472e-05,3.5740871680900455e-05,-1.6988849893095903e-05,4.966883716406301e-05
2.4463784939143807e-05,-5.765238165622577e-05,3.371613274794072e-05,3.110036414000206e-05,-1.1613321476033889e-05,5.5837081163190305e-05
2.653756928339135e-05,-5.4235079005593434e-05,3.278831718489528e-05,2.858976586139761e-05,-4.458121111383662e-06,5.9578615037025884e-05
2.8082402423024178e-05,-5.1662376790773124e-05,3.3218693715753034e-05,2.7806105208583176e-05,2.060977294604527e-06,5.967843753751367e-05
2.8569167625391856e-05,-4.815644206246361e-05,3.3620704925851896e-05,2.5247320081689395e-05,7.220147381303832e-06,5.5645967222517356e-05
2.7359890736988746e-05,-4.617190279532224e-05,3.1792977097211406e-05,2.122714249708224e-05,9.105860954150558e-06,4.947827983414754e-05
2.520565249142237e-05,-4.825096402782947e-05,2.9237829949124716e-05,1.8888131307903677e-05,8.70514031703351e-06,4.407380765769631e-05
2.2967433324083686e-05,-5.171693555894308e-05,2.9871791412006132e-05,1.8125150745618157e-05,8.510048246535007e-06,5.079281982034445e-05
2.0837918782490306e-05,-5.2969753596698865e-05,3.211322473362088e-05,2.0660474547185004e-05,8.487756531394552e-06,6.69222281430848e-05
2.1161631593713537e-05,-4.9157319153891876e-05,3.2196119718719274e-05,3.0848561436869204e-05,5.282866823108634e-06,7.893067231634632e-05
2.3622702428838238e-05,-4.310252916184254e-05,3.3341453672619537e-05,4.4491349399322644e-05,4.919748448628525e-07,7.510578143410385e-05
2.4970298909465782e-05,-3.9059425034793094e-05,3.589850530261174e-05,5.1583916501840577e-05,-2.2126143903733464e-06,5.706616866518743e-05
2.5633205950725824e-05,-3.987676609540358e-05,3.661145092337392e-05,4.9348171160090715e-05,-2.2685646854370134e-06,3.736860162462108e-05
2.6484847694518976e-05,-4.345261550042778e-05,3.5487737477524206e-05,4.3311149056535214e-05,-3.066040562771377e-06,2.487460369593464e-05
2.5017099687829614e-05,-4.5676850277232006e-05,3.644114622147754e-05,3.975219442509115e-05,-4.870129032497061e-06,1.957033236976713e-05
2.0574805603246205e-05,-4.456838360056281e-05,3.761148764169775e-05,3.9506958273705095e-05,-8.341959983226843e-06,1.683366281213239e-05
1.8518221622798592e-05,-4.5603599573951215e-05,3.630606079241261e-05,4.116892523597926e-05,-1.3782519999949727e-05,1.5364621503977105e-05
2.193232467107009e-05,-5.0324710173299536e-05,3.3016334782587364e-05,3.8070586015237495e-05,-1.9639213860500604e-05,1.5957981304381974e-05
2.71151711785933e-05,-5.436750507215038e-05,2.995775685121771e-05,1.8653749066288583e-05,-2.6160520064877346e-05,2.1052650481578894e-05
3.193906013621017e-05,-5.534797674044967e-05,2.9111919502611272e-05,-2.073686118819751e-05,-3.0509758289554156e-05,3.298738010926172e-05
3.4288601455045864e-05,-5.435035564005375e-05,2.960160418297164e-05,-6.185896199895069e-05,-3.069960075663403e-05,4.7821660700719804e-05
3.19319442496635e-05,-5.0591916078701615e-05,3.245587140554562e-05,-7.712066144449636e-05,-2.836352177837398e-05,6.22820807620883e-05
2.7490625143400393e-05,-4.702699516201392e-05,3.763740460271947e-05,-5.919468094361946e-05,-2.275853512401227e-05,8.22326255729422e-05
2.1767831640318036e-05,-4.520917354966514e-05,4.0490966057404876e-05,-2.1621868654619902e-05,-1.704614442132879e-05,9.631423745304346e-05
2.0624987882911228e-05,-4.3745036236941814e-05,4.1827915993053466e-05,1.3876790035283193e-05,-1.324611821473809e-05,9.69421598711051e-05
2.371392292843666e-05,-4.4611981138587e-05,4.256611646269448e-05,3.4009884984698147e-05,-6.90429851601948e-06,9.757056250236928e-05
2.37499043578282e-05,-4.856372470385395e-05,4.059288039570674e-05,4.245098170940764e-05,1.4956422944578662e-07,9.928663348546252e-05
2.1938427380518988e-05,-5.31622463313397e-05,3.774841388803907e-05,4.232100036460906e-05,4.516927219810896e-06,0.00010226300219073892
2.0886996935587376e-05,-5.658289956045337e-05,3.4427899663569406e-05,5.0268845370737836e-05,5.267267169983825e-06,0.00010723478044383228
2.2918777176528238e-05,-5.60696680622641e-05,3.319573443150148e-05,7.33488705009222e-05,4.011309101770166e-06,0.00010788493818836287
2.285170012328308e-05,-5.830188456457108e-05,3.613899752963334e-05,9.970810788217932e-05,4.35174160884344e-06,9.893041715258732e-05
2.2833512048237026e-05,-5.912589767831378e-05,3.849265704047866e-05,0.00011127842299174517,3.1237732400768436e-06,8.634922414785251e-05
2.287748793605715e-05,-5.7066416047746316e-05,3.588938125176355e-05,9.889343346003443e-05,1.4772076610825025e-06,7.966563862282783e-05
2.1650370399584062e-05,-5.612237146124244e-05,2.8659249437623657e-05,7.605335849802941e-05,1.4513717587760766e-06,8.094280201476067e-05
2.1059069695184007e-05,-5.802781743113883e-05,2.278497959196102e-05,5.6834160204743966e-05,1.2513609135567094e-06,8.130128844641149e-05
2.1208201360423118e-05,-6.055093399481848e-05,2.171398045902606e-05,4.493427695706487e-05,7.804566166669247e-07,7.608096348121762e-05
2.1606838345178403e-05,-5.854111077496782e-05,2.750607927737292e-05,3.7312252970878035e-05,-1.7042297031366616e-06,6.81352976243943e-05
2.1212543288129382e-05,-5.3319068683777004e-05,3.352836210979149e-05,3.424078749958426e-05,-4.447529136086814e-06,5.785211396869272e-05
2.1420717530418187e-05,-4.782299947692081e-05,3.331279003759846e-05,3.4418968425597996e-05,-5.990349563944619e-06,5.092554056318477e-05
1.9578741557779722e-05,-4.6582066715927795e-05,3.084283525822684e-05,3.752654811250977e-05,-6.224576736713061e-06,5.153671736479737e-05
1.7092665075324476e-05,-4.7807723603909835e-05,3.100318645010702e-05,3.9954393287189305e-05,-6.612899142055539e-06,5.615554618998431e-05
1.7504724382888526e-05,-4.921261643175967e-05,3.325928628328256e-05,3.539193494361825e-05,-8.5734500316903e-06,5.620723095489666e-05
1.8845537852030247e-05,-4.797891597263515e-05,3.20910730806645e-05,2.387548920523841e-05,-1.0635387297952548e-05,5.1074828661512583e-05
1.7986674720305018e-05,-4.5887692976975814e-05,2.9348677344387397e-05,1.652999890211504e-05,-1.0214241228823084e-05,4.751908272737637e-05
1.8882117728935555e-05,-4.48349783255253e-05,2.9456248739734292e-05,1.8897788322647102e-05,-1.1455430467322003e-05,4.7036781325004995e-05
2.1531921447603963e-05,-4.657336830860004e-05,3.170115815009922e-05,2.2477681341115385e-05,-1.4480378922598902e-05,4.606062066159211e-05
2.4481127184117213e-05,-4.9597776524024084e-05,3.446366827120073e-05,2.2605190679314546e-05,-1.4965251466492191e-05,4.9338614189764485e-05
2.565324575698469e-05,-4.954349424224347e-05,3.5706481867237017e-05,2.0639230569940992e-05,-1.4378043488250114e-05,5.267959932098165e-05
2.3573275029775687e-05,-4.7607478336431086e-05,3.270693923695944e-05,1.7018597645801492e-05,-1.5694879039074294e-05,4.911438372801058e-05
2.0943547497154213e-05,-4.8337329644709826e-05,3.025949808943551e-05,1.1587224435061216e-05,-1.896659887279384e-05,4.393819472170435e-05
1.9837130821542814e-05,-5.151110599399544e-05,2.8734293664456345e-05,1.0077182196255308e-05,-1.7843791283667088e-05,4.252158760209568e-05
1.784804589988198e-05,-5.52304154552985e-05,3.057956928387284e-05,1.2888867786386982e-05,-1.5192063983704429e-05,3.9967115299077705e-05
1.6941286958171986e-05,-5.435373532236554e-05,3.405254756216891e-05,1.2645270544453524e-05,-1.564934973430354e-05,3.828133048955351e-05
2.0105841031181626e-05,-5.029869498685002e-05,3.597373506636359e-05,1.2780855286109727e-05,-1.711592631181702e-05,4.326532143750228e-05
2.3207316189655103e-05,-4.564911068882793e-05,3.880402073264122e-05,1.4023374205862638e-05,-1.5845698726479895e-05,5.0201273552374914e-05
2.4626087906653993e-05,-4.6111188567010686e-05,3.7421032175188884e-05,1.2138913916714955e-05,-8.979646736406721e-06,5.338410846889019e-05
2.550860881456174e-05,-4.844775321544148e-05,3.3246113162022084e-05,1.1296965567453299e-05,-2.533736278564902e-06,5.0004269724013284e-05
2.67666964646196e-05,-4.7213885409291834e-05,3.07215959765017e-05,1.1932216693821829e-05,-2.6731083835329628e-06,4.645021908800118e-05
2.7812346161226742e-05,-4.692318907473236e-05,3.2024607207858935e-05,1.305877412960399e-05,-7.096580702636857e-06,4.664654625230469e-05
2.8804915928049013e-05,-4.867657844442874e-05,3.4908272937173024e-05,1.8838256437447853e-05,-1.0496373761270661e-05,4.8792120651341975e-05
2.903160930145532e-05,-5.0526894483482465e-05,3.769379327422939e-05,3.138620013487525e-05,-1.032801992550958e-05,4.927581539959647e-05
2.8346648832666688e-05,-5.040760152041912e-05,4.228016405249946e-05,5.173232057131827e-05,-9.01497605809709e-06,4.854553480981849e-05
2.7221265554544516e-05,-4.8534959205426276e-05,4.480828283703886e-05,7.196865044534206e-05,-1.0028936230810359e-05,4.8255809815600514e-05
2.6965130018652417e-05,-4.459123010747135e-05,4.1536055505275726e-05,7.998674846021459e-05,-1.0661867236194666e-05,5.0833215937018394e-05
2.6830079150386155e-05,-4.218432877678424e-05,3.582971839932725e-05,7.348427607212216e-05,-8.644441550131887e-06,5.230989336268976e-05
2.4095970729831606e-05,-4.199078102828935e-05,3.276638381066732e-05,5.842763857799582e-05,-8.866851203492843e-06,5.255853830021806e-05
2.1239609850454144e-05,-4.424200233188458e-05,3.189048220519908e-05,4.634168726624921e-05,-1.2067562238371465e-05,5.57956300326623e-05
2.085928645101376e-05,-4.7280482249334455e-05,3.252827445976436e-05,3.95449205825571e-05,-1.2111647265555803e-05,6.11193900112994e-05
2.047734596999362e-05,-4.917752085020766e-05,3.4390872315270826e-05,3.540402394719422e-05,-9.52958180278074e-06,6.666800618404523e-05
2.0505982320173644e-05,-4.6383684093598276e-05,3.503070547594689e-05,3.3721567888278514e-05,-8.714646355656441e-06,6.794219370931387e-05
2.2504997104988433e-05,-4.463743607630022e-05,3.1180697988020256e-05,3.1407249480253085e-05,-8.292492566397414e-06,6.611680873902515e-05
2.4977734938147478e-05,-4.666339737013914e-05,2.4683995434315875e-05,2.580446016509086e-05,-6.856993877590867e-06,6.273805774981156e-05
2.4707116608624347e-05,-4.809958772966638e-05,2.1273144739097916e-05,2.1658554032910615e-05,-6.9641009758925065e-06,5.772089571109973e-05
2.1180681869736873e-05,-4.797736255568452e-05,2.294619298481848e-05,2.3198164853965864e-05,-9.155763109447435e-06,5.8928293583448976e-05
1.9307213733554818e-05,-4.870311022386886e-05,2.370464244449977e-05,2.6059300580527633e-05,-1.0542751624598168e-05,6.392197974491864e-05
1.8336148059461266e-05,-5.1634528063004836e-05,2.057481287920382e-05,2.524309093132615e-05,-9.635265996621456e-06,6.356974336085841e-05
1.8260830984218046e-05,-5.268873428576626e-05,1.8523660401115194e-05,2.386488631600514e-05,-9.513323675491847e-06,6.241126538952813e-05
1.978385989787057e-05,-5.214269913267344e-05,1.8411192286293954e-05,2.0945652067894116e-05,-8.19673095975304e-06,6.159804615890607e-05
2.0932662664563395e-05,-5.249493187875487e-05,2.0167337424936704e-05,1.1778271073126234e-05,-6.771173502784222e-06,6.185046368045732e-05
2.128135020029731e-05,-5.445050192065537e-05,2.119773671438452e-05,4.567782525555231e-06,-1.0490403838048223e-05,6.335234502330422e-05
1.976390922209248e-05,-5.505714943865314e-05,2.2337069822242483e-05,3.2617506349197356e-06,-1.2313264960539527e-05,6.13936863373965e-05
1.6712077922420576e-05,-5.183293978916481e-05,2.5989613277488388e-05,7.343219749600394e-06,-8.440525562036783e-06,5.635738489218056e-05
1.3427092198980972e-05,-4.54532855655998e-05,2.793940802803263e-05,1.500143207522342e-05,-5.03285900776973e-06,5.3622959967469797e-05
1.2513164620031603e-05,-4.5404005504678935e-05,2.7051610231865197e-05,2.024706918746233e-05,-6.174402187753003e-06,5.212845644564368e-05
1.369879100820981e-05,-4.961552986060269e-05,2.708157444430981e-05,2.5430103050894104e-05,-1.0570924132480286e-05,5.180158404982649e-05
1.6757190678617917e-05,-5.157928171684034e-05,2.6630643333191983e-05,2.6917799914372154e-05,-1.5262194210663438e-05,5.460171450977214e-05
2.0316991140134633e-05,-5.3497984481509775e-05,2.6069155865116045e-05,2.2919602997717448e-05,-1.792047441995237e-05,5.512896677828394e-05
2.1144434867892414e-05,-5.396432243287563e-05,2.8298420147621073e-05,1.951611011463683e-05,-1.9076396711170673e-05,5.4333060688804835e-05
1.990338205359876e-05,-5.343076918506995e-05,3.0686303944094107e-05,1.896220419439487e-05,-1.6496202078997158e-05,5.491153206094168e-05
1.998022162297275e-05,-5.327754115569405e-05,3.22722626151517e-05,1.9638624507933855e-05,-1.3793182006338611e-05,5.971721111563966e-05
2.1803663912578486e-05,-5.49921824131161e-05,3.133300197077915e-05,2.2195119527168572e-05,-1.2512897228589281e-05,6.921797466930002e-05
2.47282787313452e-05,-5.587767736869864e-05,2.7703506930265576e-05,2.6096589863300323e-05,-1.0343309440941084e-05,7.598063530167565e-05
2.7515081455931067e-05,-5.359135684557259e-05,2.3165111997514032e-05,2.7541243980522268e-05,-7.2065508902596775e-06,7.312261004699394e-05
2.973544178530574e-05,-4.815819556824863e-05,2.072653114737477e-05,2.7158259399584495e-05,-5.028858140576631e-06,6.301666871877387e-05
3.056081186514348e-05,-4.4076972699258476e-05,2.238757224404253e-05,2.5831055609160103e-05,-5.480172603711253e-06,5.5425745813408867e-05
2.7909722120966762e-05,-4.414975774125196e-05,2.7769594453275204e-05,2.2218688172870316e-05,-5.809193680761382e-06,5.529802365344949e-05
2.208413752669003e-05,-4.709929271484725e-05,3.1842850148677826e-05,1.652647551964037e-05,-3.6058900150237605e-06,5.741697532357648e-05
1.91774179256754e-05,-4.985073610441759e-05,3.162841676385142e-05,1.3082005352771375e-05,4.690529635809071e-07,5.649976446875371e-05
2.229892743343953e-05,-4.927079862682149e-05,3.0626499210484326e-05,1.2541221622086596e-05,1.071525844054122e-06,5.286015220917761e-05
2.501262497389689e-05,-4.6991772251203656e-05,3.068891237489879e-05,1.4255073438107502e-05,-1.7828443787948345e-06,4.895831807516515e-05
2.3670547307119705e-05,-4.5820532250218093e-05,3.234036921639927e-05,1.920061004057061e-05,-3.996996838395717e-06,4.834802166442387e-05
2.4267046683235094e-05,-4.474899833439849e-05,3.605522579164244e-05,2.5844554329523817e-05,-3.873750756611116e-06,5.101460556033999e-05
2.6632147637428716e-05,-4.1180799598805606e-05,4.116527270525694e-05,2.8736811145790853e-05,-5.290885383146815e-06,5.7018343795789406e-05
2.6117622837773524e-05,-3.920888411812484e-05,4.389167588669807e-05,2.4300228687934577e-05,-7.3072806117124856e-06,6.366480374708772e-05
2.2789825379732065e-05,-4.13378729717806e-05,4.060488208779134e-05,1.018973307509441e-05,-8.316720595757943e-06,6.105547799961641e-05
1.7755279259290546e-05,-4.491887739277445e-05,3.49673064192757e-05,-4.685480234911665e-06,-1.2878215784439817e-05,4.98774170409888e-05
1.762919782777317e-05,-4.4721662561642006e-05,3.1779607525095344e-05,-6.385314009094145e-06,-2.8143416784587316e-05,4.965964035363868e-05
1.970325320144184e-05,-4.3279298552079126e-05,2.946540917037055e-05,5.812221843370935e-06,-4.58186368632596e-05,6.418381235562265e-05
2.391315319982823e-05,-4.36743903264869e-05,2.92006297968328e-05,2.1358784579206258e-05,-5.7500354159856215e-05,8.039904059842229e-05
2.505186239432078e-05,-4.357194120530039e-05,3.272670801379718e-05,3.969570389017463e-05,-6.715453491779044e-05,9.129045065492392e-05
1.969371623999905e-05,-4.257327236700803e-05,3.615488458308391e-05,6.33034433121793e-05,-7.377079600701109e-05,9.208978008246049e-05
1.362294551654486e-05,-4.267501208232716e-05,3.666834527393803e-05,8.392876770813018e-05,-7.526260742451996e-05,8.339728083228692e-05
8.145290848915465e-06,-4.42905438831076e-05,3.56312702933792e-05,9.2523725470528e-05,-6.904290057718754e-05,7.438471948262304e-05
3.1085169212019537e-06,-4.571772660710849e-05,3.209273927495815e-05,8.871360478224233e-05,-5.331258216756396e-05,7.124339026631787e-05
-7.752666419946763e-07,-4.841014015255496e-05,2.983090962516144e-05,7.792519318172708e-05,-2.8281721824896522e-05,7.120735244825482e-05
9.705958063932485e-07,-5.000716555514373e-05,3.190833012922667e-05,6.392531940946355e-05,2.5736862880876288e-06,7.080247451085597e-05
7.013767572061624e-06,-5.06841424794402e-05,3.7521102058235556e-05,5.1820839871652424e-05,3.432578159845434e-05,6.858666893094778e-05
1.2607652024598792e-05,-5.043718556407839e-05,4.060152423335239e-05,4.3851225200342014e-05,6.018946805852465e-05,6.496831338154152e-05
1.3692754691874143e-05,-4.995089693693444e-05,3.909707811544649e-05,3.8869835407240316e-05,7.538864156231284e-05,6.216362817212939e-05
1.3207183656049892e-05,-5.099972986499779e-05,3.419652784941718e-05,3.197569458279759e-05,7.943680975586176e-05,5.989635974401608e-05
1.4383888810698409e-05,-5.162405432201922e-05,2.85967380477814e-05,2.330609640921466e-05,7.454651495208964e-05,5.5983222409849986e-05
1.6517140466021374e-05,-5.0163558626081795e-05,2.782571937132161e-05,1.6029980542953126e-05,6.333642522804439e-05,4.957675628247671e-05
1.8315606212127022e-05,-4.824612187803723e-05,3.128210300928913e-05,1.4485590327240061e-05,4.971424277755432e-05,4.458721377886832e-05
1.9670471374411136e-05,-4.860216358792968e-05,3.443386958679184e-05,1.7109885448007844e-05,3.51630624209065e-05,4.3333489884389564e-05
2.1372095943661407e-05,-4.8585206968709826e-05,3.568710235413164e-05,2.0249173758202232e-05,1.8720833395491354e-05,4.401993646752089e-05
2.2759651983506046e-05,-4.775631532538682e-05,3.5562716220738366e-05,2.3299629901885055e-05,6.0602292251132894e-06,4.6566441596951336e-05
2.2848476874059997e-05,-4.665955202654004e-05,3.472284515737556e-05,2.360945291002281e-05,4.830790203413926e-07,4.7143093979684636e-05
2.44469556491822e-05,-4.575811908580363e-05,3.551422560121864e-05,2.3743734345771372e-05,-3.7957800032017985e-06,4.5406995923258364e-05
2.587536073406227e-05,-4.4660333514912054e-05,3.3407613955205306e-05,2.833391772583127e-05,-1.1513820936670527e-05,4.5558103010989726e-05
2.5647888833191246e-05,-4.5982334995642304e-05,3.174715311615728e-05,3.156653110636398e-05,-1.876293754321523e-05,4.8596928536426276e-05
2.7583984774537385e-05,-5.09813180542551e-05,3.5440392821328714e-05,3.060688322875649e-05,-1.91434064618079e-05,5.2169863920425996e-05
2.9819795599905774e-05,-5.169192445464432e-05,3.8054949982324615e-05,2.6195262762485072e-05,-1.735707701300271e-05,5.340475763659924e-05
3.0483257432933897e-05,-4.499546776060015e-05,3.6170844396110624e-05,2.078495526802726e-05,-1.8921515220426954e-05,5.8601759519660845e-05
3.243640094297007e-05,-3.9929549529915676e-05,3.631281288107857e-05,1.7208651115652174e-05,-1.7926800865097903e-05,6.634751480305567e-05
3.388672848814167e-05,-4.1954557673307136e-05,3.88183216273319e-05,1.4318048670247663e-05,-1.590399187989533e-05,6.599773769266903e-05
2.9895712941652164e-05,-4.704046659753658e-05,3.839295823127031e-05,1.4655306586064398e-05,-1.830012843129225e-05,6.127439701231197e-05
2.629947630339302e-05,-5.16416403115727e-05,3.4700697142397985e-05,1.9222630726289935e-05,-2.3327827875618823e-05,6.011135337757878e-05
2.6848125344258733e-05,-5.370336293708533e-05,3.050789200642612e-05,2.517454959161114e-05,-2.7756677809520625e-05,6.19651546003297e-05
2.8468350137700327e-05,-5.637877620756626e-05,2.8426793505786918e-05,2.88301998807583e-05,-2.743918594205752e-05,6.240564835024998e-05
2.890316682169214e-05,-5.895761205465533e-05,2.8664948331424966e-05,2.9815080779371783e-05,-2.553728518250864e-05,6.266357377171516e-05
2.7660544219543226e-05,-5.644487464451231e-05,2.904214670707006e-05,2.9768398235319182e-05,-2.5839008230832405e-05,6.699108052998781e-05
2.6145326046389528e-05,-5.3035175369586796e-05,2.9228898711153306e-05,3.2915184419834986e-05,-2.5604598704376258e-05,7.437366002704948e-05
2.374395808146801e-05,-5.221575338509865e-05,2.9531696782214567e-05,3.65689629688859e-05,-2.399159893684555e-05,7.719473069300875e-05
2.3304504793486558e-05,-5.34804530616384e-05,3.116903826594353e-05,4.187236481811851e-05,-2.199577102146577e-05,7.31962063582614e-05
2.4915847461670637e-05,-5.473165219882503e-05,3.3459164114901796e-05,4.947174966218881e-05,-2.042294363491237e-05,6.646316614933312e-05
2.7213749490329064e-05,-5.3742060117656365e-05,3.4833705285564065e-05,5.6867909734137356e-05,-1.7671398381935433e-05,5.8580368204275146e-05
3.14708158839494e-05,-5.202985630603507e-05,3.55155898432713e-05,5.982647053315304e-05,-1.1727806850103661e-05,5.0153652409790084e-05
3.4412303648423404e-05,-5.1701965276151896e-05,3.58866345777642e-05,5.638157745124772e-05,-3.6493850075203227e-06,5.003895057598129e-05
3.193888551322743e-05,-5.223487823968753e-05,3.616620597313158e-05,4.7402645577676594e-05,2.0891807253065053e-06,6.0753547586500645e-05
2.7908214178751223e-05,-5.054193388787098e-05,3.767501766560599e-05,3.767998714465648e-05,3.8004764064680785e-06,7.047173130558804e-05
2.63660513155628e-05,-4.607524169841781e-05,4.028526018373668e-05,3.375947562744841e-05,3.0890303150954423e-06,6.768727325834334e-05
2.6263738618581556e-05,-4.374649142846465e-05,3.9011501939967275e-05,3.4866028727265075e-05,2.7069866064266535e-06,5.6596767535666004e-05
2.580176806077361e-05,-4.5680615585297346e-05,3.405924144317396e-05,3.153269426547922e-05,5.556655196414795e-06,4.5451375626726076e-05
2.4963292162283324e-05,-4.758524664794095e-05,2.9702407118747942e-05,1.639922811591532e-05,8.872281796357129e-06,3.317464143037796e-05
2.612497155496385e-05,-4.665039523388259e-05,3.069409285672009e-05,-4.133451966481516e-06,8.244070158980321e-06,2.1662297513103113e-05
2.8499081963673234e-05,-4.9034872063202783e-05,3.4201912058051676e-05,-1.7818285414250568e-05,3.354191676407936e-06,1.559902011649683e-05
3.055091292480938e-05,-5.480280742631294e-05,3.197033947799355e-05,-1.4706520232721232e-05,-3.835722509393236e-06,1.945229814737104e-05
3.117321102763526e-05,-5.496388257597573e-05,2.682795820874162e-05,1.4406603554562025e-07,-9.497151040704921e-06,3.164768349961378e-05
3.0969498766353354e-05,-4.9337151722284034e-05,2.568893614807166e-05,1.6192099792533554e-05,-1.6828427760628983e-05,4.8033874918473884e-05
2.694456088647712e-05,-4.507903577177785e-05,2.9572613129857928e-05,2.4550452508265153e-05,-3.0222185159800574e-05,6.235377077246085e-05
2.1721358280046843e-05,-4.5560656872112304e-05,3.246264532208443e-05,2.488024256308563e-05,-4.502372394199483e-05,7.244507287396118e-05
1.9502005670801736e-05,-4.850274490308948e-05,3.094124622293748e-05,2.220065289293416e-05,-5.1986044127261266e-05,7.864720828365535e-05
1.8555558199295774e-05,-5.3071500587975606e-05,2.7014950319426134e-05,2.423280784569215e-05,-4.7499124775640666e-05,7.77521199779585e-05
1.8951817764900625e-05,-5.583387610386126e-05,2.695317925827112e-05,2.759678682195954e-05,-3.862200537696481e-05,7.839789032004774e-05
1.804988642106764e-05,-5.6879784096963704e-05,3.027102502528578e-05,2.5246761651942506e-05,-2.9678923965548165e-05,8.250411337940022e-05
1.5197241737041622e-05,-5.687878729077056e-05,3.1170729926088825e-05,2.062716339423787e-05,-2.274257167300675e-05,7.94687366578728e-05
1.3423841664916836e-05,-5.6483946536900476e-05,3.008422390848864e-05,2.311184289283119e-05,-1.8272230590810068e-05,7.313097739825025e-05
1.3873608622816391e-05,-5.528306428459473e-05,2.577003397163935e-05,3.079422458540648e-05,-1.5014187738415785e-05,6.804765871493146e-05
1.5188831639534328e-05,-5.1385777624091133e-05,2.529208177293185e-05,3.514314812491648e-05,-9.15732562134508e-06,6.373783253366128e-05
1.646608507144265e-05,-4.6938497689552605e-05,2.777676854748279e-05,3.4806635085260496e-05,-2.204218162660254e-06,6.083035987103358e-05
1.8407437892165035e-05,-4.542506212601438e-05,2.6763149435282685e-05,3.4397704439470544e-05,3.2399068459199043e-06,6.286813004408032e-05
2.025596404564567e-05,-4.6775967348366976e-05,2.30398236453766e-05,3.81079844373744e-05,8.416375749220606e-06,6.709017179673538e-05
2.1772008039988577e-05,-4.886434180662036e-05,2.2242962586460635e-05,3.940092210541479e-05,1.1540947525645606e-05,6.843618757557124e-05
2.313395270903129e-05,-5.094321386422962e-05,2.3684859115746804e-05,3.6921846913173795e-05,1.0086229849548545e-05,6.804867734899744e-05
2.295473314006813e-05,-5.1344846724532545e-05,2.3868517018854618e-05,3.511077011353336e-05,8.677679034008179e-06,6.941809988347813e-05
2.18556888285093e-05,-5.169703217688948e-05,2.5632387405494228e-05,3.4841672459151596e-05,1.0619112799759023e-05,7.107296551112086e-05
2.0950874386471696e-05,-5.2595223678508773e-05,2.7580128517001867e-05,3.2578980608377606e-05,9.825152119447012e-06,7.028953405097127e-05
2.2689155230182223e-05,-5.320252603269182e-05,2.5890885808621533e-05,3.093890700256452e-05,4.467000962904422e-06,6.734068301739171e-05
2.556544859544374e-05,-5.230505848885514e-05,2.3410369976772927e-05,3.221123915864155e-05,-7.910245471975941e-07,6.520262832054868e-05
2.4833518182276748e-05,-5.048274761065841e-05,2.5036244551301934e-05,3.3857540984172374e-05,-3.189127255609492e-06,6.39396530459635e-05
2.257878441014327e-05,-4.9220427172258496e-05,2.9274324333528057e-05,3.4004471672233194e-05,-4.754134351969697e-06,6.2974460888654e-05
2.2246818843996152e-05,-5.013530972064473e-05,3.190140341757797e-05,3.395332532818429e-05,-7.245702363434248e-06,6.255804328247905e-05
2.1098629076732323e-05,-5.203667387831956e-05,3.167211980326101e-05,3.2424006349174306e-05,-1.1145391908939928e-05,5.5135424190666527e-05
1.8641370843397453e-05,-5.2938568842364475e-05,3.269068110967055e-05,2.8574744646903127e-05,-1.957853601197712e-05,4.5492619392462075e-05
1.8934189938590862e-05,-5.219263766775839e-05,3.213859599782154e-05,2.5383020329172723e-05,-3.060251401620917e-05,4.3612239096546546e-05
1.9018387320102192e-05,-5.189703369978815e-05,3.340621697134338e-05,2.356458207941614e-05,-4.0937913581728935e-05,4.916555553791113e-05
1.5019955753814429e-05,-5.2978095482103527e-05,3.6260396882425994e-05,2.2061862182454206e-05,-4.725141479866579e-05,5.3720381401944906e-05
9.84336293186061e-06,-5.518412945093587e-05,3.457721322774887e-05,2.1144405764061958e-05,-4.42927484982647e-05,6.0013313486706465e-05
6.245243184821447e-06,-5.72627286601346e-05,2.9247426937217824e-05,2.2222875486477278e-05,-3.951890175812878e-05,6.209359708009288e-05
7.085879587975796e-06,-5.660955866915174e-05,2.568733543739654e-05,2.281695560668595e-05,-3.643925811047666e-05,5.794455501018092e-05
1.2409314877004363e-05,-5.4723768698750064e-05,2.8740458219544962e-05,2.0447647330001928e-05,-3.094831481575966e-05,5.612315362668596e-05
1.4807667866989505e-05,-5.390973456087522e-05,3.0944378522690386e-05,1.7695934729999863e-05,-2.3280112145585008e-05,5.559825513046235e-05
1.2680147847277112e-05,-5.54346879653167e-05,3.1573596061207354e-05,2.0764120563399047e-05,-1.5071579582581762e-05,5.544030136661604e-05
1.294595222134376e-05,-5.587926716543734e-05,3.442109300522134e-05,2.4928471248131245e-05,-6.316151484497823e-06,5.325821985024959e-05
1.5781517504365183e-05,-5.2435068937484175e-05,3.6189820093568414e-05,2.2106307369540446e-05,-2.71997123491019e-06,5.012743713450618e-05
1.7144026060122997e-05,-4.877962783211842e-05,3.675159314298071e-05,1.5186013115453534e-05,-5.279931883706013e-06,4.3803629523608834e-05
1.710378819552716e-05,-5.0291175284655765e-05,3.986860247096047e-05,1.354451433144277e-05,-8.138090379361529e-06,3.9249796827789396e-05
1.713174242468085e-05,-5.285285078571178e-05,4.249031553626992e-05,1.6192150724236853e-05,-5.167706149222795e-06,3.712647230713628e-05
1.7114422007580288e-05,-5.247616718406789e-05,3.9772588934283704e-05,1.3873021089239046e-05,1.2502083279741782e-07,3.653457315522246e-05
1.7260899767279625e-05,-4.9450580263510346e-05,3.494485645205714e-05,1.1062773410230875e-05,2.848029907909222e-06,3.8616228266619146e-05
1.7580014173290692e-05,-4.5178428990766406e-05,3.466940324869938e-05,1.7258656953345053e-05,4.11797691413085e-06,4.2251336708432063e-05
1.8602630007080734e-05,-4.188276579952799e-05,4.041948341182433e-05,2.9031038138782606e-05,5.207181857258547e-06,4.466172686079517e-05
2.0812080038012937e-05,-4.051700307172723e-05,4.68386679131072e-05,3.263730104663409e-05,7.249300324474461e-06,4.3451898818602785e-05
2.2062760763219558e-05,-4.158123192610219e-05,4.9000620492734015e-05,2.5381470550200902e-05,8.432929462287575e-06,4.125538907828741e-05
2.1776510038762353e-05,-4.431396155268885e-05,4.7025485400808975e-05,1.5174502550507896e-05,5.918745500821387e-06,4.227634781273082e-05
2.4120017769746482e-05,-4.7842422645771876e-05,4.413236820255406e-05,9.208428309648298e-06,-1.1085310234193457e-06,4.631466799764894e-05
2.915985714935232e-05,-4.881330460193567e-05,4.391490074340254e-05,7.069667390169343e-06,-8.280983820441179e-06,4.7312143578892574e-05
3.232790550100617e-05,-4.607578375726007e-05,4.5723874791292474e-05,6.625140031246701e-06,-9.971613508241717e-06,4.434987931745127e-05
3.0601459002355114e-05,-4.343743421486579e-05,4.439846088644117e-05,9.370555744681042e-06,-6.109857622504933e-06,4.075079414178617e-05
2.7812204280053265e-05,-4.375467688078061e-05,4.136469942750409e-05,1.784171035978943e-05,-4.975915544491727e-06,4.087876732228324e-05
2.7901935027330182e-05,-4.598099258146249e-05,3.982627094956115e-05,3.358121830387972e-05,-5.2552641136571765e-06,4.159727905062027e-05
2.7834559659822844e-05,-4.849646575166844e-05,3.848946653306484e-05,5.508271715370938e-05,-7.34434115656768e-06,4.477525726542808e-05
2.9030612495262176e-05,-4.997582072974183e-05,3.4641016100067645e-05,7.512288721045479e-05,-1.3208195923652966e-05,5.008510561310686e-05
3.101824768236838e-05,-4.674015144701116e-05,3.196217949152924e-05,7.823565101716667e-05,-1.6725107343518175e-05,5.445994611363858e-05
3.50352784153074e-05,-4.337557402323e-05,2.9526549042202532e-05,6.680895603494719e-05,-1.699332642601803e-05,5.777524347649887e-05
3.811457281699404e-05,-4.522528615780175e-05,2.5216597350663505e-05,4.7932862798916176e-05,-1.4902759176038671e-05,6.041160668246448e-05
3.740857937373221e-05,-4.649898983188905e-05,1.9980136130470783e-05,3.254829425713979e-05,-9.599183613318019e-06,6.231822044355795e-05
3.8221394788706675e-05,-4.4776639697374776e-05,1.7131211279775016e-05,2.9025210096733645e-05,-7.731216101092286e-06,6.211920117493719e-05
3.935508357244544e-05,-4.200974581181072e-05,2.0925634089508094e-05,3.245635889470577e-05,-1.0522553566261195e-05,6.192229920998216e-05
3.854488386423327e-05,-4.381931648822501e-05,2.753416083578486e-05,4.3537824240047485e-05,-1.3383345503825694e-05,6.405935710063204e-05
3.5423792724031955e-05,-4.838847235077992e-05,3.0491859433823265e-05,5.9264424635330215e-05,-1.3706810932490043e-05,6.852010119473562e-05
3.0355802664416842e-05,-5.0974493206012994e-05,2.9030010409769602e-05,7.15910064172931e-05,-1.2040564797644038e-05,7.075506437104195e-05
2.413255970168393e-05,-5.139736822457053e-05,2.86566046270309e-05,7.169320451794192e-05,-1.0685987945180386e-05,7.38885864848271e-05
1.802196493372321e-05,-5.027547376812436e-05,2.827386742865201e-05,6.193482840899378e-05,-9.045894330483861e-06,8.108728070510551e-05
1.443942073819926e-05,-5.004464401281439e-05,2.809711077134125e-05,4.8397410864708945e-05,-5.460003194457386e-06,8.97738354979083e-05
1.5268917195498943e-05,-5.091552156955004e-05,2.693351052585058e-05,3.863513848045841e-05,-3.909502083843108e-06,9.346015576738864e-05
1.7088314052671194e-05,-5.282632992020808e-05,2.56007733696606e-05,3.555555667844601e-05,-7.247147095768014e-06,8.816050103632733e-05
1.5488780263694935e-05,-5.393759420257993e-05,2.594282887002919e-05,3.5354907595319673e-05,-1.0697352081479039e-05,7.846007792977616e-05
1.2730316484521609e-05,-5.345699901226908e-05,2.7828116799355485e-05,3.256911804783158e-05,-1.1357922630850226e-05,6.821579881943762e-05
1.3629010936710984e-05,-5.394399704528041e-05,2.984090860991273e-05,2.7800906536867842e-05,-1.1243452718190383e-05,5.882692494196817e-05
1.7664662664174102e-05,-5.554970630328171e-05,3.1692867196397856e-05,2.550108911236748e-05,-1.1956689377257135e-05,5.230391980148852e-05
2.2184472982189618e-05,-5.571193833020516e-05,3.3560350857442245e-05,2.436760041746311e-05,-1.2534861525637098e-05,5.1185317715862766e-05
2.560078792157583e-05,-5.4218842706177384e-05,3.4640030207810923e-05,2.483093885530252e-05,-1.2952054930792656e-05,5.42695343028754e-05
2.5302999347331934e-05,-5.1772152801277116e-05,3.51524940924719e-05,2.8344635211396962e-05,-1.2587692253873684e-05,5.483455242938362e-05
2.3791264538886026e-05,-5.0458194891689345e-05,3.417377592995763e-05,3.028390528925229e-05,-1.3324178326001856e-05,5.1318038458703086e-05
2.5247411031159572e-05,-5.221653191256337e-05,3.179496343364008e-05,2.6852116207010113e-05,-1.4985231246100739e-05,5.025299469707534e-05
2.6820665880222805e-05,-5.299632539390586e-05,2.9146680390113033e-05,2.6817509933607653e-05,-1.521305603091605e-05,5.1397521019680426e-05
2.3965763830346987e-05,-4.825981523026712e-05,2.7771873646997847e-05,3.226626358809881e-05,-1.4864757758914493e-05,4.739163341582753e-05
1.935958607646171e-05,-4.4042637455277145e-05,2.5129895220743492e-05,3.531670881784521e-05,-1.3129681974533014e-05,3.79362863895949e-05
2.008800584007986e-05,-4.449494372238405e-05,2.4313088943017647e-05,3.260268204030581e-05,-1.2153484021837357e-05,3.093691339017823e-05
2.357529228902422e-05,-4.5053064241074026e-05,2.7429734473116696e-05,2.6657851776690222e-05,-1.5961542885634117e-05,3.299156014691107e-05
2.76537084573647e-05,-4.3053576519014314e-05,2.9441462174872868e-05,2.034174212894868e-05,-1.53909859363921e-05,3.95971437683329e-05
3.0211178454919718e-05,-4.3724194256355986e-05,2.61824516201159e-05,1.8179582184529863e-05,-8.495305337419268e-06,4.449774496606551e-05
2.7832704290631227e-05,-4.560391607810743e-05,1.991707358683925e-05,1.8229482520837337e-05,-5.4525257837667596e-06,4.774000626639463e-05
2.4746574126766063e-05,-4.503634772845544e-05,2.0084684365428984e-05,1.8278091374668293e-05,-9.521437277726363e-06,4.790403545484878e-05
2.2790127331973054e-05,-4.461095159058459e-05,2.4014676455408335e-05,1.676905230851844e-05,-1.6937716281972826e-05,4.985654595657252e-05
2.252777267131023e-05,-4.3999720219289884e-05,2.6647121558198705e-05,1.7022888641804457e-05,-2.3379707272397354e-05,5.295248774928041e-05
2.4893304725992493e-05,-4.6461329475278035e-05,2.932326606241986e-05,2.350370959902648e-05,-2.2007689040037803e-05,5.4295695008477196e-05
2.8238071536179632e-05,-5.1389579311944544e-05,3.091217513429001e-05,3.063954500248656e-05,-1.6069381672423333e-05,5.284663347993046e-05
2.6979461836162955e-05,-5.32458107045386e-05,3.27681154885795e-05,3.570430999388918e-05,-1.3084735655866098e-05,5.1955012168036774e-05
2.256800144095905e-05,-5.1262522902106866e-05,3.2297652069246396e-05,3.842734076897614e-05,-1.3710812709177844e-05,5.53812351427041e-05
1.9171984604327008e-05,-5.004216654924676e-05,3.238991484977305e-05,3.902047319570556e-05,-1.4884950360283256e-05,6.027213021297939e-05
1.8864890080294572e-05,-4.970901500200853e-05,3.5306296922499314e-05,3.704416303662583e-05,-1.3458739886118565e-05,6.47758788545616e-05
2.0502191546256654e-05,-5.0460992497392e-05,3.81802128686104e-05,3.5066161217400804e-05,-1.1947030543524306e-05,6.801440758863464e-05
2.1191075575188734e-05,-5.186295311432332e-05,3.7613921449519694e-05,3.48796856997069e-05,-1.1545927918632515e-05,7.260624261107296e-05
1.841468838392757e-05,-5.185465488466434e-05,3.6184628697810695e-05,3.516479046083987e-05,-1.3821407264913432e-05,8.055751823121682e-05
1.2683355635090265e-05,-5.241735925665125e-05,3.740334068425e-05,3.339418981340714e-05,-1.567496838106308e-05,8.7058222561609e-05
1.0618267879181076e-05,-5.3344974730862305e-05,3.879239739035256e-05,3.215373362763785e-05,-1.291628086619312e-05,8.575271931476891e-05
1.4690650459669996e-05,-5.39181892236229e-05,3.742641638382338e-05,3.2615094823995605e-05,-7.878825272200629e-06,7.99636181909591e-05
2.1662810468114913e-05,-5.567336120293476e-05,3.444719550316222e-05,3.24220527545549e-05,-6.031371412973385e-06,7.590559835080057e-05
2.4108174329739995e-05,-5.752350625698455e-05,3.1381106964545324e-05,3.464477777015418e-05,-7.058643404889153e-06,7.679468399146572e-05
1.904652890516445e-05,-5.839555888087489e-05,2.9272785468492657e-05,3.9116537664085627e-05,-7.865625775593799e-06,8.071090269368142e-05
1.3935653441876639e-05,-6.054665573174134e-05,2.9937429644633085e-05,4.124974657315761e-05,-8.302264177473262e-06,8.169760258169845e-05
1.4019760783412494e-05,-6.248577847145498e-05,3.0462322683888488e-05,3.9026625017868355e-05,-8.27127860247856e-06,7.570020534330979e-05
1.5025349966890644e-05,-6.0760139604099095e-05,3.0110621082712896e-05,3.630572246038355e-05,-6.238099558686372e-06,6.598565232707188e-05
1.767633148119785e-05,-5.608385254163295e-05,2.748973565758206e-05,3.246142659918405e-05,-1.8127689145330805e-06,5.285173756419681e-05
1.9368077118997462e-05,-5.226290522841737e-05,2.607991518743802e-05,2.452294938848354e-05,3.9311580621870235e-06,4.1235216485802084e-05
1.67321995832026e-05,-5.2943611080991104e-05,2.848070471372921e-05,1.826499828894157e-05,7.228077720355941e-06,3.51214075635653e-05
1.310933475906495e-05,-5.5818643886595964e-05,3.309378735139035e-05,1.735094701871276e-05,7.402713436022168e-06,3.273678885307163e-05
8.567128134018276e-06,-5.862725811311975e-05,3.422120789764449e-05,1.8330694729229435e-05,4.3128607103426475e-06,3.28218775393907e-05
6.534511612699134e-06,-5.726813105866313e-05,3.144229049212299e-05,1.529091787233483e-05,1.0300248050043592e-06,3.659148933365941e-05
8.087172318482772e-06,-5.250055983196944e-05,3.10818686557468e-05,6.707461579935625e-06,-1.5776756754348753e-06,4.582195833791047e-05
1.1737241038645152e-05,-5.068702012067661e-05,3.351468330947682e-05,-4.430768512975192e-06,-3.899589046341134e-06,5.5151289416244254e-05
1.3072071851638611e-05,-4.941325823892839e-05,3.430623110034503e-05,-1.3150206541467924e-05,-2.996488774442696e-06,5.730409247917123e-05
1.0552294952503871e-05,-4.9042726459447294e-05,3.1523770303465426e-05,-1.0030791600001976e-05,-2.558065943958354e-06,5.4486019507749006e-05
8.261507900897413e-06,-4.724192331195809e-05,2.9604365408886224e-05,7.641662705282215e-06,-4.194377652311232e-06,5.342151416698471e-05
7.669373189855833e-06,-4.558480213745497e-05,3.0473222068394534e-05,2.4226406821981072e-05,-6.953780484764138e-06,5.51452612853609e-05
1.0009108336817008e-05,-4.4135089410701767e-05,3.228318382753059e-05,2.435106216580607e-05,-6.1123460000089835e-06,6.143874634290114e-05
1.4286184523371048e-05,-4.2144969484070316e-05,3.36827797582373e-05,1.4328603356261738e-05,-4.5522465370595455e-06,6.630762800341472e-05
1.99820951820584e-05,-4.129792796447873e-05,3.5480708902468905e-05,6.307445801212452e-06,-6.149914952402469e-06,6.633678276557475e-05
2.551052239141427e-05,-4.322586391936056e-05,3.685422780108638e-05,3.3031585644494044e-06,-9.878217497316655e-06,6.40207581454888e-05
2.8760259738191962e-05,-4.6168279368430376e-05,3.712938632816076e-05,4.08549976782524e-06,-1.2834510016546119e-05,5.957276880508289e-05
2.8984195523662493e-05,-4.589453601511195e-05,3.659542198874988e-05,9.558879355608951e-06,-1.4401383850781713e-05,5.5190517741721123e-05
2.7480007702251896e-05,-4.307720155338757e-05,3.487003414193168e-05,1.7014637705869973e-05,-1.4697773622174282e-05,5.542944563785568e-05
2.599733488750644e-05,-4.119484583497979e-05,3.290069071226753e-05,2.1817098968313076e-05,-1.3226504051999655e-05,6.266325362958014e-05
2.8710086553473957e-05,-4.3296113290125504e-05,3.4172953746747226e-05,3.0109655199339613e-05,-1.1413615538913291e-05,6.694642797810957e-05
3.241874583181925e-05,-4.501532748690806e-05,3.7532561691477895e-05,5.212281394051388e-05,-9.49985405895859e-06,6.383724394254386e-05
2.9159071345929988e-05,-4.320914013078436e-05,3.828174885711633e-05,8.15322928247042e-05,-7.1283875513472594e-06,6.45730979158543e-05
2.2843540136818774e-05,-4.142443503951654e-05,3.940453825634904e-05,9.619132470106706e-05,-5.545495696424041e-06,6.994223076617345e-05
2.075748852803372e-05,-4.33002678619232e-05,4.176970469416119e-05,9.075849084183574e-05,-7.705594725848641e-06,7.351761450991035e-05
2.113604568876326e-05,-4.813728082808666e-05,4.486258330871351e-05,7.519524660892785e-05,-7.725638170086313e-06,7.28718368918635e-05
2.046738882199861e-05,-5.208096990827471e-05,4.4778829760616645e-05,5.566945401369594e-05,-4.74355829283013e-06,7.034206646494567e-05
1.9863893612637185e-05,-5.1995928515680134e-05,4.048941991641186e-05,4.0483901102561504e-05,-3.7177321701165056e-06,7.156055653467774e-05
1.7171671061078086e-05,-5.033793058828451e-05,3.9239213947439566e-05,3.313529668957926e-05,-4.253836777934339e-06,7.466509123332798e-05
1.0375419151387177e-05,-4.671271744882688e-05,3.820937126874924e-05,2.992211011587642e-05,-2.790535972962971e-06,7.281167927430943e-05
6.447781743190717e-06,-4.479726339923218e-05,3.854156966554001e-05,2.748994120338466e-05,-3.1227555155055597e-06,6.66878477204591e-05
5.517872068594443e-06,-4.5672150008613244e-05,3.793261566897854e-05,2.6845833417610265e-05,-4.575651018967619e-06,6.014226528350264e-05
4.779060418513836e-06,-4.781751340487972e-05,3.3944816095754504e-05,2.5931953132385388e-05,-2.6585137220536126e-06,5.174355464987457e-05
6.883112746436382e-06,-5.055285510024987e-05,3.0178103770595044e-05,2.3709795641480014e-05,-5.642962150886888e-06,4.785665441886522e-05
7.611992259626277e-06,-5.237785808276385e-05,2.432443216093816e-05,2.358432720939163e-05,-1.0967075468215626e-05,4.989332228433341e-05
6.667120032943785e-06,-5.141931615071371e-05,2.212427898484748e-05,2.7295222025713883e-05,-1.3733985724684317e-05,5.154930840944871e-05
6.560580914083403e-06,-4.7954592446330935e-05,2.550706994952634e-05,2.9449576686602086e-05,-1.331066323473351e-05,5.270612018648535e-05
7.348497092607431e-06,-4.5663466153200716e-05,3.052736428799108e-05,2.746634345385246e-05,-9.952300388249569e-06,5.4366933909477666e-05
7.137296506698476e-06,-4.6434510295512155e-05,3.407617623452097e-05,2.443611629132647e-05,-8.40946267999243e-06,5.6384626077488065e-05
7.766460839775391e-06,-4.736574555863626e-05,3.593062501749955e-05,2.2666057702735998e-05,-9.731625141284894e-06,5.80544256081339e-05
8.712114322406705e-06,-4.697800977737643e-05,3.661427763290703e-05,2.4902677978388965e-05,-1.1299619472993072e-05,5.9617239458020777e-05
8.756143870414235e-06,-4.8634596168994904e-05,3.552413181751035e-05,2.5971601644414477e-05,-1.0763114914880134e-05,6.0496848163893446e-05
8.55533653520979e-06,-5.220362436375581e-05,3.2622650905977935e-05,2.54605220106896e-05,-9.43745908443816e-06,5.960029739071615e-05
1.0348933756176848e-05,-5.3683481382904574e-05,3.010957152582705e-05,2.3586058887303807e-05,-8.1126827353728e-06,5.732065255870111e-05
1.5362533304141834e-05,-5.3159525123192e-05,3.0219374821172096e-05,2.0126140952925198e-05,-7.759711479593534e-06,5.925563527853228e-05
2.0254068658687174e-05,-5.379441790864803e-05,3.0958475690567866e-05,1.7900967577588744e-05,-8.858130058797542e-06,6.495699926745147e-05
2.084835068671964e-05,-5.44656504644081e-05,3.085282151005231e-05,1.8578924937173724e-05,-1.2228876585140824e-05,6.89229418640025e-05
1.6299289200105704e-05,-5.320782292983495e-05,3.010548789461609e-05,2.0086203221580945e-05,-1.700462235021405e-05,6.885241600684822e-05
1.073532894224627e-05,-5.0360526074655354e-05,3.07554510072805e-05,2.1252100850688294e-05,-2.686648440430872e-05,6.649023271165788e-05
1.0575213309493847e-05,-4.9797719839261845e-05,3.186457252013497e-05,2.1499266949831508e-05,-4.232310311635956e-05,6.464261241490021e-05
1.508747118350584e-05,-5.082492862129584e-05,3.1651663448428735e-05,2.0437411876628175e-05,-5.776178659289144e-05,6.366508750943467e-05
1.9360542864887975e-05,-5.167038398212753e-05,3.0134746339172125e-05,2.1329229639377445e-05,-6.975253199925646e-05,6.258653593249619e-05
2.3910606614663266e-05,-5.1733903092099354e-05,2.853527621482499e-05,2.458944800309837e-05,-7.419913890771568e-05,6.0400441725505516e-05
2.6281006284989417e-05,-4.9028640205506235e-05,2.783932359307073e-05,2.989456697832793e-05,-7.319675205508247e-05,5.556729229283519e-05
2.5474009817116894e-05,-4.8061843699542806e-05,2.7262058210908435e-05,3.390310303075239e-05,-6.879620195832103e-05,5.055685687693767e-05
2.4355260393349454e-05,-5.144842725712806e-05,2.712930836423766e-05,3.564418148016557e-05,-5.783911547041498e-05,4.673972580349073e-05
2.7392361516831443e-05,-5.108119148644619e-05,2.7246016543358564e-05,3.835164170595817e-05,-3.753721102839336e-05,4.929150236421265e-05
3.10704272123985e-05,-4.9067104555433616e-05,2.767630576272495e-05,3.714153717737645e-05,-7.09629011907964e-06,5.562551086768508e-05
3.0924591555958614e-05,-4.934120079269633e-05,2.771663093881216e-05,2.8092326829209924e-05,2.6715953936218284e-05,5.857373253093101e-05
2.643471088958904e-05,-4.882985376752913e-05,2.618225698824972e-05,1.829340726544615e-05,5.639838127535768e-05,6.611402932321653e-05
2.4190436306525953e-05,-4.536654523690231e-05,2.6044142941827886e-05,1.7654048861004412e-05,7.695682143094018e-05,6.85995546518825e-05
2.7246715035289526e-05,-4.388803063193336e-05,2.8030464818584733e-05,2.5715362426126376e-05,8.538211113773286e-05,6.351334013743326e-05
2.993530870298855e-05,-4.86318749608472e-05,2.8774877137038857e-05,3.604562152759172e-05,7.974536856636405e-05,5.957244866294786e-05
3.0152787076076493e-05,-5.322808647179045e-05,2.680458601389546e-05,4.311980228521861e-05,6.482948083430529e-05,5.646711360896006e-05
2.964367376989685e-05,-5.4409440053859726e-05,2.3143002181313932e-05,4.229596015647985e-05,4.9682275857776403e-05,5.517777390195988e-05
2.9751809051958844e-05,-5.234353011474013e-05,2.0294868591008708e-05,3.634652239270508e-05,3.5984096030006185e-05,5.7406676205573604e-05
3.087602090090513e-05,-5.101154602016322e-05,2.1919353457633406e-05,3.079232919844799e-05,2.2443757188739255e-05,6.054507684893906e-05
3.4175580367445946e-05,-5.120450077811256e-05,2.511329876142554e-05,2.7731019144994207e-05,9.433325431018602e-06,6.0413003666326404e-05
3.745589128811844e-05,-4.985239866073243e-05,2.6522531697992235e-05,2.6844376407098025e-05,-2.2963276933296584e-06,5.723221693187952e-05
3.751675831153989e-05,-4.7772198740858585e-05,2.6249019356328063e-05,2.825633782777004e-05,-1.2210900422360282e-05,5.368125130189583e-05
3.3519521821290255e-05,-4.742744567920454e-05,2.68687817879254e-05,2.9498263756977394e-05,-1.784000596671831e-05,5.5291089665843174e-05
2.8635287890210748e-05,-4.839698885916732e-05,2.9407865440589376e-05,2.7247526304563507e-05,-2.1329695300664753e-05,6.143916107248515e-05
2.6924217308987863e-05,-5.043478813604452e-05,3.127800300717354e-05,2.4330602172994986e-05,-2.560763095971197e-05,6.691160524496809e-05
2.772624975477811e-05,-5.3293013479560614e-05,3.139635737170465e-05,2.4795070203254e-05,-2.9588745746877976e-05,6.994447903707623e-05
2.7919710191781633e-05,-5.505363515112549e-05,3.071851097047329e-05,2.7848569516208954e-05,-3.17255689878948e-05,7.166223804233596e-05
2.8813690732931718e-05,-5.316626265994273e-05,3.0258044716902077e-05,3.079531961702742e-05,-3.5888766433345154e-05,7.199490210041404e-05
2.865204805857502e-05,-5.01266767969355e-05,3.0297293051262386e-05,3.132154597551562e-05,-4.314183388487436e-05,7.132333121262491e-05
2.5959539925679564e-05,-5.076686284155585e-05,3.1452709663426504e-05,2.7519205104908906e-05,-4.724875543615781e-05,6.984253559494391e-05
2.5692046619951725e-05,-5.314547524903901e-05,3.470389128779061e-05,1.6409732779720798e-05,-4.4864991650683805e-05,6.730505992891267e-05
2.9948894734843634e-05,-5.312474968377501e-05,3.842946171062067e-05,7.179161912063137e-06,-3.9884318539407104e-05,6.187013786984608e-05
3.19301470881328e-05,-4.886208989773877e-05,4.070590512128547e-05,1.1774054655688815e-05,-3.8496291381306946e-05,5.242320185061544e-05
2.999076241394505e-05,-4.570820237859152e-05,4.085536056663841e-05,2.4826293156365864e-05,-3.9939906855579466e-05,4.515581167652272e-05
2.8628077416215092e-05,-4.618553793989122e-05,3.611421925597824e-05,3.734487108886242e-05,-3.622897929744795e-05,4.511685619945638e-05
3.1776304240338504e-05,-4.561408786685206e-05,3.18136480927933e-05,4.1819399484666064e-05,-2.6736544896266423e-05,4.881513086729683e-05
3.3076503314077854e-05,-4.4046770199202e-05,3.175010351696983e-05,4.427152089192532e-05,-1.79355211002985e-05,4.884829468210228e-05
2.9074764825054444e-05,-4.3754440412158147e-05,3.3262160286540166e-05,5.1795395847875625e-05,-1.2359675565676298e-05,4.339863880886696e-05
2.8506612579803914e-05,-4.4077063648728654e-05,3.2913110771914944e-05,5.057028101873584e-05,-9.985446922655683e-06,4.177557639195584e-05
3.0442375646089204e-05,-4.510752114583738e-05,3.264757106080651e-05,3.807921166298911e-05,-6.253523679333739e-06,4.3580941564869136e-05
2.9586308301077224e-05,-4.576857827487402e-05,3.371792990947142e-05,1.8921557057183236e-05,-2.3058421447785804e-06,4.237316898070276e-05
2.56976254604524e-05,-4.517210982157849e-05,3.256916534155607e-05,6.314040547295008e-06,-3.5020818813791266e-06,3.577461393433623e-05
2.3301990950130858e-05,-4.5366003178060055e-05,2.9003402232774533e-05,9.102884177991655e-06,-6.2346771301236e-06,2.6508736482355744e-05
2.317951657460071e-05,-4.783794065588154e-05,2.6656774934963323e-05,1.8173466742155142e-05,-8.418469406024087e-06,2.538761509640608e-05
2.6097261070390232e-05,-4.775383786181919e-05,2.8609929358935915e-05,2.235651481896639e-05,-7.802796062605921e-06,3.570036278688349e-05
2.925892113125883e-05,-4.488905688049272e-05,3.294236012152396e-05,1.53160908666905e-05,-3.0701266950927675e-06,4.624430221156217e-05
2.9423361411318183e-05,-4.4284737668931484e-05,3.5488214052747935e-05,4.141264525969746e-06,2.7555370252230205e-06,4.575787534122355e-05
2.851177123375237e-05,-4.648946560337208e-05,3.490285234875046e-05,-2.3261520709638717e-06,5.827270797453821e-06,4.1555496864020824e-05
2.9526518119382672e-05,-4.8569258069619536e-05,3.516643482726067e-05,-4.215673470753245e-06,6.354416200338164e-06,4.3827283661812544e-05
3.056823697988875e-05,-4.981912934454158e-05,3.523696796037257e-05,-1.1266268302279059e-05,5.897730261494871e-06,5.12384795001708e-05
2.9932047254987992e-05,-5.0579783419379964e-05,3.3730735594872385e-05,-2.2034617359167896e-05,5.3869789553573355e-06,5.587857594946399e-05
2.9077249564579688e-05,-5.024857819080353e-05,3.160897540510632e-05,-2.2010952307027765e-05,4.099090347153833e-06,5.194556433707476e-05
2.832574500644114e-05,-4.98487388540525e-05,2.9190832719905302e-05,-4.486282250582008e-06,-5.2565178521035705e-06,4.28937200922519e-05
2.584243156888988e-05,-4.8255573346978053e-05,2.8194044716656208e-05,1.737049751682207e-05,-2.3057753423927352e-05,3.511730028549209e-05
2.2690986952511594e-05,-4.54857581644319e-05,2.9713915864704177e-05,3.150329212076031e-05,-3.7919315218459815e-05,3.165697125950828e-05
2.26493866648525e-05,-4.682135840994306e-05,3.215313336113468e-05,3.520418977132067e-05,-4.235291271470487e-05,3.362748248036951e-05
2.489822327333968e-05,-5.221546598477289e-05,3.457517232163809e-05,3.176458994857967e-05,-3.724120688275434e-05,4.282077861716971e-05
2.8789650968974456e-05,-5.4500644182553515e-05,3.801531420322135e-05,2.9422455554595217e-05,-2.429072992526926e-05,5.5885891924845055e-05
3.180883140885271e-05,-5.362230513128452e-05,3.6875488149235025e-05,3.1657167710363865e-05,-1.0996191122103482e-05,6.29205460427329e-05
3.3153981348732486e-05,-5.392215462052263e-05,3.138301326544024e-05,4.082998202648014e-05,-2.7196770133741666e-06,6.543530616909266e-05
3.174318408127874e-05,-5.5710490414639935e-05,2.982248224725481e-05,5.38424174010288e-05,2.0219933958287584e-06,6.829241465311497e-05
3.110870602540672e-05,-5.3733529057353735e-05,3.0220118787838146e-05,7.155241473810747e-05,7.222838576126378e-06,6.720657256664708e-05
3.297313742223196e-05,-4.947443449054845e-05,3.1304149160860106e-05,8.596068801125512e-05,1.0909780939982738e-05,6.314813072094694e-05
3.2318032026523724e-05,-4.452843131730333e-05,3.1727242458146065e-05,8.138400880852714e-05,1.1897006515937392e-05,6.658981874352321e-05
3.0099308787612244e-05,-4.225852535455488e-05,3.1659994419896975e-05,6.634811143158004e-05,1.4466126231127419e-05,7.205247675301507e-05
2.819340443238616e-05,-4.4925371184945107e-05,3.205382017767988e-05,5.513780706678517e-05,1.4583927622879855e-05,7.214035576907918e-05
2.754829438345041e-05,-4.8354668251704425e-05,3.24543725582771e-05,5.305725062498823e-05,9.860708814812824e-06,7.03779369359836e-05
2.9175260351621546e-05,-5.0851191190304235e-05,3.2418902264907956e-05,4.975738556822762e-05,4.17293358623283e-06,6.5662432461977e-05
2.7579091693041846e-05,-5.050158506492153e-05,3.2095409551402554e-05,4.399619501782581e-05,-1.2646057712117909e-06,6.270974699873477e-05
2.4771998141659424e-05,-4.914632881991565e-05,3.237514101783745e-05,4.011661440017633e-05,-3.5374559956835583e-06,6.332697375910357e-05
2.4796283469186164e-05,-4.86725548398681e-05,3.168855619151145e-05,3.705701237777248e-05,-3.4333729672653135e-06,6.380783452186733e-05
2.8266482331673615e-05,-4.849827746511437e-05,3.2050662412075326e-05,3.690476296469569e-05,-4.128228738409234e-06,6.48175846436061e-05
3.064371048822068e-05,-4.986206840840168e-05,3.2791784178698435e-05,3.786769593716599e-05,-6.220443083293503e-06,6.948380905669183e-05
2.7907666662940755e-05,-5.364411117625423e-05,3.497624857118353e-05,3.646191180450842e-05,-9.368816790811252e-06,7.426401862176135e-05
2.4346074496861547e-05,-5.514726581168361e-05,3.5402867069933563e-05,3.216896584490314e-05,-1.2386110029183328e-05,7.63599164201878e-05
2.3389737179968506e-05,-5.297189636621624e-05,3.371619095560163e-05,3.0596202122978866e-05,-1.4662631656392477e-05,7.502015796490014e-05
2.412901994830463e-05,-5.1377821364440024e-05,3.191698488080874e-05,2.9888335120631382e-05,-1.6305577446473762e-05,7.161869871197268e-05
2.3513002815889195e-05,-5.181579035706818e-05,3.33708812831901e-05,2.716168819461018e-05,-1.7522683265269734e-05,6.919187580933794e-05
2.1014135199948214e-05,-5.139249697094783e-05,3.7003541365265846e-05,2.64346381300129e-05,-1.5793388229212724e-05,6.74010079819709e-05
1.870714913820848e-05,-4.755161717184819e-05,3.8985108403721824e-05,3.373848448973149e-05,-1.2525238162197638e-05,6.357913662213832e-05
1.8227248801849782e-05,-4.456400711205788e-05,3.9659418689552695e-05,4.103690662304871e-05,-1.1443952644185629e-05,6.104768544901162e-05
1.6832809706102125e-05,-4.6089495299384e-05,4.062843072460964e-05,3.934657070203684e-05,-1.2219886230013799e-05,6.71617963234894e-05
1.4370763892657124e-05,-4.695575626101345e-05,4.099144280189648e-05,3.109053068328649e-05,-1.3592917639471125e-05,7.245234883157536e-05
1.3467078133544419e-05,-4.4860353227704763e-05,3.883291719830595e-05,2.6216825062874705e-05,-1.3109631254337728e-05,6.721749377902597e-05
1.6033869542297907e-05,-4.355509008746594e-05,3.587836545193568e-05,2.616778510855511e-05,-8.195121154130902e-06,5.908080129302107e-05
1.9134597096126527e-05,-4.487146725296043e-05,3.342822674312629e-05,2.3231505110743456e-05,-1.854282345448155e-06,5.601152588496916e-05
1.8545288185123354e-05,-4.590174648910761e-05,3.1971332646207884e-05,1.4846788872091565e-05,7.224521709758847e-07,5.845705891260877e-05
1.9021737898583524e-05,-4.3885698687518016e-05,3.025669684575405e-05,7.8449529610225e-06,-3.7359047837526305e-06,5.9935995523119345e-05
2.444098390697036e-05,-4.314351826906204e-05,2.93197972496273e-05,5.891265118407318e-06,-1.1792508303187788e-05,5.873512782272883e-05
2.7400632461649366e-05,-4.45484729425516e-05,3.076323991990648e-05,1.2740916645270772e-05,-1.544130645925179e-05,6.0418467910494655e-05
2.7265652533969842e-05,-4.601299951900728e-05,3.10039940814022e-05,2.5116913093370385e-05,-1.7730289982864633e-05,6.0178634157637134e-05
2.256407060485799e-05,-4.774407352670096e-05,2.6129713660338894e-05,2.7856624001287855e-05,-2.166313242923934e-05,6.176991882966831e-05
1.5964153135428205e-05,-4.8532219807384536e-05,2.300071901117917e-05,2.3796690584276803e-05,-2.193311956943944e-05,6.817954999860376e-05
1.6333515304722823e-05,-4.869805707130581e-05,2.526565185689833e-05,1.9377224816707894e-05,-1.8956625353894196e-05,7.149644807213917e-05
2.0927749574184418e-05,-4.7766505304025486e-05,3.041158925043419e-05,1.7076161384466104e-05,-1.710839023871813e-05,7.3364564741496e-05
2.4763887267909013e-05,-4.768597864313051e-05,3.3884509321069345e-05,1.7224389011971653e-05,-1.9392820831853896e-05,7.965078111737967e-05
2.630758535815403e-05,-4.9113463319372386e-05,3.520140307955444e-05,1.9127021005260758e-05,-1.9941087884944864e-05,8.657783473609015e-05
2.4400262191193178e-05,-5.0439008191460744e-05,3.519924575812183e-05,2.0186846086289734e-05,-1.801625512598548e-05,8.37731859064661e-05
2.0543910068226978e-05,-5.126050746184774e-05,3.347149322507903e-05,2.1934998585493304e-05,-1.6244692233158275e-05,6.936217687325552e-05
1.846044324338436e-05,-5.0304595788475126e-05,2.839416811184492e-05,2.6973777494276874e-05,-1.2135609722463414e-05,4.8537061957176775e-05
1.923180025187321e-05,-4.903068838757463e-05,2.35562001762446e-05,3.345277946209535e-05,-3.942940111301141e-06,3.1182338716462255e-05
1.886066274892073e-05,-5.0458744226489216e-05,2.4519724320271052e-05,3.794124859268777e-05,5.290051376505289e-06,2.204759221058339e-05
1.4716787518409546e-05,-5.378873902373016e-05,3.0424005672102794e-05,3.971263504354283e-05,8.819656613923144e-06,1.9260904082329944e-05
1.2077667634002864e-05,-5.3837604355067015e-05,3.4720698749879375e-05,3.871093940688297e-05,5.410167432273738e-06,2.0534382201731205e-05
1.3043453691352624e-05,-4.9260346713708714e-05,3.661733353510499e-05,3.534744610078633e-05,1.1667408017501657e-07,2.962245162052568e-05
1.5386833183583803e-05,-4.595978316501714e-05,3.937606015824713e-05,3.2577067031525075e-05,-2.5846215976343956e-06,4.3060856114607304e-05
1.7133237633970566e-05,-4.829787212656811e-05,4.093904863111675e-05,3.1327766919275746e-05,-4.536151664069621e-06,4.75810666102916e-05
1.523158516647527e-05,-5.072316344012506e-05,3.929988815798424e-05,3.164073859807104e-05,-8.578112101531588e-06,4.477508264244534e-05
9.642501936468761e-06,-5.021582910558209e-05,3.490057497401722e-05,3.399270644877106e-05,-1.3384095836954657e-05,4.8951424105325714e-05
6.502897122118156e-06,-4.8851812607608736e-05,3.00498850265285e-05,3.606862446758896e-05,-1.5724079275969416e-05,6.342461711028591e-05
6.0766269598389044e-06,-4.905917012365535e-05,2.6361632990301587e-05,3.3557134884176776e-05,-1.8355081920162775e-05,7.809420640114695e-05
7.136250133044086e-06,-5.2093520935159177e-05,2.436388240312226e-05,3.05359935737215e-05,-1.938893365149852e-05,8.512478962074965e-05
6.958895482966909e-06,-5.374909960664809e-05,2.0674035113188438e-05,3.1504358048550785e-05,-1.7859467334346846e-05,8.286658703582361e-05
1.0318304930478917e-06,-5.170574149815366e-05,1.8669683413463645e-05,3.389139237697236e-05,-1.7901942555909045e-05,7.791615644237027e-05
-3.067529632971855e-06,-5.107234755996615e-05,2.2645343051408418e-05,3.42302919307258e-05,-2.0195409888401628e-05,7.09832675056532e-05
1.0363596629758831e-06,-5.188934665056877e-05,2.6481911845621653e-05,3.338800524943508e-05,-1.8705346519709565e-05,5.970611528027803e-05
8.859768968250137e-06,-4.960704245604575e-05,2.793127714539878e-05,2.5086903406190686e-05,-1.294175126531627e-05,5.0183221901534125e-05
1.443837936676573e-05,-4.893962250207551e-05,2.9962160624563694e-05,1.0544992619543336e-05,-1.2712903298961464e-05,5.084780423203483e-05
1.5278737919288687e-05,-4.93603220093064e-05,3.1041676265886053e-05,4.86464432469802e-06,-1.2858571608376224e-05,6.117233715485781e-05
1.25158821902005e-05,-5.1250630349386483e-05,2.8815549740102142e-05,9.122694791585673e-06,-1.0165863386646379e-05,6.65348197799176e-05
1.4398490748135373e-05,-5.488046008395031e-05,2.5209565137629397e-05,1.5807481759111397e-05,-8.125397471303586e-06,6.513419066322967e-05
2.0896004571113735e-05,-5.7548626500647515e-05,2.407579631835688e-05,2.191168641729746e-05,-7.415619165840326e-06,6.441969890147448e-05
2.46168056037277e-05,-5.749002957600169e-05,2.6334479116485454e-05,2.827168100338895e-05,-8.326002898684237e-06,6.550255784532055e-05
2.658969970070757e-05,-5.4906711739022285e-05,3.0339168006321415e-05,3.179970372002572e-05,-7.87941553426208e-06,6.566728552570567e-05
2.7212132408749312e-05,-5.487186717800796e-05,3.151069540763274e-05,3.321549229440279e-05,-6.627194579778006e-06,6.110232061473653e-05
2.7351954486221075e-05,-5.6110755394911394e-05,3.140405533486046e-05,3.808343899436295e-05,-5.783043889096007e-06,5.349548882804811e-05
2.8406000637914985e-05,-5.6765162298688665e-05,3.187743277521804e-05,3.9544072933495045e-05,-7.659206858079415e-06,4.5056091039441526e-05
2.984078491863329e-05,-5.4954045481281355e-05,3.227147681172937e-05,3.494093471090309e-05,-8.885669558367226e-06,4.200799958198331e-05
3.0410497856792063e-05,-4.9321701226290315e-05,3.187675611115992e-05,2.7737934942706488e-05,-8.285417607112322e-06,4.374974378151819e-05
2.93741231871536e-05,-4.317693310440518e-05,3.1338600820163265e-05,2.2079260816099122e-05,-6.9048423938511405e-06,4.5099484850652516e-05
2.6581545171211474e-05,-4.1731360397534445e-05,2.9050637749605812e-05,2.0666993805207312e-05,-5.461887212732108e-06,4.371350587462075e-05
2.3441692974301986e-05,-4.3614116293611005e-05,2.6583649741951376e-05,2.2707699827151373e-05,-6.106284217821667e-06,4.344654007581994e-05
2.3539705580333248e-05,-4.591405013343319e-05,2.690173096198123e-05,2.2849511879030615e-05,-8.56193855724996e-06,4.6301614929689094e-05
2.542014408390969e-05,-4.885083399130963e-05,2.821131784003228e-05,2.211866740253754e-05,-9.431782928004395e-06,4.957252895110287e-05
2.425454295007512e-05,-5.1436651119729504e-05,3.0021967177162878e-05,2.7553518521017395e-05,-7.477523467969149e-06,5.144533861312084e-05
2.156769005523529e-05,-5.2075109124416485e-05,3.340461626066826e-05,4.007247480330989e-05,-7.283871127583552e-06,5.349677303456701e-05
2.0922483599861152e-05,-5.1738716138061136e-05,3.785418812185526e-05,5.4044565331423655e-05,-1.1233845725655556e-05,5.534473166335374e-05
2.2055124645703472e-05,-5.068217797088437e-05,4.151296161580831e-05,6.020311775500886e-05,-1.663905095483642e-05,5.662755938828923e-05
2.0998008039896376e-05,-4.96479551657103e-05,4.364695996628143e-05,5.445438000606373e-05,-1.882043397927191e-05,6.115354335634038e-05
1.7546542949276045e-05,-4.97468099638354e-05,4.187961167190224e-05,4.378112134872936e-05,-1.694086313364096e-05,6.647779810009524e-05
1.7220112567883916e-05,-4.993141192244366e-05,3.845206811092794e-05,3.710117016453296e-05,-1.2666992006415967e-05,7.284552702913061e-05
1.9535425963113084e-05,-4.978221113560721e-05,3.779486723942682e-05,3.3345695555908605e-05,-1.127824725699611e-05,7.627021113876253e-05
2.2902873752173036e-05,-5.046113074058667e-05,4.1503459215164185e-05,3.1990533898351714e-05,-1.3534828212868888e-05,7.357044523814693e-05
2.6154821171076037e-05,-4.839495159103535e-05,4.40051662735641e-05,3.2360687328036875e-05,-1.6726662579458207e-05,7.28462910046801e-05
2.5638777515268885e-05,-4.4244668970350176e-05,4.282300506019965e-05,3.0314524337882176e-05,-1.6797166608739644e-05,7.426747470162809e-05
2.412588582956232e-05,-4.426683881320059e-05,3.8479742215713486e-05,2.6305408027837984e-05,-1.3145240700396243e-05,7.047642429824919e-05
2.3820231945137493e-05,-4.432269270182587e-05,3.267293868702836e-05,2.4881121134967543e-05,-1.053287269314751e-05,6.990352994762361e-05
2.2400276066036895e-05,-4.4528336729854345e-05,3.120160545222461e-05,2.08855217351811e-05,-7.922682016214821e-06,7.155106140999123e-05
2.084344669128768e-05,-4.6036235289648175e-05,3.3093027013819665e-05,1.8515935153118335e-05,-4.4046987568435725e-06,6.882755405968055e-05
1.9365930711501278e-05,-4.907968104816973e-05,3.4206466807518154e-05,2.2476202502730303e-05,-4.347725734987762e-06,6.541754555655643e-05
1.9587809219956398e-05,-4.988855653209612e-05,3.399176421226002e-05,2.668635170266498e-05,-7.204383564385353e-06,6.0941369156353176e-05
1.9808070646831766e-05,-4.860491389990784e-05,3.48790199495852e-05,2.6734431230579503e-05,-9.182397661788855e-06,5.764146408182569e-05
2.0152656361460686e-05,-4.953831012244336e-05,3.7985300878062844e-05,2.322524414921645e-05,-9.395663255418185e-06,5.891337423236109e-05
2.1370047761593014e-05,-5.2345203584991395e-05,4.2042545828735456e-05,2.248443524877075e-05,-9.37277127377456e-06,6.40757498331368e-05
2.2929414626560174e-05,-5.4644558986183256e-05,4.2400992242619395e-05,2.7074022000306286e-05,-1.0724666935857385e-05,6.57288110232912e-05
2.4320304873981513e-05,-5.344310193322599e-05,3.7606576370308176e-05,3.396802276256494e-05,-1.00957486210973e-05,6.0510748880915344e-05
2.5068686227314174e-05,-5.142904046806507e-05,3.342666968819685e-05,3.9601651224074885e-05,-6.98467374604661e-06,5.434257764136419e-05
2.4788454538793303e-05,-5.081890049041249e-05,3.328073944430798e-05,4.162749246461317e-05,-5.768190931121353e-06,5.182498716749251e-05
2.3157004761742428e-05,-5.251841139397584e-05,3.43355059158057e-05,3.8341120671248063e-05,-6.68961183691863e-06,5.377973502618261e-05
2.2951944629312493e-05,-5.396528649725951e-05,3.2976531656458974e-05,2.7583066184888594e-05,-7.2781022026902065e-06,5.7320838095620275e-05
2.431170105410274e-05,-5.430578312370926e-05,3.0521587177645415e-05,1.341192728432361e-05,-7.2567058850836474e-06,5.7924684369936585e-05
2.556977779022418e-05,-5.462838089442812e-05,2.9368517061811872e-05,5.2035034059372265e-06,-7.840801117708907e-06,5.5159594921860844e-05
2.44029924942879e-05,-5.382373637985438e-05,2.909545219154097e-05,7.594859198434278e-06,-8.838007488520816e-06,5.091256753075868e-05
2.2857479052618146e-05,-5.075483932159841e-05,2.5784251192817464e-05,1.5166390767262783e-05,-1.0000788279285189e-05,4.7625697334297e-05
2.3994844013941474e-05,-5.1316314056748524e-05,2.1364563508541323e-05,2.1548568838625215e-05,-9.306394531449769e-06,4.594240817823447e-05
2.5930223273462616e-05,-5.4663887567585334e-05,2.0964243958587758e-05,2.2071242710808292e-05,-9.114206477534026e-06,4.481062205741182e-05
2.4494460376445204e-05,-5.4494626965606585e-05,2.108202716044616e-05,1.959011387953069e-05,-1.1101115887868218e-05,4.6105284127406776e-05
2.228896482847631e-05,-4.913842349196784e-05,1.8853919755201787e-05,1.9600278392317705e-05,-1.1328445907565765e-05,4.870541306445375e-05
2.2666026779916137e-05,-4.485254248720594e-05,1.7501601178082637e-05,1.4376714716490824e-05,-6.4897189986368176e-06,5.176483318791725e-05
2.325127206859179e-05,-4.537793211056851e-05,1.856940252764616e-05,1.4669913980469573e-05,1.2689935147136566e-06,5.427694850368425e-05
2.1431495042634197e-05,-4.444509613676928e-05,2.369063804508187e-05,3.4350108762737364e-05,-3.4945378502015956e-06,5.336292088031769e-05
2.0980905901524238e-05,-4.44971228716895e-05,2.9511913453461602e-05,6.399517587851733e-05,-1.8329497834201902e-05,5.308759500621818e-05
2.4610659238533117e-05,-4.6542038035113364e-05,3.370499689481221e-05,8.458199590677395e-05,-2.7803534976555966e-05,5.767181937699206e-05
3.0443545256275684e-05,-4.834435458178632e-05,3.4837106795748696e-05,8.538779366062954e-05,-2.8701117116725072e-05,5.8097160945180804e-05
3.452398595982231e-05,-5.1055536459898576e-05,3.3421674743294716e-05,7.060360803734511e-05,-2.160491385438945e-05,5.420276283985004e-05
3.5245589970145375e-05,-5.2686973504023626e-05,3.555210423655808e-05,5.811507799080573e-05,-1.2003880328848027e-05,5.6095967011060566e-05
3.269915032433346e-05,-5.087774115963839e-05,4.013785655843094e-05,5.197683276492171e-05,-6.238068181119161e-06,6.506811769213527e-05
2.6960959075950086e-05,-5.0175854994449764e-05,4.071109651704319e-05,4.347064168541692e-05,-3.0286303172033513e-06,7.444682705681771e-05
2.2865440769237466e-05,-5.060594412498176e-05,3.5357446904527023e-05,3.3471023925812915e-05,7.722415595878829e-09,7.757220737403259e-05
2.4171878976630978e-05,-4.8114030505530536e-05,2.9263672331580892e-05,2.6493322366150096e-05,2.959910489153117e-06,7.846284279366955e-05
2.747729558905121e-05,-4.405252548167482e-05,2.5909906980814412e-05,2.318955557711888e-05,7.024390924925683e-06,7.548007852165028e-05
2.6888366846833378e-05,-4.2933239456033334e-05,2.669175410119351e-05,1.8551689208834432e-05,9.354941539641004e-06,6.730067252647132e-05
2.416340066702105e-05,-4.469670238904655e-05,2.857235085684806e-05,1.0086678230436519e-05,9.458131899009459e-06,6.184174708323553e-05
2.3509603124693967e-05,-4.623606218956411e-05,2.9691645977436565e-05,-8.40043412608793e-07,9.60973648034269e-06,6.223239324754104e-05
2.448474697303027e-05,-4.617340164259076e-05,2.9870316211599857e-05,-9.788105671759695e-06,1.1022447324648965e-05,6.0380654758773744e-05
2.3942127882037312e-05,-4.4745593186235055e-05,3.139544423902407e-05,-1.5927094864309765e-05,1.0547170859354082e-05,4.9049380322685465e-05
2.2973428713157773e-05,-4.4120817619841546e-05,3.547750384313986e-05,-2.091216083499603e-05,5.758978204539744e-06,3.261809979449026e-05
2.321164902241435e-05,-4.563701804727316e-05,3.8141148252179846e-05,-2.5364019165863283e-05,-4.486340969833691e-07,2.3475318812415935e-05
2.317818143637851e-05,-4.7534176701446995e-05,3.690423909574747e-05,-2.8443470000638627e-05,-6.832807684986619e-06,2.8500087864813395e-05
2.215526910731569e-05,-4.7544683184241876e-05,3.4945609513670206e-05,-3.0605646315962076e-05,-1.5984487617970444e-05,4.364160122349858e-05
2.1397750970209017e-05,-4.8222547775367275e-05,3.382522481842898e-05,-3.073921106988564e-05,-2.6228013666695915e-05,6.375319208018482e-05
1.948189856193494e-05,-4.999615339329466e-05,3.272511457907967e-05,-2.7673100703395903e-05,-3.026338163181208e-05,8.278982568299398e-05
1.5910607544356026e-05,-5.1735416491283104e-05,3.217312041670084e-05,-2.0374980522319674e-05,-2.8193073376314715e-05,9.299076918978244e-05
1.1298229765088763e-05,-5.1082832214888185e-05,3.305859718238935e-05,-6.049903731764061e-06,-2.436483009660151e-05,9.304790728492662e-05
8.791754225967452e-06,-4.9185440730070695e-05,3.3905962482094765e-05,1.2396515558066312e-05,-2.0182162188575603e-05,9.058568684849888e-05
1.1165533578605391e-05,-5.104244337417185e-05,3.2034477044362575e-05,2.5855106287053786e-05,-1.6671510820742697e-05,8.94320837687701e-05
1.277663977816701e-05,-5.5369870096910745e-05,3.320436007925309e-05,4.517439811024815e-05,-1.3967603990749922e-05,8.832273306325078e-05
1.4120032574282959e-05,-5.602552482741885e-05,3.581515920814127e-05,8.379464998142794e-05,-1.4691793694510125e-05,8.714904834050685e-05
1.543942380521912e-05,-5.5743090342730284e-05,3.805155211011879e-05,0.00013171449245419353,-1.9930845155613497e-05,8.177617564797401e-05
1.4860532246530056e-05,-5.655453060171567e-05,3.785363878705539e-05,0.00016963062807917595,-2.2928390535525978e-05,7.209519390016794e-05
1.4522914170811418e-05,-5.721546767745167e-05,3.642627052613534e-05,0.0001783375337254256,-2.2128124328446575e-05,6.379839032888412e-05
1.4878885849611834e-05,-5.797582707600668e-05,4.0095619624480605e-05,0.00015358882956206799,-1.9882114429492503e-05,5.27228185092099e-05
1.696108483884018e-05,-5.6884524383349344e-05,4.413115311763249e-05,0.00010907730757026002,-2.2123898816062137e-05,3.889548315783031e-05
1.8331455066800117e-05,-5.298250471241772e-05,4.372821422293782e-05,6.74564580549486e-05,-3.402727816137485e-05,3.1018320441944525e-05
2.0221103113726713e-05,-4.668195470003411e-05,3.917473804904148e-05,4.225902011967264e-05,-5.087504905532114e-05,2.9748956876574084e-05
2.4537968783988617e-05,-4.6210185246309265e-05,3.376211680006236e-05,3.333275162731297e-05,-6.463911267928779e-05,3.087642107857391e-05
2.653811316122301e-05,-4.9585567467147484e-05,2.8543687221826985e-05,3.1535717425867915e-05,-7.156539504649118e-05,2.7571048121899366e-05
2.5483135686954483e-05,-5.2731556934304535e-05,2.7538990252651274e-05,2.8639091397053562e-05,-7.237381214508787e-05,2.1304995243554004e-05
2.3535847503808327e-05,-5.345696263248101e-05,2.9372647986747324e-05,2.4551760361646302e-05,-6.615776510443538e-05,2.025575486186426e-05
2.1302066670614295e-05,-5.0559567171148956e-05,2.8835322154918686e-05,2.3580967535963282e-05,-5.1687344239326194e-05,2.6449661163496785e-05
1.8439910490997136e-05,-4.671598435379565e-05,2.6975256332661957e-05,2.4495737307006493e-05,-2.837672218447551e-05,3.310395550215617e-05
1.597638583916705e-05,-4.435229493537918e-05,2.749007398961112e-05,2.2083562726038508e-05,3.373323579580756e-06,3.437961277086288e-05
1.4641774214396719e-05,-4.509220889303833e-05,2.9656521292054094e-05,1.6074816812761128e-05,3.9789385482436046e-05,3.339255272294395e-05
1.4020362868905067e-05,-4.8421014071209356e-05,3.0082825105637312e-05,9.910688277159352e-06,7.024421211099252e-05,3.38287245540414e-05
1.532474379928317e-05,-5.224627966526896e-05,2.8925540391355753e-05,6.114959887781879e-06,8.692485425854102e-05,3.7337445974117145e-05
1.8852824723580852e-05,-5.227552537689917e-05,2.8184382244944572e-05,7.5114476203452796e-06,9.046834020409733e-05,4.38110510003753e-05
2.3115590011002496e-05,-4.992469257558696e-05,3.0180670364643447e-05,1.2414639058988541e-05,8.455848001176491e-05,5.373679960030131e-05
2.6326781153329648e-05,-4.879030893789604e-05,3.373223444214091e-05,1.573967165313661e-05,7.214422657852992e-05,6.186021346366033e-05
2.751081410679035e-05,-4.9772766942624e-05,3.435404505580664e-05,1.84119853656739e-05,5.4825202823849395e-05,6.315497012110427e-05
2.741256685112603e-05,-5.021837932872586e-05,3.2101663236971945e-05,2.1800420654471964e-05,3.5742170439334586e-05,6.51847367407754e-05
2.655238495208323e-05,-4.9607308028498664e-05,3.2625575840938836e-05,2.2299447664408945e-05,1.857284951256588e-05,6.696218042634428e-05
2.577958548499737e-05,-4.782402538694441e-05,3.215826291125268e-05,1.999065170821268e-05,6.0372744883352425e-06,6.299690721789375e-05
2.497228342690505e-05,-4.784842167282477e-05,3.1665422284277156e-05,1.464902834413806e-05,-7.368895694526145e-06,6.133297574706376e-05
2.3295227947528474e-05,-4.5266704546520486e-05,3.437764462432824e-05,6.41552151137148e-06,-2.2801265004090965e-05,6.0661306633846834e-05
2.1391440895968117e-05,-4.1912429878721014e-05,3.530229514581151e-05,-9.227122745869565e-07,-3.384409865248017e-05,5.773329030489549e-05
2.0485898858169094e-05,-4.3161126086488366e-05,3.650590224424377e-05,-4.49285471404437e-06,-4.125871055293828e-05,5.484666326083243e-05
2.1028878109063953e-05,-4.1803286876529455e-05,3.613928856793791e-05,-7.822677616786677e-07,-4.315227488405071e-05,5.140065331943333e-05
2.1667812688974664e-05,-3.93614755012095e-05,3.232946983189322e-05,6.316870440059574e-06,-3.735795689863153e-05,4.854152939515188e-05
1.9041868654312566e-05,-3.963443305110559e-05,2.891196527343709e-05,1.4748467037861701e-05,-2.6509342205827124e-05,5.308728577801958e-05
1.6135665646288544e-05,-4.225945667712949e-05,2.5424793420825154e-05,1.699306994851213e-05,-1.7692667825031094e-05,6.53673050692305e-05
1.718800194794312e-05,-4.600648389896378e-05,2.6373276341473684e-05,1.424913170922082e-05,-1.2800959666492417e-05,7.328143692575395e-05
1.7389063941664062e-05,-4.762331809615716e-05,3.096775253652595e-05,1.2877484550699592e-05,-8.405411790590733e-06,7.300288416445255e-05
1.5552530385321006e-05,-4.7803434426896274e-05,3.4674354537855834e-05,1.6945205061347224e-05,-5.354790573619539e-06,6.484840560005978e-05
1.293600053031696e-05,-4.7700134018668905e-05,3.5259399737697095e-05,2.5126335458480753e-05,-3.729210448000231e-06,5.6361634051427245e-05
1.0191726687480696e-05,-4.591164906742051e-05,3.312634726171382e-05,3.0015313313924707e-05,-3.6056628687219927e-06,5.604574835160747e-05
8.236670510086697e-06,-4.274430466466583e-05,3.1773790396982804e-05,3.13054297294002e-05,-2.6539491955190897e-06,6.088121153879911e-05
1.0251506864733528e-05,-3.970446778112091e-05,3.255703632021323e-05,3.0540377338184044e-05,-2.797669139908976e-06,6.793956708861515e-05
1.630348378967028e-05,-3.9460635889554396e-05,3.282287434558384e-05,2.969024353660643e-05,-4.9039695113606285e-06,6.987453525653109e-05
2.1278277927194722e-05,-4.056888792547397e-05,3.098695015069097e-05,2.811024387483485e-05,-7.066690159263089e-06,6.466239574365318e-05
2.1799389287480153e-05,-4.0660099330125377e-05,3.0429337130044587e-05,2.2917107344255783e-05,-6.79605727782473e-06,6.00877647229936e-05
