2.885579306166619e-05,-4.9131904233945534e-05,3.215189281036146e-05,2.7878446417162195e-05,-1.9802714632533025e-06,5.253221024759114e-05
3.1714607757749036e-05,-5.119444540468976e-05,2.8348966225166805e-05,3.1301748094847426e-05,-3.151003511447925e-06,4.44171491835732e-05
3.141363413305953e-05,-4.983123653801158e-05,2.3347267415374517e-05,3.212173760402948e-05,-4.278627784515265e-06,4.108965367777273e-05
2.752933869487606e-05,-4.755892950925045e-05,2.241262154711876e-05,3.308458690298721e-05,-4.364124379208079e-06,4.594017445924692e-05
2.227187178505119e-05,-4.637904930859804e-05,2.3631364456377923e-05,3.14923636324238e-05,-6.320037300611148e-06,5.3145980928093195e-05
1.8173102944274433e-05,-4.5632132241735235e-05,2.352507544856053e-05,3.122229827567935e-05,-7.2729271778371185e-06,5.57134990231134e-05
1.3846445654053241e-05,-4.751405867864378e-05,2.4476623366354033e-05,3.123134229099378e-05,-6.194390607561218e-06,5.4622418247163296e-05
1.1391676707717124e-05,-4.952122253598645e-05,2.5666313376859762e-05,2.821921225404367e-05,-7.831175025785342e-06,5.280389450490475e-05
9.948782462743111e-06,-5.101269198348746e-05,2.6110968974535353e-05,2.690919609449338e-05,-1.1835599252663087e-05,4.576994615490548e-05
7.754480975563638e-06,-5.313141809892841e-05,2.4356757421628572e-05,2.9842807634850033e-05,-1.7547903553349897e-05,4.2326439142925665e-05
7.119317615433829e-06,-5.440290624392219e-05,2.3933514967211522e-05,3.1547413527732715e-05,-2.9280232411110774e-05,4.800836177309975e-05
9.03142699826276e-06,-5.542654253076762e-05,2.512583705538418e-05,3.191753421560861e-05,-4.590917160385288e-05,5.488362876349129e-05
1.3098564522806555e-05,-5.653037078445777e-05,2.5325442038592882e-05,3.156907405355014e-05,-5.8668581914389506e-05,5.733495345339179e-05
1.65234123414848e-05,-5.7533179642632604e-05,2.168803257518448e-05,3.209489295841195e-05,-6.67917265673168e-05,6.10667048022151e-05
1.7949449102161452e-05,-5.749698175350204e-05,1.9197437723050825e-05,3.5190387279726565e-05,-7.11362881702371e-05,6.545150245074183e-05
1.7113139620050788e-05,-5.5377498938469216e-05,2.1394791474449448e-05,3.9484493754571304e-05,-6.771337939426303e-05,6.517241126857698e-05
1.84086511580972e-05,-5.1803512178594247e-05,2.737568320299033e-05,4.135813287575729e-05,-5.407199569162913e-05,6.241454684641212e-05
2.185480116168037e-05,-4.9652640882413834e-05,3.2852913136594e-05,3.810368798440322e-05,-3.3502208680147305e-05,6.072317046346143e-05
2.3772630811436102e-05,-4.981028541806154e-05,3.468884824542329e-05,3.436229599174112e-05,-7.774040568619967e-06,6.080963066779077e-05
2.2091157006798312e-05,-4.9886246415553614e-05,3.281135650468059e-05,3.1791740184416994e-05,2.134205169568304e-05,6.155689334264025e-05
2.1792162442579865e-05,-5.078851609141566e-05,2.9805392841808498e-05,2.7400848921388388e-05,4.973091563442722e-05,6.492611282737926e-05
2.4789133021840826e-05,-5.467893060995266e-05,2.9329707103897817e-05,2.382625825703144e-05,7.279135752469301e-05,6.846992619102821e-05
2.6738855012808926e-05,-5.79428015043959e-05,3.0130921004456468e-05,2.4154429411282763e-05,8.5432970081456e-05,6.9535402872134e-05
2.7205527658225037e-05,-5.655499626300298e-05,3.236099291825667e-05,2.315099300176371e-05,8.688148955116048e-05,6.95608978276141e-05
3.1253126508090645e-05,-5.271984628052451e-05,3.613124499679543e-05,1.9032546333619393e-05,7.673400250496343e-05,7.254912634380162e-05
3.716135324793868e-05,-5.1284267101436853e-05,3.6001758417114615e-05,1.7936888980329968e-05,5.993034574203193e-05,7.288563210749999e-05
3.516517244861461e-05,-4.987211650586687e-05,3.0856241210130975e-05,1.828182394092437e-05,4.3070060200989246e-05,6.564598152181134e-05
3.0345025152200833e-05,-5.0381066103000194e-05,2.5407351131434552e-05,1.681189678492956e-05,2.7813413908006623e-05,5.5441960284952074e-05
2.7885058443644084e-05,-4.9019097787095234e-05,2.4913471861509606e-05,2.151579064957332e-05,1.4359253327711485e-05,5.161897206562571e-05
2.440112439217046e-05,-4.439681288204156e-05,3.0778159270994365e-05,2.5720395569805987e-05,5.062626314611407e-06,5.34637802047655e-05
2.1579518943326548e-05,-4.5211567339720204e-05,3.58629877155181e-05,2.448189479764551e-05,-1.3715372233491507e-06,5.8885812904918566e-05
1.8636370441527106e-05,-4.7806937800487503e-05,3.600602940423414e-05,2.1358900994528085e-05,-6.1874698076280765e-06,6.269605364650488e-05
1.5227618860080838e-05,-4.9097590817837045e-05,3.1121569918468595e-05,1.796914693841245e-05,-1.2569587852340192e-05,5.666115612257272e-05
1.3933405170973856e-05,-5.0494509196141735e-05,2.8006666980218142e-05,1.5422892829519697e-05,-1.874793815659359e-05,4.7728277422720566e-05
1.3766635674983263e-05,-5.259269892121665e-05,2.498055800970178e-05,1.6037565728765912e-05,-2.1671081412932836e-05,4.048337723361328e-05
1.4974342775531113e-05,-5.465159847517498e-05,2.3104652427718975e-05,1.3443412171909586e-05,-2.3758761017234065e-05,3.81093195755966e-05
1.701415385468863e-05,-5.771885480498895e-05,2.5773939341888763e-05,1.019674618873978e-05,-2.7834328648168594e-05,4.1666200559120625e-05
1.8510734662413597e-05,-5.9710597270168364e-05,3.0846556910546497e-05,1.1541595085873269e-05,-3.2844745874172077e-05,4.675394302466884e-05
1.9508950572344474e-05,-5.8817440731218085e-05,3.6533656384563074e-05,1.419331329088891e-05,-3.700652814586647e-05,5.2145162044325843e-05
2.0108296666876413e-05,-5.605112892226316e-05,4.058658305439167e-05,1.75085078808479e-05,-3.893209213856608e-05,5.7945300795836374e-05
2.079002842947375e-05,-5.29101635038387e-05,4.0297203668160364e-05,2.2893280402058735e-05,-3.941374598070979e-05,5.887657607672736e-05
2.21029495151015e-05,-5.236418292042799e-05,3.7493256968446076e-05,2.929781658167485e-05,-3.852252120850608e-05,5.4559412092203274e-05
2.3725782739347778e-05,-5.137539119459689e-05,3.44497493642848e-05,3.0097482522251084e-05,-3.401346111786552e-05,5.432455145637505e-05
2.394664625171572e-05,-4.8774021706776693e-05,3.1929688702803105e-05,2.7875492378370836e-05,-2.6117919333046302e-05,6.016360566718504e-05
2.319222767255269e-05,-4.836305379285477e-05,3.314587956992909e-05,2.580993350420613e-05,-1.8272634406457655e-05,6.819010741310194e-05
2.2625466954195872e-05,-5.1518072723411024e-05,3.603036020649597e-05,2.641999162733555e-05,-1.3393209883361124e-05,7.391159306280315e-05
2.3284357666852884e-05,-5.397685890784487e-05,3.6777040804736316e-05,2.9582288334495388e-05,-9.767630217538681e-06,7.44885765016079e-05
2.4534192561986856e-05,-5.3284478781279176e-05,3.5291584936203435e-05,3.197343903593719e-05,-7.108021236490458e-06,7.286408072104678e-05
2.33426417253213e-05,-4.976084528607316e-05,3.3216376323252916e-05,3.1953179131960496e-05,-5.619404419121565e-06,7.193352212198079e-05
2.0748002498294227e-05,-4.637027086573653e-05,3.201040090061724e-05,3.3034822990885004e-05,-5.488582701218547e-06,6.777176167815924e-05
2.1155474314582534e-05,-4.706693653133698e-05,3.318957533338107e-05,3.5435652534943074e-05,-7.522373834945029e-06,6.275887426454574e-05
2.317854159628041e-05,-4.698116026702337e-05,3.323778582853265e-05,3.6936467949999496e-05,-8.439114935754333e-06,5.945503289694898e-05
2.6266076019965112e-05,-4.159107629675418e-05,3.318545350339264e-05,3.8959227822488174e-05,-6.9911689024593215e-06,5.696203515981324e-05
2.922938801930286e-05,-3.791055132751353e-05,3.670697333291173e-05,4.452780922292732e-05,-6.163340913190041e-06,5.903368582949042e-05
2.459583629388362e-05,-4.1402738133911043e-05,4.003118010587059e-05,5.5433076340705156e-05,-5.653893822454847e-06,6.347662565531209e-05
1.820885154302232e-05,-4.353883196017705e-05,3.711698445840739e-05,6.584174843737856e-05,-4.92014487463166e-06,6.43222956568934e-05
1.6595167835475877e-05,-4.2534251406323165e-05,3.5466360714053735e-05,6.66630658088252e-05,-3.7554555092356168e-06,6.659104838036001e-05
1.9998153220512904e-05,-4.326731868786737e-05,3.5504388506524265e-05,6.398712139343843e-05,-6.261153430386912e-06,6.848693737993017e-05
2.502883035049308e-05,-4.4742129830410704e-05,3.0420511393458582e-05,5.7469445891911164e-05,-1.0776650015031919e-05,6.510119419544935e-05
2.422163925075438e-05,-4.9244095862377435e-05,2.6855765099753626e-05,4.5904063881607726e-05,-1.3519200365408324e-05,6.280033267103136e-05
2.10797916224692e-05,-5.183563189348206e-05,3.112898048129864e-05,3.685746560222469e-05,-1.6172991308849305e-05,6.106257205829024e-05
1.9664710634970106e-05,-4.934357639285736e-05,3.6521083529805765e-05,2.951093301817309e-05,-1.8105281924363226e-05,6.0152338846819475e-05
1.9272298231953755e-05,-4.6095941797830164e-05,3.670902879093774e-05,2.3777083697495982e-05,-1.9639261154225096e-05,5.908172170165926e-05
1.854672700574156e-05,-4.5110980863682926e-05,3.3548829378560185e-05,2.0039768060087226e-05,-1.925033939187415e-05,5.817286728415638e-05
1.6836062059155665e-05,-4.611516123986803e-05,3.000672768393997e-05,1.691888610366732e-05,-1.57919912453508e-05,5.789953502244316e-05
1.7109263353631832e-05,-4.6966491936473176e-05,2.7331239834893495e-05,1.5438963600900024e-05,-1.5325818822020665e-05,5.7748758990783244e-05
1.9636956494650804e-05,-4.674080992117524e-05,2.5520512281218544e-05,1.7026826753863133e-05,-1.901228097267449e-05,5.67589231650345e-05
2.1376510630943812e-05,-4.53471984656062e-05,2.441437027300708e-05,2.0319394025136717e-05,-2.3015316401142627e-05,5.485867950483225e-05
2.230775498901494e-05,-4.5943706936668605e-05,2.3821243303245865e-05,2.307194154127501e-05,-2.33908631344093e-05,5.092598803457804e-05
2.2864587663207203e-05,-4.731907756649889e-05,2.384822983003687e-05,2.464377939759288e-05,-2.0075947759323753e-05,4.623640052159317e-05
2.359189784328919e-05,-4.616334263118915e-05,2.4990682504721917e-05,2.2952950530452654e-05,-1.5926931155263446e-05,4.529135185293853e-05
2.3211528969113715e-05,-4.400084799272008e-05,2.8042009944329038e-05,1.818633609218523e-05,-1.4641708730778191e-05,4.8024528950918466e-05
2.0745173969771713e-05,-4.2578933062031865e-05,2.94948804366868e-05,1.3761046830040868e-05,-1.864384648797568e-05,5.2950428653275594e-05
1.8043860109173693e-05,-3.996962186647579e-05,2.761141149676405e-05,1.268614869331941e-05,-2.316130485269241e-05,6.17265613982454e-05
1.8925537005998194e-05,-3.791979543166235e-05,2.6665491532185115e-05,1.7992797438637353e-05,-2.3424003302352503e-05,7.315310358535498e-05
2.250301440653857e-05,-3.978606400778517e-05,2.8455524443415925e-05,2.4471115466440096e-05,-2.1689334971597418e-05,7.728308264631778e-05
2.3510539904236794e-05,-4.5825745473848656e-05,2.875005520763807e-05,2.447514998493716e-05,-2.187862446589861e-05,7.010109402472153e-05
2.331388350285124e-05,-4.9955033318838105e-05,2.7577412765822373e-05,2.0951811166014522e-05,-2.0659424990299158e-05,6.095522257965058e-05
2.4537068384233862e-05,-5.166403207113035e-05,2.786589175229892e-05,2.308858347532805e-05,-1.5739047739771195e-05,5.614819019683637e-05
2.58701438724529e-05,-5.343639713828452e-05,3.119497705483809e-05,2.6167752366745844e-05,-1.1202006135135889e-05,5.586165571003221e-05
2.3018679712549783e-05,-5.051750486018136e-05,3.2795986044220626e-05,2.2458571038441733e-05,-1.0040466804639436e-05,5.8722322137327865e-05
2.0899786250083707e-05,-4.758529757964425e-05,3.0646679078927264e-05,1.7830529031925835e-05,-9.518397746433038e-06,6.164656952023506e-05
2.2458947569248267e-05,-4.9672980821924284e-05,3.0459423214779235e-05,1.9692584828590043e-05,-4.602366516337497e-06,6.359047984005883e-05
2.4074481189018115e-05,-5.129277633386664e-05,3.1692517950432375e-05,2.1236128304735757e-05,-3.127800937363645e-06,6.009739445289597e-05
2.6245916160405613e-05,-4.953379539074376e-05,3.068079604418017e-05,1.7172933439724147e-05,-1.590924512129277e-05,5.861606405233033e-05
2.6296916985302232e-05,-4.6139699406921864e-05,2.878353734558914e-05,1.2590668120537885e-05,-3.460323205217719e-05,6.089894304750487e-05
2.4958644644357264e-05,-4.5163531467551365e-05,3.137029489153065e-05,1.1206185263290536e-05,-4.6495028072968125e-05,6.288599252002314e-05
2.6673436877899803e-05,-4.991885361960158e-05,3.68595210602507e-05,1.0648914212652016e-05,-4.315976184443571e-05,6.311488687060773e-05
2.9609147532028146e-05,-5.4471274779643863e-05,3.853676753351465e-05,1.2473286005842965e-05,-2.9272056053741835e-05,6.135259900474921e-05
2.8921413104399107e-05,-5.329043779056519e-05,3.6317374906502664e-05,1.6218436940107495e-05,-1.4361276043928228e-05,6.078435035306029e-05
2.6250914743286557e-05,-5.0801416364265606e-05,3.426611510803923e-05,2.0674900952144526e-05,3.218506350322059e-08,5.92043470533099e-05
2.3142420104704797e-05,-5.183282701182179e-05,3.444462709012441e-05,2.5915556761901826e-05,1.2762991900672205e-05,5.909858373343013e-05
2.1796804503537714e-05,-5.3956864576321095e-05,3.734775964403525e-05,2.7620513719739392e-05,2.334260534553323e-05,6.205363752087578e-05
2.1532527171075344e-05,-5.322693687048741e-05,3.992882921011187e-05,2.6624364181770943e-05,3.191380528733134e-05,6.280793604673818e-05
2.110976492986083e-05,-5.10098398081027e-05,4.0012146200751886e-05,2.7100097213406116e-05,3.65095074812416e-05,5.968402183498256e-05
2.229720303148497e-05,-4.899521445622668e-05,3.8747486541979015e-05,2.9774488211842254e-05,3.532415576046333e-05,5.3785715863341466e-05
2.4768680304987356e-05,-4.6746961743338034e-05,3.7929457903373986e-05,3.001041477546096e-05,3.110979014309123e-05,4.769923543790355e-05
2.7117554054711945e-05,-4.495840039453469e-05,3.841014040517621e-05,2.960875463031698e-05,2.833507642208133e-05,4.534110121312551e-05
2.7803216653410345e-05,-4.67125755676534e-05,3.879206633428112e-05,2.9393759177764878e-05,2.8283571737119928e-05,4.6358680265257135e-05
2.5489614927209914e-05,-5.103969306219369e-05,3.680563168018125e-05,2.611419949971605e-05,2.8285785447224043e-05,5.0079586799256504e-05
2.0128607502556406e-05,-5.3588537411997095e-05,3.277450014138594e-05,2.113178197760135e-05,2.3256119675352238e-05,5.4704967624275014e-05
1.715065627649892e-05,-5.185623376746662e-05,2.9852166335331276e-05,2.0221088561811484e-05,1.156022790382849e-05,5.660957322106697e-05
1.7346626918879338e-05,-4.68507751065772e-05,2.889310781029053e-05,2.1456144168041646e-05,1.0528748362048646e-06,5.3575065976474434e-05
1.858931136666797e-05,-4.102803359273821e-05,2.8133988962508738e-05,2.2063519281800836e-05,-8.316651474160608e-07,5.080728806206025e-05
2.0047749785589986e-05,-3.8958514778641984e-05,2.841512832674198e-05,2.102902544720564e-05,1.1592993587328237e-06,5.460382817545906e-05
2.221447903139051e-05,-4.2598148866090924e-05,2.9307509976206347e-05,2.0051433239132166e-05,-2.119780901921331e-07,6.055835910956375e-05
2.4506956833647564e-05,-4.5387179852696136e-05,2.9101282052579336e-05,2.112601578119211e-05,-6.8635717980214395e-06,6.655987090198323e-05
2.2321772121358663e-05,-4.713238013209775e-05,2.8978363843634725e-05,2.0236120690242387e-05,-1.5003167391114403e-05,7.26233993191272e-05
1.967195021279622e-05,-4.6930443204473704e-05,2.9644825190189295e-05,2.3217116904561408e-05,-1.8116519640898332e-05,7.246692985063419e-05
2.185173252655659e-05,-4.201154297334142e-05,3.0897146643837914e-05,3.182555519742891e-05,-1.4540805750584695e-05,6.888276402605698e-05
2.286428934894502e-05,-3.8216716347960755e-05,3.164237932651304e-05,4.118657670915127e-05,-1.300230997003382e-05,6.64197577862069e-05
2.2488460672320798e-05,-3.998077227151953e-05,2.972209949803073e-05,4.7997360525187105e-05,-1.8144042769563384e-05,6.758934614481404e-05
2.253439561172854e-05,-4.380149766802788e-05,2.75138663710095e-05,4.794769483851269e-05,-2.278104511788115e-05,7.035678572719917e-05
2.245312680315692e-05,-4.617759259417653e-05,3.263380131102167e-05,4.355122655397281e-05,-2.5665582143119536e-05,7.20101161277853e-05
2.0963587303413078e-05,-4.9383859732188284e-05,3.762455526157282e-05,4.0370894566876814e-05,-2.5533898224239238e-05,7.285107130883262e-05
2.0600009520421736e-05,-5.175935075385496e-05,3.726123759406619e-05,3.9775713958078995e-05,-2.232187762274407e-05,7.128047582227737e-05
2.357696030230727e-05,-4.990391244064085e-05,3.4128122933907434e-05,3.960103640565649e-05,-1.743396387610119e-05,6.821329589001834e-05
2.4256582037196495e-05,-4.8617894208291546e-05,3.1068495445651934e-05,4.015995727968402e-05,-1.35984455482685e-05,6.363220018101856e-05
2.163921635656152e-05,-4.764393816003576e-05,3.099668174399994e-05,4.034602170577273e-05,-1.2068946489307564e-05,6.080113962525502e-05
1.7692154870019294e-05,-4.724860264104791e-05,3.203752203262411e-05,3.8300062442431226e-05,-1.1375649592082482e-05,6.200743519002572e-05
1.5301948224077933e-05,-4.9698272050591186e-05,3.21310362778604e-05,3.796246892306954e-05,-9.829569535213523e-06,6.249003490665928e-05
1.4616844964621123e-05,-5.2037332352483645e-05,3.0462635550065897e-05,3.9459224353777245e-05,-9.690751539892517e-06,6.068105358281173e-05
1.6098678315756842e-05,-5.460905231302604e-05,2.7748305001296103e-05,4.1186081944033504e-05,-1.3786288945993874e-05,5.935444278293289e-05
2.145902362826746e-05,-5.8038793213199824e-05,2.5129558707703836e-05,4.117245043744333e-05,-1.8793925846694037e-05,5.8368565078126267e-05
2.7304871764499694e-05,-6.111476250225678e-05,2.4301765733980574e-05,3.7907229852862656e-05,-2.086423774017021e-05,5.858031363459304e-05
2.7327296265866607e-05,-6.22752559138462e-05,2.436209615552798e-05,3.3010608603945e-05,-1.839590913732536e-05,5.871220855624415e-05
2.187667450925801e-05,-6.159283657325432e-05,2.5920500775100663e-05,3.2654934329912066e-05,-1.733878889353946e-05,5.4226708016358316e-05
1.856216840678826e-05,-6.015102917444892e-05,2.6987490855390206e-05,3.931584797101095e-05,-2.0212510207784362e-05,4.6559438487747684e-05
2.1265592295094393e-05,-5.9885922382818535e-05,2.659461461007595e-05,4.359539889264852e-05,-2.2566822735825554e-05,3.878403367707506e-05
2.542356560297776e-05,-5.875326678506099e-05,2.6519735911278985e-05,3.8735492125852033e-05,-2.035322722804267e-05,3.40926562785171e-05
2.729627158259973e-05,-5.5540003813803196e-05,2.6722278562374413e-05,3.3321164664812386e-05,-1.7123360521509312e-05,3.488976290100254e-05
2.7851880076923408e-05,-5.465164576889947e-05,2.5923580324160866e-05,3.237957207602449e-05,-1.629150574444793e-05,3.761714469874278e-05
2.594609759398736e-05,-5.531795250135474e-05,2.5911445845849812e-05,3.448578354436904e-05,-1.554179107188247e-05,4.144333070144057e-05
2.3715183488093317e-05,-5.409567165770568e-05,2.726357342908159e-05,3.7832825910300016e-05,-1.494871230534045e-05,4.59594521089457e-05
2.2374140826286748e-05,-5.3066272812429816e-05,2.9624130547745153e-05,3.708717122208327e-05,-1.3991183550388087e-05,4.975700721843168e-05
2.1112720787641592e-05,-5.043797136750072e-05,3.1241968827089295e-05,3.5639524867292494e-05,-1.0702044164645486e-05,5.139374843565747e-05
2.2004729544278234e-05,-4.468364204512909e-05,3.064829797949642e-05,3.58154829882551e-05,-7.94008155935444e-06,5.1886061555705965e-05
2.517655047995504e-05,-4.200462717562914e-05,2.91594878945034e-05,3.3865995646920055e-05,-6.306950581347337e-06,4.94758969580289e-05
2.971623143821489e-05,-4.7174766223179176e-05,2.9002721930737607e-05,2.7540441806195304e-05,-5.173142199055292e-06,4.5438329834723845e-05
3.172103242832236e-05,-5.410471931099892e-05,2.8361715521896258e-05,2.0668714569183066e-05,-5.031870841776254e-06,4.524493124336004e-05
2.879261228372343e-05,-5.6664350267965347e-05,3.1149476853897795e-05,1.8874496163334697e-05,-6.4400173869216815e-06,4.557155989459716e-05
2.41345442191232e-05,-5.643346594297327e-05,3.61297934432514e-05,2.158095048798714e-05,-8.091644303931389e-06,4.699953569797799e-05
2.2323061784845777e-05,-5.639465234708041e-05,3.94913149648346e-05,2.551100988057442e-05,-1.0478107469680253e-05,5.353977394406684e-05
2.360698999837041e-05,-5.60366825084202e-05,4.248815821483731e-05,3.0226807211874984e-05,-1.3175445928936824e-05,5.750820491812192e-05
2.5720353733049706e-05,-5.256109943729825e-05,3.9509861380793154e-05,3.3846932637970895e-05,-1.3290641618368682e-05,5.406712807598524e-05
2.834632687154226e-05,-4.9207556003239006e-05,3.4188153222203255e-05,3.3507549233036116e-05,-1.2057836102030706e-05,5.116919055581093e-05
2.8574044335982762e-05,-4.831623664358631e-05,3.191783252987079e-05,3.0406876248889603e-05,-1.0311236110283062e-05,5.165354741620831e-05
2.424217564112041e-05,-4.8704805521992967e-05,3.3665601222310215e-05,2.7822190531878732e-05,-1.0741237929323688e-05,5.487220914801583e-05
2.043810673058033e-05,-4.925358371110633e-05,3.401342473807745e-05,2.5399087462574244e-05,-1.1125490345875733e-05,5.8036177506437525e-05
2.0702791516669095e-05,-5.1817387429764494e-05,3.422610097914003e-05,2.481084447936155e-05,-1.0019915862358175e-05,5.823367246193811e-05
2.2446205548476428e-05,-5.546779721044004e-05,3.455343176028691e-05,2.464759018039331e-05,-1.0416537406854331e-05,5.562488149735145e-05
2.2539261408383027e-05,-5.632300963043235e-05,3.480710802250542e-05,2.3520071408711374e-05,-1.3535192010749597e-05,5.537686956813559e-05
2.2230846298043616e-05,-5.2395178499864414e-05,3.5888588172383606e-05,2.2846414140076376e-05,-1.7209222278324887e-05,5.735045124311e-05
2.1229223420959897e-05,-4.7851055569481105e-05,3.7529760447796434e-05,2.318041879334487e-05,-1.9373239410924725e-05,5.7894500059774145e-05
1.876209535112139e-05,-4.887945397058502e-05,3.86500614695251e-05,2.4048948034760542e-05,-1.9195920685888268e-05,5.561707803281024e-05
1.615665496501606e-05,-5.318397597875446e-05,3.795303200604394e-05,2.3726797735434957e-05,-1.617503039597068e-05,5.3637297241948545e-05
1.4450652088271454e-05,-5.396386768552475e-05,3.580482007237151e-05,2.331779251107946e-05,-1.3814516023558099e-05,5.542311555473134e-05
1.495695050834911e-05,-4.975528281647712e-05,3.415304308873601e-05,2.4062512238742784e-05,-1.294425965170376e-05,5.8448087656870484e-05
1.8115706552634947e-05,-4.493611049838364e-05,3.639655915321782e-05,2.6042163881356828e-05,-1.2653403246076778e-05,5.8668629208114e-05
2.298276922374498e-05,-4.439753320184536e-05,4.02477708121296e-05,2.803186907840427e-05,-1.0656280210241675e-05,5.634059198200703e-05
2.714392394409515e-05,-4.486328543862328e-05,4.1141662222798914e-05,2.8135988031863235e-05,-5.9864146351173986e-06,5.845749910804443e-05
3.066353383474052e-05,-4.446469756658189e-05,3.892054519383237e-05,2.51273340836633e-05,-1.715089638310019e-06,6.367164314724505e-05
3.164649388054386e-05,-4.8247304221149534e-05,3.867333725793287e-05,2.1445646780193783e-05,-1.3221049357525771e-06,6.737194053130224e-05
2.954380943265278e-05,-4.904240267933346e-05,4.048235496156849e-05,2.4762985049164854e-05,-1.3029945876041893e-05,7.032855501165614e-05
2.4750952434260398e-05,-4.6771903726039454e-05,4.2331968870712444e-05,3.2180945709114894e-05,-3.2336054573534057e-05,7.326231570914388e-05
2.0899622541037388e-05,-4.492653170018457e-05,4.0389069908997044e-05,3.5291697713546455e-05,-4.031969729112461e-05,7.583841943414882e-05
2.219921771029476e-05,-4.454428926692344e-05,3.7380737921921536e-05,3.146592644043267e-05,-3.5890228900825605e-05,7.704022573307157e-05
2.465430043230299e-05,-4.665349842980504e-05,3.5953813494415954e-05,2.4178463718271814e-05,-2.7788160878117196e-05,7.107840065145865e-05
2.4295954062836245e-05,-4.6929479140089825e-05,3.645150354714133e-05,2.312174365215469e-05,-1.8895558241638355e-05,6.524740456370637e-05
2.544161725381855e-05,-4.470599742489867e-05,3.635930988821201e-05,2.35668703680858e-05,-1.117952706408687e-05,6.50517686153762e-05
2.7145542844664305e-05,-4.307857670937665e-05,3.3818010706454515e-05,2.3871074517956004e-05,-2.861796019715257e-06,6.606483657378703e-05
2.7229729312239215e-05,-4.692843504017219e-05,3.0734678148292005e-05,2.6885061743087135e-05,4.7077933231776115e-06,6.709308945573866e-05
2.892762677220162e-05,-5.122263974044472e-05,2.9189475753810257e-05,3.0823011911707e-05,1.0351398486818653e-05,6.98126750648953e-05
2.9996022931300104e-05,-4.982260361430235e-05,2.8827564165112562e-05,3.1493047572439536e-05,1.3654090253112372e-05,7.280814315890893e-05
2.8978041882510297e-05,-4.373402043711394e-05,2.95579266094137e-05,2.9642102163052186e-05,1.4595444554288406e-05,7.024996739346534e-05
2.6596120733302087e-05,-4.104810795979574e-05,3.0166145734256133e-05,2.7560259695746936e-05,1.475776207371382e-05,6.550567923113704e-05
2.471881998644676e-05,-4.498911584960297e-05,3.0950272048357874e-05,2.9111111871316098e-05,1.5068904758663848e-05,6.279318768065423e-05
2.2615997295361012e-05,-5.114483428769745e-05,3.118423410342075e-05,3.491546885925345e-05,1.527757922303863e-05,5.944978693150915e-05
2.0724086425616406e-05,-5.4249627282842994e-05,2.973072878376115e-05,4.010317206848413e-05,1.38650975713972e-05,5.1936011004727334e-05
2.0888803192065097e-05,-5.289326873025857e-05,2.9466165869962424e-05,3.866264523821883e-05,7.995093255885877e-06,4.295488906791434e-05
2.4229588234447874e-05,-5.0520164222689345e-05,3.2390431442763656e-05,3.180984276696108e-05,-9.716344351318185e-08,4.284926762920804e-05
2.735913949436508e-05,-5.113970109960064e-05,3.534915595082566e-05,2.7347297873347998e-05,-2.3727370717097074e-06,5.488940587383695e-05
2.6385254386696033e-05,-5.438861626316793e-05,3.7146844988455996e-05,2.6267794964951463e-05,-7.144568030525988e-07,6.778808165108785e-05
2.2505597371491604e-05,-5.618519935524091e-05,3.735209975275211e-05,2.713085814320948e-05,-1.9576082195271738e-06,7.093233580235392e-05
1.7966296582017094e-05,-5.678063098457642e-05,3.3129192161140963e-05,2.7735321054933593e-05,-6.000268513162155e-06,6.74952898407355e-05
1.4098653082328383e-05,-5.505371154868044e-05,2.811882586684078e-05,2.7063575544161722e-05,-9.361400771012995e-06,6.594119622604921e-05
1.223511208081618e-05,-5.122711445437744e-05,2.6039400836452842e-05,3.0441789931501262e-05,-1.492117462476017e-05,6.251325976336375e-05
1.3687786122318357e-05,-4.742718010675162e-05,2.4101560484268703e-05,3.719175583682954e-05,-2.153414061467629e-05,5.578074342338368e-05
1.5384694052045234e-05,-4.9130499974125996e-05,2.018019040406216e-05,3.8259458960965276e-05,-2.3315364160225727e-05,5.380939182941802e-05
1.1761387213482521e-05,-5.531627903110348e-05,2.1825771909789182e-05,3.942552939406596e-05,-2.533004771976266e-05,5.999039422022179e-05
6.3497332121187355e-06,-5.7463039411231875e-05,2.548388329159934e-05,4.364382766652852e-05,-3.7900525057921186e-05,6.805346492910758e-05
7.292738700925838e-06,-5.675792635884136e-05,2.5486133381491527e-05,4.895790698355995e-05,-5.5259941291296855e-05,6.864132592454553e-05
1.0005393050960265e-05,-5.62527529837098e-05,2.2674983483739197e-05,4.914385135634802e-05,-6.900565495016053e-05,6.548147212015465e-05
1.044986038323259e-05,-5.450501339510083e-05,2.130645589204505e-05,4.3739968532463536e-05,-7.699734123889357e-05,6.417337863240391e-05
1.0839873539225664e-05,-5.114807208883576e-05,2.304332156199962e-05,3.476265192148276e-05,-8.061010157689452e-05,6.154854781925678e-05
1.3833921912009828e-05,-4.890884520136751e-05,2.355639480811078e-05,2.6451460144016892e-05,-8.043186244321987e-05,5.706970114260912e-05
1.8064889445668086e-05,-4.962275124853477e-05,2.341490653634537e-05,2.1931844457867555e-05,-7.097757770679891e-05,5.132792648510076e-05
2.1761223251814954e-05,-4.859916589339264e-05,2.6428455385030247e-05,1.7855669284472242e-05,-5.085175143904053e-05,5.123585287947208e-05
2.49911863647867e-05,-4.565395283862017e-05,2.86756348941708e-05,1.7588465198059566e-05,-1.915152824949473e-05,5.507276000571437e-05
2.5653765987954102e-05,-4.4468393753049895e-05,2.8835838747909293e-05,2.0345991288195364e-05,1.5067333151819184e-05,5.412843529484235e-05
2.6166833777097054e-05,-4.671420174418017e-05,2.9390481358859688e-05,2.285966729687061e-05,4.371156683191657e-05,4.640435508918017e-05
2.9475881092366762e-05,-4.967244603903964e-05,3.101450056419708e-05,2.3207590857055038e-05,6.808915350120515e-05,3.631619256339036e-05
3.261500023654662e-05,-5.036504808231257e-05,3.265385748818517e-05,2.1884356101509184e-05,8.686591900186613e-05,3.198519698344171e-05
3.191610085195862e-05,-4.880565029452555e-05,3.283924888819456e-05,2.1163619749131612e-05,9.378797403769568e-05,3.153607758576982e-05
2.8456473955884576e-05,-4.6761459088884294e-05,3.2476331398356706e-05,2.1139716409379616e-05,8.535255619790405e-05,3.257201024098322e-05
2.7474847229314037e-05,-4.738203642773442e-05,3.4525583032518625e-05,2.091956775984727e-05,6.913358811289072e-05,3.723510599229485e-05
3.111758269369602e-05,-4.923502274323255e-05,3.850335269817151e-05,2.1139432647032663e-05,5.240685641183518e-05,4.67244753963314e-05
3.653082967502996e-05,-4.906369576929137e-05,4.1700626752572134e-05,2.381133526796475e-05,3.622733856900595e-05,5.808046262245625e-05
3.871430817525834e-05,-4.765315679833293e-05,4.283370799385011e-05,2.709487671381794e-05,1.995066850213334e-05,6.521372415591031e-05
3.509872476570308e-05,-4.631396586773917e-05,4.02643381676171e-05,2.5692481358419172e-05,5.001179033570224e-06,6.526300421683118e-05
2.886524271161761e-05,-4.535326661425643e-05,3.535364885465242e-05,2.231498365290463e-05,-6.618899988097837e-06,6.0124995798105374e-05
2.2762194930692203e-05,-4.840559995500371e-05,2.961780410259962e-05,2.389232031418942e-05,-1.1966782039962709e-05,5.802598752779886e-05
1.8195984011981636e-05,-5.2634000894613564e-05,2.6272517061443068e-05,2.778947600745596e-05,-1.3520178981707431e-05,6.364040018524975e-05
1.5001207430032082e-05,-5.312164284987375e-05,2.4255508833448403e-05,2.853325531759765e-05,-1.5257886843755841e-05,7.176289363997057e-05
1.1787355106207542e-05,-5.039116149418987e-05,2.6049132429761812e-05,2.793206112983171e-05,-1.7607402696739882e-05,7.507201371481642e-05
9.217885235557333e-06,-5.032837361795828e-05,3.0658760806545615e-05,2.84251418634085e-05,-2.2630807507084683e-05,7.001553603913635e-05
6.926428341103019e-06,-5.4439060477307066e-05,3.194543023710139e-05,2.9203654776210897e-05,-2.6198322302661836e-05,6.385961023624986e-05
5.147607225808315e-06,-5.440923632704653e-05,3.1009851227281615e-05,2.9206146791693754e-05,-2.7006753953173757e-05,6.145015504444018e-05
4.738214101962512e-06,-5.003989645047113e-05,3.0554208933608606e-05,2.8940838092239574e-05,-2.757235233730171e-05,6.0147991462145e-05
3.6688149975816486e-06,-4.961802551406436e-05,3.056307468796149e-05,2.8068026949767955e-05,-2.7725520340027288e-05,6.364306318573654e-05
2.264363047288498e-06,-5.1748400437645614e-05,2.833980215655174e-05,3.122527414234355e-05,-2.9403627195279114e-05,6.992983253439888e-05
1.5285901326933526e-06,-5.3622963605448604e-05,2.5641018510214053e-05,3.4407112252665684e-05,-3.186096728313714e-05,7.45263896533288e-05
3.5444943478069035e-06,-5.4365395044442266e-05,2.7003450668416917e-05,3.435811595409177e-05,-3.3551881642779335e-05,7.61670817155391e-05
8.125844033202156e-06,-5.216005592956208e-05,3.055097840842791e-05,3.517878576531075e-05,-3.242718958063051e-05,7.219401595648378e-05
1.203256306325784e-05,-5.19712884852197e-05,3.239709621993825e-05,3.433696838328615e-05,-2.899094943131786e-05,6.499507435364649e-05
1.409555807185825e-05,-5.337691254680976e-05,3.1358191336039454e-05,3.3349271689075977e-05,-2.5752062356332317e-05,5.628446160699241e-05
1.4576292414858472e-05,-5.350937135517597e-05,2.9803914003423415e-05,3.0871400667820126e-05,-2.3178199626272544e-05,5.541520658880472e-05
1.5997635273379274e-05,-5.217168290982954e-05,2.9022983653703704e-05,2.420571217953693e-05,-2.2326979888021015e-05,6.242198287509382e-05
1.5851994248805568e-05,-5.262048580334522e-05,2.855514503607992e-05,1.5413612345582806e-05,-2.328899245185312e-05,6.927490176167339e-05
1.292574597755447e-05,-5.556942414841615e-05,2.9237064154585823e-05,1.1090451152995229e-05,-2.4627863240311854e-05,6.924487388459966e-05
1.2500366210588254e-05,-5.624393452308141e-05,3.191683936165646e-05,1.2458773198886774e-05,-2.4329607185791247e-05,6.34698080830276e-05
1.689613600319717e-05,-5.328401311999187e-05,3.437892155488953e-05,1.526758205727674e-05,-2.2958905901759863e-05,5.7131750509142876e-05
2.2928737962502055e-05,-5.03543415106833e-05,3.4072330890921876e-05,1.666836215008516e-05,-2.2813124815002084e-05,5.3057392506161705e-05
2.6724439521785825e-05,-5.0562055548653007e-05,3.106379517703317e-05,1.5921621525194496e-05,-2.444776509946678e-05,5.078493995824829e-05
2.6720448659034446e-05,-5.269650500849821e-05,2.8988535632379353e-05,1.4372293662745506e-05,-2.638727346493397e-05,4.904885281575844e-05
2.394554394413717e-05,-5.425718700280413e-05,2.9511340471799485e-05,1.3961433978693094e-05,-2.6550524125923403e-05,4.888848707196303e-05
2.219210182374809e-05,-5.46387855138164e-05,3.167779868817888e-05,1.6367734133382328e-05,-2.618180587887764e-05,4.68831931357272e-05
2.3635884645045735e-05,-5.4852473112987354e-05,3.6081590224057436e-05,1.7069971363525838e-05,-2.630486778798513e-05,4.4924308895133436e-05
2.6055833586724475e-05,-5.459371823235415e-05,3.824412124231458e-05,1.6138892533490434e-05,-2.4780667445156723e-05,4.4255015382077545e-05
2.422671423119027e-05,-5.2067454817006364e-05,3.595658563426696e-05,1.6264148143818602e-05,-2.1691776055376977e-05,4.639775579562411e-05
1.9872069970006123e-05,-4.5460481487680227e-05,3.440848377067596e-05,1.5521729437750764e-05,-1.6720445273676887e-05,5.0425333029124886e-05
1.8276128685101867e-05,-4.143317710258998e-05,3.325743819004856e-05,1.778853402356617e-05,-1.2170561603852548e-05,5.462441549752839e-05
2.018485429289285e-05,-4.304117464926094e-05,3.071607352467254e-05,2.4346623831661418e-05,-1.0142102837562561e-05,5.63531466468703e-05
2.1299687432474457e-05,-4.5825359848095104e-05,2.7824522476294078e-05,2.8707208912237547e-05,-7.711440048296936e-06,5.500418410520069e-05
2.268302341690287e-05,-4.613342025550082e-05,2.588993083918467e-05,3.039356852241326e-05,-5.728609266952844e-06,5.143244925420731e-05
2.8277492674533278e-05,-4.453907240531407e-05,2.4280720026581548e-05,2.9021630325587466e-05,-7.074669611029094e-06,4.7627054300392047e-05
3.465975169092417e-05,-4.500950308283791e-05,2.2839232769911177e-05,2.980308090627659e-05,-8.806411642581224e-06,4.3441981688374653e-05
3.6733199522132054e-05,-4.8159676225623116e-05,2.0724102796521038e-05,3.486668720142916e-05,-1.1050261491618585e-05,4.193791392026469e-05
3.310415559099056e-05,-4.94284977321513e-05,1.947705095517449e-05,4.258236367604695e-05,-1.3120765288476832e-05,4.231651473673992e-05
3.037819442397449e-05,-4.7877023462206125e-05,2.2756204998586327e-05,5.394417530624196e-05,-1.2708608664979693e-05,4.3336665839888155e-05
3.0540690204361454e-05,-4.667842949857004e-05,2.7274820240563713e-05,6.704506085952744e-05,-9.4225515567814e-06,4.606336005963385e-05
3.0101869924692437e-05,-4.669091140385717e-05,3.248093344154768e-05,7.63514035497792e-05,-3.647714265753166e-06,4.903396256850101e-05
2.7362460969015956e-05,-4.878283289144747e-05,3.5990102333016694e-05,7.076778274495155e-05,-1.0707965429901378e-06,5.278501339489594e-05
2.794920510496013e-05,-5.079172842670232e-05,3.5702018067240715e-05,5.829635847476311e-05,-3.232516519346973e-06,5.747983232140541e-05
3.0715778848389164e-05,-4.9310532631352544e-05,3.259701043134555e-05,5.2321563998702914e-05,-4.0632530726725236e-06,6.105665670474991e-05
2.8551572540891357e-05,-4.71269668196328e-05,3.1895040592644364e-05,4.9812140787253156e-05,-2.4231374595728994e-07,6.233408930711448e-05
2.2055935914977454e-05,-4.77778994536493e-05,3.4487682569306344e-05,4.359771992312744e-05,3.2490909234184073e-06,6.347343150991946e-05
1.4202525562723167e-05,-4.877694300375879e-05,3.772364289034158e-05,3.636053588707e-05,2.802922608680092e-06,6.317438237601891e-05
1.0192388799623586e-05,-4.9546764785191044e-05,3.7294641515472904e-05,3.1743504223413765e-05,9.13392000256863e-07,6.288812437560409e-05
1.1255240679020062e-05,-5.0652884965529665e-05,3.3143536711577326e-05,2.8675844077952206e-05,1.700869347587286e-06,6.360188854159787e-05
1.5630705092917196e-05,-5.0411348638590425e-05,3.083915726165287e-05,2.5180004740832373e-05,3.819701305474155e-06,6.341474363580346e-05
2.148864950868301e-05,-4.761473974213004e-05,3.248568100389093e-05,2.3118780518416315e-05,4.787701527675381e-06,6.0887294239364564e-05
2.6086167054018006e-05,-4.4857773900730535e-05,3.509691669023596e-05,2.3975997464731336e-05,6.0251945797062945e-06,5.801943188998848e-05
2.5290297344326973e-05,-4.354630800662562e-05,3.658952482510358e-05,2.631050483614672e-05,6.84297037878423e-06,5.576093099080026e-05
2.3519778551417403e-05,-4.410008114064112e-05,3.747735172510147e-05,2.737880095082801e-05,5.361852799978806e-06,5.2551138651324436e-05
2.4855251467670314e-05,-4.531832746579312e-05,3.795421071117744e-05,2.4699333152966574e-05,5.796400273538893e-06,4.744830948766321e-05
3.010519503732212e-05,-4.523455572780222e-05,3.862952871713787e-05,2.316992322448641e-05,7.130318863346474e-06,4.3401501898188144e-05
3.424884198466316e-05,-4.4814281864091754e-05,3.603003278840333e-05,2.5016397557919845e-05,2.586206846899586e-06,4.672377690440044e-05
3.3010204788297415e-05,-4.5436416257871315e-05,3.1673029297962785e-05,2.6570725822239183e-05,-6.202110853337217e-06,5.4141812142916024e-05
2.9678307328140363e-05,-4.52162348665297e-05,3.207806730642915e-05,2.5854042178252712e-05,-9.957589099940378e-06,5.990051067783497e-05
2.7373576813261025e-05,-4.6224256948335096e-05,3.814310548477806e-05,2.9001233997405507e-05,-7.252358955156524e-06,6.115178257459775e-05
2.903218410210684e-05,-4.730501677840948e-05,4.121175516047515e-05,3.1659645173931494e-05,-7.426759111694992e-06,5.988827979308553e-05
2.8768305128323846e-05,-4.673363218898885e-05,3.7537589378189296e-05,3.059865048271604e-05,-8.745603736315388e-06,5.81448657612782e-05
2.6591211280901916e-05,-4.6444529289146885e-05,3.179614577675238e-05,3.057638605241664e-05,-1.1447027645772323e-05,5.44380527571775e-05
2.4882047000573948e-05,-4.5975579268997535e-05,2.82890468952246e-05,3.150694101350382e-05,-1.3815882994094864e-05,5.553412120207213e-05
2.489489816071e-05,-4.725940743810497e-05,3.0420769689953886e-05,2.8740601919707842e-05,-1.4698181985295378e-05,6.231486622709781e-05
2.6192385121248662e-05,-4.723036545328796e-05,3.768832903006114e-05,2.5854660634649917e-05,-1.4862009265925735e-05,7.062560325721279e-05
2.6072300897794776e-05,-4.995342169422656e-05,4.414046634337865e-05,3.0808118026470765e-05,-1.1847617315652315e-05,7.595385250169784e-05
2.6240519218845293e-05,-5.2549326937878504e-05,4.6730834583286196e-05,3.5221270081819966e-05,-1.0378394108556677e-05,8.049583993852139e-05
2.8660879252129234e-05,-5.428674921859056e-05,4.345638808445074e-05,3.508721783873625e-05,-1.1132915460621007e-05,8.17954569356516e-05
3.1577073968946934e-05,-5.664834316121414e-05,3.615494642872363e-05,3.2210540666710585e-05,-1.332862302660942e-05,7.909386476967484e-05
3.185197783750482e-05,-5.661227260134183e-05,2.9703069230890833e-05,2.8105409001000226e-05,-1.2979771781829186e-05,7.692680810578167e-05
3.0272776712081395e-05,-5.535181480809115e-05,2.6955936846206896e-05,2.4088310965453275e-05,-1.2468422937672585e-05,7.54792636143975e-05
3.0228848117985763e-05,-5.324940866557881e-05,2.4326991479028948e-05,2.228686753369402e-05,-1.3145870980224572e-05,7.46447331039235e-05
3.114397622994147e-05,-5.102756040287204e-05,2.4042639779509045e-05,2.4446722818538547e-05,-1.6158515791175887e-05,7.25904610590078e-05
3.005226972163655e-05,-4.9680384108796716e-05,2.7774836780736223e-05,2.964669511129614e-05,-2.0108445824007504e-05,7.02503093634732e-05
2.8759246561094187e-05,-5.201393287279643e-05,3.0713748856214806e-05,3.335320798214525e-05,-2.224148738605436e-05,6.868657510494813e-05
2.768101512629073e-05,-5.528990368475206e-05,3.1483054044656456e-05,3.023398130608257e-05,-2.4449231204926036e-05,6.594062870135531e-05
2.729020889091771e-05,-5.64061374461744e-05,3.2473304599989206e-05,2.404482802376151e-05,-2.7844020223710686e-05,6.124335777712986e-05
2.7422362109064125e-05,-5.6585358834126964e-05,3.368844045326114e-05,2.1131405446794815e-05,-2.9728462322964333e-05,5.877073635929264e-05
2.6782381610246375e-05,-5.869094093213789e-05,3.141570050502196e-05,2.2059251932660118e-05,-2.7178790332982317e-05,5.8857931435341015e-05
2.5362871383549646e-05,-5.997990956529975e-05,2.807006057992112e-05,2.54320511885453e-05,-2.2706557501805946e-05,6.058652070350945e-05
2.5325723981950432e-05,-5.913007044000551e-05,2.7887921532965265e-05,2.773514097498264e-05,-1.893820626719389e-05,6.017546547809616e-05
2.489911457814742e-05,-5.541030259337276e-05,2.9544433346018195e-05,2.5156352421618067e-05,-1.7522857888252474e-05,5.845251871505752e-05
2.1984367776894942e-05,-5.261445767246187e-05,3.142659261357039e-05,2.2869184249429964e-05,-1.7278915038332343e-05,6.002886584610678e-05
2.115965799021069e-05,-5.213301119511016e-05,3.3142823667731136e-05,2.2946403987589292e-05,-1.928267920447979e-05,6.299039523582906e-05
2.3009826691122726e-05,-5.194845289224759e-05,3.112625199719332e-05,2.0851875888183713e-05,-1.993696605495643e-05,6.633847806369886e-05
2.6166500902036205e-05,-5.210483868722804e-05,2.780939576041419e-05,1.556761890242342e-05,-1.4532423847413156e-05,6.489772204076871e-05
2.68186631728895e-05,-5.1420374802546576e-05,2.9774289941997267e-05,1.47116852531326e-05,-7.024315891612787e-06,6.125480285845697e-05
2.2815365809947252e-05,-5.0538328650873154e-05,3.268758155172691e-05,1.9163011529599316e-05,-3.4418121686030645e-06,6.459119322244078e-05
2.0635625332943164e-05,-4.823198833037168e-05,3.1295545340981334e-05,2.2816204364062287e-05,-1.3798302234135917e-06,6.736660725437105e-05
1.9309269191580825e-05,-4.724278187495656e-05,3.0315215553855523e-05,2.3669761503697373e-05,-4.2260862187504245e-07,6.909871444804594e-05
1.6504896848346107e-05,-4.792602703673765e-05,2.924699401773978e-05,2.1251282305456698e-05,-3.6157635463496263e-07,6.935715646250173e-05
1.3931079593021423e-05,-4.728131534648128e-05,2.9280234230100177e-05,1.9479901311569847e-05,8.041603791753005e-07,6.500775634776801e-05
1.2758872799167875e-05,-4.399841054691933e-05,3.0859166145091876e-05,2.1480131181306206e-05,2.9162829378037713e-06,6.0511771152960137e-05
1.1426233868405689e-05,-4.227158933645114e-05,3.306951839476824e-05,2.342079096706584e-05,2.133052021235926e-06,5.821067315991968e-05
8.703407729626633e-06,-4.2451101762708277e-05,3.141353590763174e-05,2.1842282876605168e-05,-2.9881268801545957e-06,5.5991156841628253e-05
7.77274999563815e-06,-4.06957624363713e-05,2.9416514735203236e-05,2.136520379281137e-05,-6.332592420221772e-06,5.4838274081703275e-05
9.552381925459486e-06,-3.9701873902231455e-05,3.218214260414243e-05,2.456388574501034e-05,-5.820784281240776e-06,5.577906995313242e-05
1.3089525964460336e-05,-3.983840724686161e-05,3.442576780798845e-05,2.804000541800633e-05,-5.6819908422767185e-06,5.7986868341686204e-05
1.606214209459722e-05,-4.290891229175031e-05,3.184290471835993e-05,2.720386146393139e-05,-6.826671324233757e-06,5.9166792198084295e-05
1.7670805391389877e-05,-4.683564475271851e-05,2.6985648219124414e-05,2.549347664171364e-05,-6.959774054848822e-06,5.538028563023545e-05
1.617898487893399e-05,-4.726604311144911e-05,2.4453020159853622e-05,2.8616896088351496e-05,-7.300898232642794e-06,4.679012272390537e-05
1.2892533959529828e-05,-4.4513897591969e-05,2.6905310733127408e-05,3.4007123758783564e-05,-8.754757800488733e-06,3.9119528082665056e-05
1.037104993883986e-05,-4.3252217437839136e-05,3.155787635478191e-05,3.6289329727878794e-05,-1.2111787327739876e-05,3.95089628000278e-05
1.0687816939025652e-05,-4.2884392314590514e-05,3.388170080143027e-05,3.711936733452603e-05,-2.218072404502891e-05,4.578791413223371e-05
1.353377774648834e-05,-4.089323920197785e-05,3.408176780794747e-05,3.7793299270560965e-05,-3.420027860556729e-05,5.1147915655747056e-05
1.7245140043087304e-05,-3.9009537431411445e-05,3.253785689594224e-05,3.787319656112231e-05,-3.7399178836494684e-05,5.216595673118718e-05
1.8252228983328678e-05,-4.0137962059816346e-05,2.9387449103523977e-05,3.999110049335286e-05,-3.263413600507192e-05,5.143612725078128e-05
1.5008176887931768e-05,-4.393496783450246e-05,2.4764149202383123e-05,4.1247585613746196e-05,-2.6737310690805316e-05,5.3634783398592845e-05
1.1627499588939827e-05,-4.63041833427269e-05,2.5100214770645835e-05,4.0378985431743786e-05,-1.9134631656925194e-05,5.7139932323480025e-05
1.1642068784567527e-05,-4.767992868437432e-05,3.0867573514115065e-05,3.841711804852821e-05,-6.851356374681927e-06,5.320811760611832e-05
1.5671083019697107e-05,-5.034085552324541e-05,3.583214129321277e-05,3.479411680018529e-05,3.543387038007495e-06,4.6303477574838325e-05
1.929700556502212e-05,-5.192549724597484e-05,3.6926714528817683e-05,3.314022978884168e-05,9.433121704205405e-06,4.042148793814704e-05
1.8759814338409342e-05,-5.322818105923943e-05,3.434593236306682e-05,3.5326236684340984e-05,1.4014342923474032e-05,4.040487328893505e-05
1.7104590369854122e-05,-5.3841107728658244e-05,2.965930434584152e-05,3.773620483116247e-05,1.534318653284572e-05,4.556868225336075e-05
1.6118987332447432e-05,-4.9015092372428626e-05,2.899235005315859e-05,3.562575511750765e-05,1.2759302990161814e-05,4.856018131249584e-05
1.6610516468062997e-05,-4.429807449923828e-05,2.9641701985383406e-05,2.916876837844029e-05,1.3600501006294508e-05,5.146790135768242e-05
1.7155480236397125e-05,-4.4252625230001286e-05,2.8931801352882758e-05,2.704252619878389e-05,1.5320974853239022e-05,5.3650030167773366e-05
1.676248575677164e-05,-4.885059388470836e-05,2.8914337235619314e-05,3.0455641535809264e-05,1.23029394671903e-05,5.36192674189806e-05
1.712777702778112e-05,-4.853969585383311e-05,2.7717853299691342e-05,3.213655872968957e-05,1.911417257360881e-06,5.508154208655469e-05
1.679517845332157e-05,-4.5944168959977105e-05,2.5625142370699905e-05,3.1303748983191326e-05,-8.747878382564522e-06,5.92751894146204e-05
1.7899752492667176e-05,-4.62161005998496e-05,2.538856460887473e-05,3.1480940378969535e-05,-1.3569650036515668e-05,6.485837366199121e-05
1.900036477309186e-05,-4.797157089342363e-05,2.785561628115829e-05,3.251626912970096e-05,-1.4362673027790152e-05,6.790753832319751e-05
2.1722922610933892e-05,-5.184199471841566e-05,3.1953670259099454e-05,3.144469883409329e-05,-1.1390450708859134e-05,6.40109064988792e-05
2.3510971004725434e-05,-5.5585911468369886e-05,3.51799899362959e-05,2.9814567824359983e-05,-8.644532499602064e-06,6.023495734552853e-05
2.2542764781974256e-05,-5.632030661217868e-05,3.3957261621253565e-05,3.117544110864401e-05,-4.377011009637499e-06,6.004891838529147e-05
2.027743903454393e-05,-5.33955535502173e-05,3.2510230084881186e-05,3.4070519177475944e-05,6.34640628049965e-07,5.987339682178572e-05
1.8556078430265188e-05,-5.042117118136957e-05,3.5417851904639974e-05,3.627546539064497e-05,3.846387244266225e-06,5.5167634855024517e-05
1.7980553820962086e-05,-4.9673304602038115e-05,3.752327029360458e-05,3.825784369837493e-05,3.6409458061825717e-06,5.0138663937104866e-05
1.804993735277094e-05,-5.120475543662906e-05,3.4288663300685585e-05,3.954859857913107e-05,2.8038366508553736e-06,5.1674582209670916e-05
1.8954397091874853e-05,-5.322499055182561e-05,3.0000026526977308e-05,3.8382586353691295e-05,2.37259723689931e-06,5.516791497939266e-05
2.0955572836101055e-05,-5.521255297935568e-05,2.7555572160053998e-05,3.714041304192506e-05,2.892223619710421e-06,5.51153534615878e-05
2.363947351113893e-05,-5.569059430854395e-05,2.6530147806624882e-05,3.626685793278739e-05,3.525422698658076e-06,5.3452062275027856e-05
2.5972994990297593e-05,-5.303504440234974e-05,2.7330064767738804e-05,3.189634662703611e-05,1.3687346154256375e-06,5.331431020749733e-05
2.7429901820141822e-05,-4.893524601357058e-05,3.0772116588195786e-05,2.8536962418002076e-05,3.377928408099251e-07,5.291487104841508e-05
2.678530290722847e-05,-5.0588227168191224e-05,3.480614395812154e-05,3.1536754249827936e-05,7.253952958308219e-07,5.098744804854505e-05
2.834238694049418e-05,-5.373758540372364e-05,3.7125217204447836e-05,3.5226948966737837e-05,-1.132323632191401e-06,5.1557875849539414e-05
3.0428083846345544e-05,-5.229530870565213e-05,3.93995396734681e-05,3.587428363971412e-05,-3.4282061278645415e-06,5.4275293223327026e-05
3.069803642574698e-05,-5.189307557884604e-05,4.2113846575375646e-05,3.50995542248711e-05,-5.162451088835951e-06,5.21142574143596e-05
3.10425202769693e-05,-5.3399639000417665e-05,4.276461186236702e-05,3.22539999615401e-05,-8.679795428179204e-06,5.040968972025439e-05
3.1371560908155516e-05,-5.6229502661153674e-05,4.338733197073452e-05,3.158601975883357e-05,-1.196484845422674e-05,5.4082243877928704e-05
2.7221449272474274e-05,-5.743296060245484e-05,4.30215586675331e-05,2.8826832931372337e-05,-1.1921554687432945e-05,5.6026954553090036e-05
2.4501243387931027e-05,-5.516067903954536e-05,4.0222046663984656e-05,2.3746515580569394e-05,-9.745695933816023e-06,6.0545597079908475e-05
2.491156556061469e-05,-5.2293580665718764e-05,3.760664912988432e-05,2.436042450426612e-05,-5.7130600907839835e-06,6.749220483470708e-05
2.254657374578528e-05,-5.123666414874606e-05,3.5225493775215e-05,2.67350969807012e-05,-4.107087079319172e-06,6.68736029183492e-05
2.0710747776320204e-05,-5.225526911090128e-05,3.422981171752326e-05,2.703737118281424e-05,-5.56957002117997e-06,6.444431346608326e-05
2.2313135559670627e-05,-5.225126733421348e-05,3.427413321333006e-05,2.6285017156624235e-05,-7.587213985971175e-06,6.465782644227147e-05
2.5206225473084487e-05,-5.121559297549538e-05,3.297124203527346e-05,2.840043634932954e-05,-1.2003919437120203e-05,6.454227695940062e-05
2.643932202772703e-05,-4.81059068988543e-05,3.0064609745750204e-05,3.083577030338347e-05,-1.5251172044372652e-05,6.325203867163509e-05
2.610824776638765e-05,-4.686390093411319e-05,2.925070293713361e-05,3.1401497835759073e-05,-1.771899769664742e-05,5.755956226494163e-05
2.6934181732940488e-05,-4.60532282886561e-05,2.9906641429988667e-05,2.7366246285964735e-05,-1.8798387827700935e-05,4.914387682219967e-05
3.1654704798711464e-05,-4.568960139295086e-05,3.041317359020468e-05,2.2361526134773158e-05,-1.8824435755959712e-05,4.2049352487083524e-05
3.6743491364177316e-05,-4.451020140550099e-05,3.0833372875349596e-05,2.004863381444011e-05,-1.939549474627711e-05,3.85649072995875e-05
3.496071803965606e-05,-4.3464584450703114e-05,3.170801937812939e-05,2.0150306227151304e-05,-2.124033017025795e-05,3.9354461478069425e-05
2.6944680939777754e-05,-4.3082469346700236e-05,2.955288982775528e-05,2.2316171452985145e-05,-2.1727673811255954e-05,4.04339334636461e-05
1.958699431270361e-05,-4.2954226955771446e-05,2.5356981495860964e-05,2.4108394427457824e-05,-2.1165564248804003e-05,4.1220515413442627e-05
1.716055703582242e-05,-4.334186451160349e-05,2.5372079107910395e-05,2.3401375074172392e-05,-2.0911646060994826e-05,4.6632729208795354e-05
1.8801618352881633e-05,-4.175202047917992e-05,2.9610653655254282e-05,2.0660592781496234e-05,-2.1344685592339374e-05,5.744434747612104e-05
2.209103877248708e-05,-4.1170656913891435e-05,3.3460015401942655e-05,2.0453651814023033e-05,-2.3515263819717802e-05,6.636770558543503e-05
2.4394668798777275e-05,-4.471771535463631e-05,3.329215178382583e-05,1.9661061742226593e-05,-2.3400238205795176e-05,7.098033529473469e-05
2.2558211639989167e-05,-4.975204137736e-05,3.0810984753770754e-05,1.922523915709462e-05,-1.832394627854228e-05,7.40865507395938e-05
1.8186532543040812e-05,-5.07232325617224e-05,2.9870088837924413e-05,2.1245923562673852e-05,-1.377082026010612e-05,7.539439684478566e-05
1.5909632566035725e-05,-4.870656266575679e-05,2.8229576855665073e-05,2.3703854822088033e-05,-1.3722186849918216e-05,7.546160486526787e-05
1.6536871044081636e-05,-4.680345591623336e-05,2.649284215294756e-05,2.368588866374921e-05,-1.5817369785509072e-05,7.766630005789921e-05
1.765401248121634e-05,-4.87893121317029e-05,3.1868970836512744e-05,2.2042131604393944e-05,-2.0366758690215647e-05,7.683149306103587e-05
1.72218478837749e-05,-5.0910770369227976e-05,3.6971956433262676e-05,2.2578731659450568e-05,-2.9354278012760915e-05,7.159868982853368e-05
1.6408381270593964e-05,-5.206168498261832e-05,3.563905556802638e-05,2.272948950121645e-05,-4.717506453744136e-05,6.954749551368877e-05
1.447527392883785e-05,-5.3732379456050694e-05,3.204694439773448e-05,2.458732524246443e-05,-7.210334297269583e-05,6.714658957207575e-05
1.3780349036096595e-05,-5.3759398724650964e-05,2.9542923584813252e-05,2.7609774406300858e-05,-9.919567673932761e-05,6.595742888748646e-05
1.4100610314926598e-05,-5.281598714645952e-05,2.8225227652001195e-05,2.8709053367492743e-05,-0.00011682095646392554,6.471076630987227e-05
1.223282924911473e-05,-5.528706242330372e-05,3.156177626806311e-05,2.7450438210507855e-05,-0.00011518227256601676,6.121396290836856e-05
1.0423929779790342e-05,-5.874954513274133e-05,3.440403088461608e-05,2.1884896341362037e-05,-9.8220887593925e-05,6.172116991365328e-05
8.57085979077965e-06,-5.906533624511212e-05,3.1851308449404314e-05,1.4874627595418133e-05,-7.393856503767893e-05,6.457536801462993e-05
9.592157766746823e-06,-5.544101804844104e-05,2.7842013878398575e-05,1.0339739674236625e-05,-4.3393607484176755e-05,6.514543201774359e-05
1.1608349268499296e-05,-5.414196493802592e-05,2.5507220925646834e-05,1.2248254279256798e-05,-4.544212515611434e-06,6.08132359047886e-05
1.2896965927211568e-05,-5.3264502639649436e-05,2.4032347937463783e-05,1.4473819646809716e-05,3.4330794733250514e-05,5.47053205082193e-05
1.4031063983566128e-05,-5.145743489265442e-05,2.340048558835406e-05,1.764905573509168e-05,6.489313091151416e-05,5.1118033297825605e-05
1.6456018784083426e-05,-5.090514969197102e-05,2.4521572413505055e-05,1.992586476262659e-05,8.414887270191684e-05,5.362240699469112e-05
1.8849425032385625e-05,-5.319907359080389e-05,2.5596584237064235e-05,2.0594521629391238e-05,9.291934838984162e-05,6.044651672709733e-05
1.851419801823795e-05,-5.5979307944653556e-05,2.7259016860625707e-05,2.1049581846455112e-05,9.246252739103511e-05,6.602310895686969e-05
1.803063969418872e-05,-5.6144828704418615e-05,2.719246913329698e-05,2.1059739083284512e-05,8.542482100892812e-05,6.951432442292571e-05
2.0476112695178017e-05,-5.685584983439185e-05,2.6033765607280657e-05,2.0280953322071582e-05,7.479487248929217e-05,7.126307173166424e-05
2.3891892851679586e-05,-5.684836287400685e-05,2.4126453354256228e-05,1.9623485059128143e-05,5.9786063502542675e-05,7.013409776845947e-05
2.689831489988137e-05,-5.390778824221343e-05,2.3984594008652493e-05,2.151614535250701e-05,4.382026236271486e-05,6.565332296304405e-05
2.8978322006878443e-05,-4.879218977293931e-05,2.9070139135001227e-05,2.209054582635872e-05,3.228720015613362e-05,6.235048931557685e-05
2.8831827876274474e-05,-4.652186544262804e-05,3.560217373888008e-05,2.318372753506992e-05,2.3114744180929847e-05,6.524814671138301e-05
2.662235237949062e-05,-4.7466015530517325e-05,3.61551865353249e-05,2.576385668362491e-05,1.221002185047837e-05,7.064544479362667e-05
2.5353647288284265e-05,-4.839804387302138e-05,3.2793697755550966e-05,2.8297985409153625e-05,3.3894784792209975e-06,7.367421494564041e-05
2.490933366061654e-05,-4.6658922656206414e-05,3.249830479035154e-05,3.1311632483266294e-05,-7.986973855622637e-07,7.443242066074163e-05
2.5519480914226733e-05,-4.4959699152968824e-05,3.370631020516157e-05,3.7058671296108514e-05,-3.578357109290664e-06,7.221933628898114e-05
2.941544880741276e-05,-4.382857878226787e-05,3.58358483936172e-05,4.275289029465057e-05,-8.197196621040348e-06,6.940322055015713e-05
3.172158176312223e-05,-4.3123676732648164e-05,3.970526086050086e-05,4.6750988985877484e-05,-1.3632798072649166e-05,6.800887786084786e-05
3.2183135772356763e-05,-4.3334301153663546e-05,3.9988954085856676e-05,4.5268669055076316e-05,-1.64454886544263e-05,6.891662633279338e-05
3.382977592991665e-05,-4.57718524558004e-05,4.146792707615532e-05,4.068354974151589e-05,-1.614517896086909e-05,6.904469046276063e-05
3.889206345775165e-05,-4.732918387162499e-05,4.583243207889609e-05,3.850973371299915e-05,-1.924033676914405e-05,6.833950465079397e-05
4.1269839130109176e-05,-4.456891838344745e-05,4.446428647497669e-05,4.172345143160783e-05,-2.4160859538824297e-05,6.943084736121818e-05
4.069769420311786e-05,-4.200680632493459e-05,3.965210635215044e-05,4.557910142466426e-05,-2.568934542068746e-05,7.056922186166048e-05
4.0863083995645866e-05,-4.002235073130578e-05,3.717153231264092e-05,5.34673199581448e-05,-2.486557059455663e-05,6.916668644407764e-05
4.050130155519582e-05,-4.0418577555101365e-05,3.7188674468779936e-05,6.757659139111638e-05,-2.2636460926150903e-05,6.547626981046051e-05
3.997080057160929e-05,-4.546299533103593e-05,3.8677098928019404e-05,7.394949352601543e-05,-2.0455841877264902e-05,6.333878263831139e-05
3.8196216337382793e-05,-4.8497018724447116e-05,3.986354931839742e-05,6.719181692460552e-05,-1.9464063370833173e-05,6.334565114229918e-05
3.5370354453334585e-05,-4.9033482355298474e-05,3.9659156755078584e-05,5.645184137392789e-05,-2.124981619999744e-05,6.456026312662289e-05
3.377597749931738e-05,-4.775775596499443e-05,3.98603078792803e-05,4.563514448818751e-05,-2.324571687495336e-05,6.433158705476671e-05
3.241447848267853e-05,-4.658203397411853e-05,3.9925322198541835e-05,3.441525041125715e-05,-2.2691208869218826e-05,6.393327930709347e-05
3.133831705781631e-05,-4.486944089876488e-05,3.6711368011310697e-05,2.6762272682390176e-05,-2.301550739503e-05,6.323382694972679e-05
3.139074397040531e-05,-4.478959817788564e-05,3.392119106138125e-05,2.4209941329900175e-05,-2.649413545441348e-05,6.17264595348388e-05
3.381152419024147e-05,-4.620765321305953e-05,3.5964156268164515e-05,2.5760844437172636e-05,-2.8345129976514727e-05,5.773592783953063e-05
3.564359576557763e-05,-4.5841570681659505e-05,3.795867814915255e-05,2.643178049765993e-05,-2.673063863767311e-05,5.3302832384360954e-05
3.273720358265564e-05,-4.4383621570887044e-05,3.7004894693382084e-05,2.5895915314322338e-05,-2.3603564841323532e-05,5.194651384954341e-05
2.728756589931436e-05,-4.413189162733033e-05,3.192175063304603e-05,2.3416489057126455e-05,-2.1858311811229214e-05,5.101567876408808e-05
2.245490213681478e-05,-4.671671922551468e-05,2.826163290592376e-05,1.9264609363744967e-05,-2.2259608158492483e-05,4.8583471652818844e-05
1.972352220036555e-05,-4.854961662204005e-05,3.072881372645497e-05,1.545950181025546e-05,-2.164686520700343e-05,4.552198151941411e-05
1.9334727767272852e-05,-4.7646470193285495e-05,3.409100463613868e-05,1.653745857765898e-05,-1.7270436728722416e-05,4.494807944865897e-05
2.025070170930121e-05,-4.4421649363357574e-05,3.187718539265916e-05,2.1974654373480007e-05,-1.239029188582208e-05,4.543714385363273e-05
1.9686876839841716e-05,-4.389802415971644e-05,2.6088064259965904e-05,2.758899427135475e-05,-9.219309504260309e-06,4.638126483769156e-05
1.71614174178103e-05,-4.648558751796372e-05,2.1348399968701415e-05,3.067213037866168e-05,-8.618789252068382e-06,4.5194679842097685e-05
1.5957002688082866e-05,-4.965669722878374e-05,2.1033141820225865e-05,3.218623896827921e-05,-9.28967165236827e-06,4.109074507141486e-05
1.771897768776398e-05,-5.023018820793368e-05,2.393619251961354e-05,3.086275319219567e-05,-9.825779670791235e-06,4.0300354157807305e-05
1.772804171196185e-05,-4.883110887021758e-05,2.7319774744682945e-05,2.385817060712725e-05,-1.1803399502241518e-05,4.419868491822854e-05
1.6463149222545326e-05,-4.630827606888488e-05,2.9244882171042264e-05,1.8006614482146688e-05,-1.3003568710701074e-05,4.9315724027110264e-05
1.5191450984275434e-05,-4.6658897190354764e-05,2.7922993467655033e-05,1.3860212675353978e-05,-1.3164662959752604e-05,5.4364947573048994e-05
1.1873460607603192e-05,-4.986558633390814e-05,2.6377379981568083e-05,1.2777725714840926e-05,-1.4183026905811857e-05,5.789210263174027e-05
1.0750312867457978e-05,-5.402571696322411e-05,2.574372228991706e-05,1.832911220844835e-05,-2.072716597467661e-05,5.878494630451314e-05
1.561504541314207e-05,-5.725613664253615e-05,2.9405202440102585e-05,2.3325837901211344e-05,-3.0988772778073326e-05,6.081894025555812e-05
1.600498944753781e-05,-5.785119719803333e-05,3.338605893077329e-05,2.697986019484233e-05,-3.3617616281844676e-05,6.532637780765072e-05
1.091260855901055e-05,-5.6227410823339596e-05,3.345102595631033e-05,2.9883151000831276e-05,-2.8439169909688644e-05,6.948322698008269e-05
8.64276080392301e-06,-5.391487866290845e-05,3.2213018130278215e-05,2.7807396691059694e-05,-2.4672885047039017e-05,6.977421435294673e-05
9.762000445334706e-06,-5.450577737065032e-05,3.1194507755571976e-05,2.2869477106723934e-05,-2.352489173063077e-05,6.12891381024383e-05
1.1364476449671201e-05,-5.554064046009444e-05,3.148223186144605e-05,1.882066499092616e-05,-2.247844895464368e-05,4.894467565463856e-05
9.302267244493123e-06,-5.291264096740633e-05,3.278537406004034e-05,1.7781660062610172e-05,-2.0289484382374212e-05,4.235573214828037e-05
5.080810751678655e-06,-4.982566679245792e-05,3.3031534258043393e-05,2.1056117475382052e-05,-1.8307850041310303e-05,4.6534594730474055e-05
3.8749431041651405e-06,-5.22277841810137e-05,3.198976264684461e-05,2.4764563931967132e-05,-1.614507709746249e-05,5.6929991842480376e-05
6.454827598645352e-06,-5.485563451657072e-05,3.118749737041071e-05,2.4562925318605267e-05,-1.337738194706617e-05,6.216963811311871e-05
9.83820154942805e-06,-5.513021460501477e-05,3.315725189168006e-05,2.388936081842985e-05,-1.1895654097315855e-05,5.822890670970082e-05
1.2762432561430614e-05,-5.569979111896828e-05,3.59930309059564e-05,2.4985520212794654e-05,-1.1639875992841553e-05,5.360156137612648e-05
1.6202577171497978e-05,-5.821698505314998e-05,3.539336466928944e-05,2.708384818106424e-05,-8.052614248299506e-06,5.139008499099873e-05
1.9142507881042548e-05,-5.852676258655265e-05,3.164852023473941e-05,2.796893022605218e-05,-4.683770100655238e-07,4.8682817578082904e-05
1.88753183465451e-05,-5.6058554037008435e-05,2.9149701731512323e-05,3.007190207426902e-05,5.818058070872212e-06,4.880524647887796e-05
1.6577663700445555e-05,-5.3496409236686304e-05,2.9587354219984263e-05,3.5830398701364174e-05,6.915217909408966e-06,4.8263915232382715e-05
1.5879453712841496e-05,-5.261012847768143e-05,3.0293542295112275e-05,4.1089246224146336e-05,4.346463356341701e-06,4.155490023549646e-05
1.814912502595689e-05,-5.3606050641974434e-05,3.19706232403405e-05,4.0621485823066905e-05,1.249199954145297e-06,3.371246930328198e-05
2.0770849005202763e-05,-5.271793997962959e-05,3.4736858651740476e-05,3.724739872268401e-05,-2.6467980660527246e-06,3.0544742912752554e-05
2.4293389287777245e-05,-5.214895645622164e-05,3.562082565622404e-05,3.4467440855223686e-05,-4.771995918417815e-06,2.9004782845731825e-05
2.627326102810912e-05,-5.343227167031728e-05,3.431132063269615e-05,3.26980443787761e-05,-5.272041107673431e-06,3.289229789515957e-05
2.396073796262499e-05,-5.563795639318414e-05,3.426072362344712e-05,3.1940784538164735e-05,-6.658149686700199e-06,4.562564572552219e-05
1.957913082151208e-05,-5.66402668482624e-05,3.715738785103895e-05,3.1205003324430436e-05,-7.0572405093116686e-06,5.869423694093712e-05
1.903843440231867e-05,-5.520220656762831e-05,3.923660915461369e-05,3.1197047064779326e-05,-3.6633812214859063e-06,6.021553781465627e-05
2.3262524337042123e-05,-5.491852425620891e-05,3.8374178984668106e-05,2.6557712772046216e-05,-1.5414121889989474e-06,5.312824578140862e-05
2.3709397282800637e-05,-5.5465614423155785e-05,3.7033289117971435e-05,2.3239297661348246e-05,-2.936971668532351e-06,5.262392369331792e-05
2.0824236344196834e-05,-5.476676597027108e-05,3.6835270293522626e-05,2.3988432076293975e-05,-6.970556569285691e-06,5.948113539488986e-05
2.1896159523748793e-05,-5.178354695090093e-05,3.7802266888320446e-05,2.4232558644143865e-05,-1.1102571079391055e-05,6.60042351228185e-05
2.615841367514804e-05,-4.98860863444861e-05,3.56749260390643e-05,2.518862675060518e-05,-1.2692682503256947e-05,6.727503205183893e-05
2.599853542051278e-05,-5.097558459965512e-05,3.14202370645944e-05,2.314875200681854e-05,-1.3480510460794903e-05,6.527211371576414e-05
2.271684024890419e-05,-5.0690814532572404e-05,3.0448009056271985e-05,2.0680416128016077e-05,-1.0771627785288729e-05,6.683441461063921e-05
1.951202648342587e-05,-5.074662112747319e-05,3.0411649277084507e-05,2.2583186364499852e-05,-9.301104000769556e-06,7.009002001723275e-05
1.5330077076214366e-05,-5.022381810704246e-05,2.9905620976933278e-05,2.8324702725512907e-05,-1.0840572031156626e-05,7.165280112531036e-05
1.425590380677022e-05,-4.8596641136100516e-05,2.9736234864685684e-05,3.152695717290044e-05,-8.749055268708616e-06,7.206438749562949e-05
1.7200751244672574e-05,-4.6050194214330986e-05,2.966832835227251e-05,3.179738996550441e-05,-5.36694915354019e-06,6.850057980045676e-05
1.7925769498106092e-05,-4.333118340582587e-05,2.921715895354282e-05,3.215891047148034e-05,-6.563306214957265e-06,6.058201688574627e-05
1.39866760946461e-05,-4.192115011392161e-05,2.913367461587768e-05,3.198550621164031e-05,-9.31982049223734e-06,5.3553612815449014e-05
9.464526556257624e-06,-4.2783893150044605e-05,3.075641507166438e-05,2.8282986022531986e-05,-7.951719453558326e-06,5.298931137076579e-05
8.610081749793608e-06,-4.3489137169672176e-05,3.105338691966608e-05,1.9768758647842333e-05,-5.13721670358791e-06,5.5753669585101306e-05
1.069878908310784e-05,-4.219325273879804e-05,2.8936079615959898e-05,1.553104812046513e-05,-5.174062607693486e-06,5.553479422815144e-05
1.3196800864534453e-05,-4.106045889784582e-05,2.36168343690224e-05,1.8550248569226824e-05,-6.494302851933753e-06,5.4218515288084745e-05
1.5647961845388636e-05,-4.282661757315509e-05,1.7559439584147185e-05,2.1935178665444255e-05,-7.297650427062763e-06,5.6434713769704103e-05
1.7717282389639877e-05,-4.6228826249716803e-05,1.531245834485162e-05,2.2041838747099973e-05,-9.505340130999684e-06,5.948558828094974e-05
1.9786899429163896e-05,-4.833007187698968e-05,1.8366008589509875e-05,2.3180025891633704e-05,-1.2633548976737075e-05,6.127708911662921e-05
2.115628194587771e-05,-4.790660386788659e-05,2.481052251823712e-05,2.735075213422533e-05,-1.5260766303981654e-05,6.333561759674922e-05
2.3899432562757283e-05,-4.471777720027603e-05,3.030841071449686e-05,3.097919397987425e-05,-1.7592979929759167e-05,6.675591430393979e-05
2.519992813176941e-05,-4.171768523519859e-05,3.1998162739910185e-05,3.110959005425684e-05,-1.700476059340872e-05,6.757733353879303e-05
2.3147467800299637e-05,-4.0101273043546826e-05,2.9507282306440175e-05,2.908163151005283e-05,-1.2139118553022854e-05,6.456106348196045e-05
2.2729533156962134e-05,-4.0606839320389554e-05,2.6351774067734368e-05,2.69251595454989e-05,-6.835997737653088e-06,6.608055991819128e-05
2.4535900593036786e-05,-4.1488900023978204e-05,2.836047497112304e-05,2.5278488465119153e-05,-3.193727252437384e-06,7.026828097878024e-05
2.685309482330922e-05,-4.315923433750868e-05,3.104822098976001e-05,2.6768319003167562e-05,-2.977752728838823e-06,7.028771506156772e-05
2.8421571187209338e-05,-4.4670126953860745e-05,2.7932517696172e-05,2.7853520805365406e-05,-4.6195532377169e-06,6.475021655205637e-05
3.0636794690508395e-05,-4.348782749730162e-05,2.5176359486067668e-05,2.4391914848820306e-05,-6.20221499048057e-06,6.128357927082106e-05
3.0820890970062464e-05,-3.927241050405428e-05,2.6278928999090567e-05,2.535034218453802e-05,-6.52923063171329e-06,6.128009408712387e-05
2.926579509221483e-05,-3.6622994230128825e-05,3.0402217817027122e-05,2.888032940973062e-05,-5.452471214084653e-06,5.776783655164763e-05
2.823111935867928e-05,-3.951066537410952e-05,3.30954571836628e-05,2.692919224500656e-05,-4.864980382990325e-06,5.447076910058968e-05
2.501073686289601e-05,-4.347616413724609e-05,3.117985397693701e-05,2.1982261387165636e-05,-4.63462492916733e-06,5.6468947150278836e-05
2.2593167159357108e-05,-4.4656666432274505e-05,2.8061655029887334e-05,1.966440504475031e-05,-2.881684167732601e-06,5.6063767260639e-05
2.2157504645292647e-05,-4.4586176954908296e-05,2.7746080377255566e-05,2.0231353119015694e-05,1.5749942576803733e-06,4.6374090743483976e-05
2.108905027853325e-05,-4.4267311750445515e-05,3.0480154237011448e-05,2.300895721418783e-05,3.141723482258385e-06,3.6237528547644615e-05
2.0595942260115407e-05,-4.229385740472935e-05,3.262207246734761e-05,2.4341177777387202e-05,2.5130118501692777e-06,3.593754445319064e-05
2.3765900550642982e-05,-4.064843960804865e-05,3.401891444809735e-05,2.2643147531198338e-05,1.8357350199948996e-06,4.551131132757291e-05
2.8484519134508446e-05,-4.2121340811718255e-05,3.497395300655626e-05,2.3201819203677587e-05,-9.11842164441623e-07,5.575271643465385e-05
3.12494594254531e-05,-4.590137905324809e-05,3.4207892895210534e-05,2.647811379574705e-05,-4.9210684665013105e-06,6.23637461103499e-05
3.157795799779706e-05,-4.803041520062834e-05,3.259030563640408e-05,3.014142748725135e-05,-7.728932359896135e-06,6.753030902473256e-05
3.1209070584736764e-05,-4.857511157752015e-05,3.1885130738373846e-05,2.8398591894074343e-05,-7.6197757152840495e-06,7.212667696876451e-05
3.0817423976259306e-05,-4.936376717523672e-05,3.245438711019233e-05,2.5211702450178564e-05,-7.300240667973412e-06,7.418144377879798e-05
2.9322549380594864e-05,-5.060892362962477e-05,3.2689324143575504e-05,2.596252306830138e-05,-1.0176690011576284e-05,7.329735672101378e-05
2.6753601559903473e-05,-5.368368510971777e-05,3.137503153993748e-05,2.942223727586679e-05,-1.4827598533884156e-05,7.108564022928476e-05
2.329571907466743e-05,-5.5681906815152615e-05,3.074203050346114e-05,3.276946517871693e-05,-1.7306010704487562e-05,7.025704690022394e-05
2.041551488218829e-05,-5.662475086865015e-05,3.2968087907647714e-05,3.672561433631927e-05,-1.854945185186807e-05,7.35350331524387e-05
1.990099553950131e-05,-5.888847226742655e-05,3.583990837796591e-05,3.831439244095236e-05,-2.2293246729532257e-05,7.847469532862306e-05
1.9680164768942632e-05,-6.0542719438672066e-05,3.5557724913815036e-05,3.655617911135778e-05,-2.9077755243633874e-05,8.017191430553794e-05
1.6151385352713987e-05,-6.138507160358131e-05,3.2418054615845904e-05,3.426117837079801e-05,-3.38702266162727e-05,7.908645056886598e-05
1.215889733430231e-05,-6.0474983911262825e-05,3.0932009394746274e-05,3.442464003455825e-05,-3.392557118786499e-05,7.786120113451034e-05
1.1875646123371553e-05,-5.675553984474391e-05,3.127695163129829e-05,3.485662819002755e-05,-3.155642843921669e-05,7.923575321910903e-05
1.552460525999777e-05,-5.182618770049885e-05,3.235560507164337e-05,3.129847755189985e-05,-2.788179335766472e-05,7.813479169271886e-05
1.7353397197439335e-05,-5.0645754527067766e-05,3.681178350234404e-05,3.1634812330594286e-05,-2.5167521016555838e-05,7.151248428272083e-05
1.7861497326521203e-05,-5.539400444831699e-05,3.951543112634681e-05,3.397532054805197e-05,-2.3937411242513917e-05,6.712099275318906e-05
2.208195837738458e-05,-5.8318695664638653e-05,3.6208257370162755e-05,3.1843825126998127e-05,-2.202510768256616e-05,6.0513222706504166e-05
2.450371721351985e-05,-5.598993811872788e-05,3.3456311939517036e-05,2.7709580535884015e-05,-1.832786983868573e-05,5.384827090892941e-05
2.3368356778519228e-05,-5.1283852371852845e-05,3.501054015941918e-05,2.4791237592580728e-05,-1.2434253221726976e-05,5.215046621742658e-05
2.0026654965477064e-05,-5.051673360867426e-05,3.538038436090574e-05,2.649584894243162e-05,-5.655581844621338e-06,5.253753624856472e-05
1.7843154637375847e-05,-5.207446520216763e-05,3.533430935931392e-05,2.6512821932556108e-05,3.5766552741733904e-07,5.0331527745584026e-05
1.981543391593732e-05,-5.0721973821055144e-05,3.812564318650402e-05,2.5715396986925043e-05,2.847398945959867e-06,4.502609226619825e-05
2.3675411284784786e-05,-4.629424074664712e-05,3.942903276765719e-05,3.031439337064512e-05,2.4364726414205506e-07,4.463232107809745e-05
2.7538209906197153e-05,-4.1871073335641995e-05,3.922367613995448e-05,3.1762494472786784e-05,-2.669586365300347e-06,4.9356651288690045e-05
2.650085480127018e-05,-4.1614992369432e-05,3.7233658076729625e-05,2.8836680940003134e-05,-2.72980014415225e-06,5.11079233547207e-05
2.2740552594768815e-05,-4.371239629108459e-05,3.623481825343333e-05,2.727469473029487e-05,-1.5581446177748148e-06,4.9001471779774874e-05
2.4389404643443413e-05,-4.557925421977416e-05,3.571428533177823e-05,2.744337143667508e-05,-9.837697234615916e-07,5.021742981625721e-05
3.0403332857531495e-05,-4.718349373433739e-05,3.4555578167783096e-05,2.7109113943879493e-05,-5.15960095981427e-07,5.532426803256385e-05
3.240254955017008e-05,-5.010661334381439e-05,3.3887699828483164e-05,2.932648749265354e-05,1.9437281935097417e-06,5.701647387468256e-05
3.112517515546642e-05,-5.3841795306652784e-05,3.4968528780154884e-05,3.301841934444383e-05,4.764346613228554e-06,5.3857442253502086e-05
2.9855162210878916e-05,-5.5591404816368595e-05,3.5667744668899104e-05,3.324817953398451e-05,5.151861842023209e-06,5.125731695443392e-05
2.9020446163485758e-05,-5.347048136172816e-05,3.470969386398792e-05,2.904862594732549e-05,3.3664314287307207e-06,4.9242957175010815e-05
3.03524466289673e-05,-4.944419197272509e-05,3.421491419430822e-05,2.5199406081810594e-05,6.74835177960631e-07,4.7476685722358525e-05
3.352078783791512e-05,-4.773771797772497e-05,3.6174333217786625e-05,2.4295593902934343e-05,-1.5961163626343478e-06,4.55974877695553e-05
3.471332092885859e-05,-5.045680882176384e-05,3.990128607256338e-05,2.6512318072491325e-05,-2.934799113063491e-06,4.263034861651249e-05
3.105476207565516e-05,-5.464278001454659e-05,3.8928967114770785e-05,3.1133291486185044e-05,-5.7744773585000075e-06,3.940416354453191e-05
2.6694140615290962e-05,-5.405603951658122e-05,3.4288914321223274e-05,3.533546259859577e-05,-1.1453816114226356e-05,4.022076973342337e-05
2.304369081684854e-05,-5.010381937609054e-05,3.201203799108043e-05,3.906269193976186e-05,-1.5861189240240492e-05,4.259120032656938e-05
1.9597446225816384e-05,-4.897264443570748e-05,3.304025449324399e-05,4.33116547355894e-05,-1.4995176570664626e-05,4.397092561703175e-05
1.7713182387524284e-05,-4.999191878596321e-05,3.3988384529948235e-05,5.152937592356466e-05,-1.586582584423013e-05,4.688467379310168e-05
1.6454581782454625e-05,-5.144925671629608e-05,3.525085048750043e-05,5.852105459780432e-05,-1.996141509152949e-05,4.921476647723466e-05
1.576909562572837e-05,-5.200471787247807e-05,3.572028435883112e-05,5.740468986914493e-05,-2.2439700842369348e-05,4.712203735834919e-05
1.5478535715374164e-05,-5.2987456001574174e-05,3.359805850777775e-05,4.959482976119034e-05,-2.9081100365146995e-05,4.564913979265839e-05
1.5406398233608343e-05,-5.3091680456418544e-05,3.263618054916151e-05,4.044108572998084e-05,-4.003481808467768e-05,5.230507304077037e-05
1.990073906199541e-05,-5.160807631909847e-05,3.367214594618417e-05,3.564430517144501e-05,-4.588048977893777e-05,5.560570934903808e-05
2.4309234504471533e-05,-5.20188405062072e-05,3.186778849340044e-05,3.350109909661114e-05,-4.192055348539725e-05,5.565260289586149e-05
2.185905395890586e-05,-5.385951590142213e-05,3.066753561142832e-05,3.212310912203975e-05,-3.4117125323973596e-05,5.6101271184161305e-05
1.7727688828017563e-05,-5.3543080866802484e-05,2.909632894443348e-05,3.3810294553404674e-05,-2.7283767849439755e-05,6.0342652432154864e-05
1.6166655768756755e-05,-5.379063804866746e-05,2.7412968847784214e-05,3.9734135498292744e-05,-2.046299232461024e-05,6.673003372270614e-05
1.8192611605627462e-05,-5.593812238657847e-05,2.9040955269010738e-05,5.155102553544566e-05,-9.645540558267385e-06,6.67540225549601e-05
2.3104719730326906e-05,-5.893272827961482e-05,3.1478477467317134e-05,6.264811963774264e-05,2.2725296275893925e-06,6.591058627236634e-05
2.67869600065751e-05,-6.041925371391699e-05,3.206107794540003e-05,6.36271433904767e-05,8.436504685960244e-06,6.188303814269602e-05
2.69002284767339e-05,-5.8602421631803736e-05,3.050105442525819e-05,5.8287834690418094e-05,1.2054269063810352e-05,5.619820876745507e-05
2.941411003121175e-05,-5.594858157564886e-05,3.041437412321102e-05,4.9492511607240885e-05,1.694819366093725e-05,5.557698386837728e-05
3.610906424000859e-05,-5.465604044729844e-05,3.29806498484686e-05,3.477634527371265e-05,2.0709532691398636e-05,6.100582322687842e-05
4.1216626414097846e-05,-5.50963704881724e-05,3.410232602618635e-05,1.6950976714724675e-05,2.0850882719969377e-05,6.356406811391935e-05
4.072312731295824e-05,-5.4296608141157776e-05,3.355655644554645e-05,4.0044192246568855e-06,1.9665218133013695e-05,6.317135557765141e-05
3.647227640612982e-05,-5.2272975153755397e-05,3.427777119213715e-05,2.1177102382807789e-07,1.904523014673032e-05,6.306363502517343e-05
3.321225813124329e-05,-4.9852522352011874e-05,3.4691565815592185e-05,3.1677657261752756e-06,1.7728063539834693e-05,6.314545316854492e-05
3.117593951174058e-05,-4.717138654086739e-05,3.281580575276166e-05,8.55726557347225e-06,1.530056215415243e-05,6.180446507642046e-05
2.8899559765704907e-05,-4.5537777623394504e-05,3.0488561606034636e-05,1.511025311629055e-05,1.1071349945268594e-05,5.923787830397487e-05
2.564121132309083e-05,-4.605193680617958e-05,2.980966746690683e-05,2.1867075702175498e-05,5.633261025650427e-06,5.873433474334888e-05
2.3028473151498474e-05,-4.650649498216808e-05,2.8192362151457928e-05,2.4922203010646626e-05,1.2425455224729376e-06,5.954624430160038e-05
2.2416199499275535e-05,-4.687162072514184e-05,2.538005901442375e-05,2.3883865651441738e-05,-5.363522632251261e-06,5.746308670495637e-05
2.4003596990951337e-05,-4.692237780545838e-05,2.287049028382171e-05,2.1293555619195104e-05,-1.2178020369901787e-05,5.101947681396268e-05
2.674803363333922e-05,-4.7472130972892046e-05,2.1619509425363503e-05,2.1454254238051362e-05,-1.4084894246479962e-05,4.7929199354257435e-05
2.86917438643286e-05,-4.710396024165675e-05,2.3570975827169605e-05,2.3762804630678147e-05,-1.58692982950015e-05,5.323223376763053e-05
2.5800851290114224e-05,-4.469276245799847e-05,2.6596535462886095e-05,2.4125502022798173e-05,-2.025835419772193e-05,5.905139914830215e-05
2.0939909518347122e-05,-4.616563455783762e-05,2.7731130103347823e-05,1.9948440240113996e-05,-2.1831292542628944e-05,6.0278878663666546e-05
1.945749500009697e-05,-4.989332956029102e-05,2.7662723368848674e-05,1.4697439837618731e-05,-1.9944222003687173e-05,6.304361886577681e-05
1.976795647351537e-05,-5.070260522188619e-05,2.6552515919320285e-05,1.4208550965122413e-05,-1.9110295397695154e-05,6.633192970184609e-05
1.5415474990732037e-05,-4.901926877209917e-05,2.5660569008323364e-05,1.8499275029171258e-05,-1.8329314116272144e-05,7.162239489844069e-05
1.0345522241550498e-05,-4.8461970436619595e-05,2.6225505280308425e-05,1.7905837012222037e-05,-1.825723666115664e-05,7.351954991463572e-05
1.0407801710243803e-05,-5.1150105718988925e-05,2.822316855599638e-05,1.2012736988253891e-05,-2.1421748897409998e-05,6.907134229550138e-05
1.0864563591894694e-05,-5.061187039245851e-05,2.7114347176393494e-05,1.1433233339630533e-05,-2.3350332412519492e-05,6.273306644288823e-05
8.813651220407337e-06,-4.788736623595469e-05,2.7243688236922026e-05,1.4029646081326064e-05,-2.2727363102603704e-05,5.938337562838569e-05
5.410261110228021e-06,-4.75825545436237e-05,2.9036495106993243e-05,1.640365917410236e-05,-2.0241952370270155e-05,5.692597187589854e-05
6.240876246010885e-06,-4.9155256419908255e-05,2.8203354304423556e-05,1.849045838753227e-05,-2.021467844315339e-05,5.8461497246753424e-05
8.151882866513915e-06,-5.1765149692073464e-05,2.8322101570665836e-05,2.0170704374322668e-05,-2.30341811402468e-05,6.286813004408032e-05
8.331122444360517e-06,-5.290268745739013e-05,3.081591785303317e-05,2.2398720830096863e-05,-2.2965805328567512e-05,6.322306580841541e-05
7.875023584347218e-06,-5.232408148003742e-05,3.343179923831485e-05,2.3360671548289247e-05,-2.1441688659251668e-05,6.302686233539134e-05
8.385032742808107e-06,-5.114872328704223e-05,3.143685171380639e-05,2.2101314243627712e-05,-1.972761492652353e-05,6.424506136681885e-05
9.42418773774989e-06,-5.070902989245951e-05,2.6338151656091213e-05,1.8760072634904645e-05,-1.8528184227761813e-05,6.5546904806979e-05
8.802153388387524e-06,-5.2163446525810286e-05,2.2246767912292853e-05,1.6540108845219947e-05,-1.6875341316335835e-05,6.181257776916027e-05
6.253460469451966e-06,-5.514614167623222e-05,2.3386171960737556e-05,1.7955509974854067e-05,-2.1054476746940054e-05,5.475490979733877e-05
5.438883363240166e-06,-5.5677643103990704e-05,2.871523429348599e-05,1.8848644685931504e-05,-3.8782098272349685e-05,5.2097737352596596e-05
9.963551747205202e-06,-5.2390860219020396e-05,3.295796341262758e-05,1.5928924767649733e-05,-6.301800021901727e-05,5.5806285672588274e-05
1.5657175026717596e-05,-4.9108984967460856e-05,3.328738239360973e-05,1.1207507668586913e-05,-7.968820864334702e-05,5.83554501645267e-05
1.921977127494756e-05,-4.921387153444812e-05,3.167454633512534e-05,1.1602843187574763e-05,-8.46926704980433e-05,5.737120227422565e-05
2.0856623450526968e-05,-4.986727799405344e-05,3.113960337941535e-05,1.5759136658743955e-05,-8.215376874431968e-05,5.66561684536282e-05
2.2311585780698806e-05,-4.9598438636166975e-05,3.1671901524532586e-05,2.0823847080464475e-05,-7.486358663300052e-05,5.922591662965715e-05
2.3079388483893126e-05,-4.980953599442728e-05,3.1334973755292594e-05,2.6307912776246667e-05,-6.179107731441036e-05,6.264145486056805e-05
2.308783405169379e-05,-4.82350769743789e-05,3.149084295728244e-05,2.8487211238825694e-05,-3.916872447007336e-05,6.298568769125268e-05
2.45535029534949e-05,-4.771734893438406e-05,3.373239451320842e-05,2.4745144401094876e-05,-9.9540602604975e-06,6.121945625636727e-05
2.876303369703237e-05,-4.961157537763938e-05,3.540335092111491e-05,1.5895857359282672e-05,1.9419465388637036e-05,5.940084520261735e-05
3.395834573893808e-05,-4.927684858557768e-05,3.229984940844588e-05,1.0699273843783885e-05,4.650327900890261e-05,5.719330147258006e-05
3.604146695579402e-05,-4.721984078059904e-05,2.9049899239907973e-05,1.3276252502691932e-05,7.05029524397105e-05,5.32142112206202e-05
3.380881025805138e-05,-4.480421921471134e-05,3.163057044730522e-05,1.704741589492187e-05,8.82419481058605e-05,4.796928260475397e-05
3.529983587213792e-05,-4.561542664305307e-05,3.322380143799819e-05,2.216430766566191e-05,9.157736349152401e-05,4.6578126784879714e-05
4.167673614574596e-05,-4.839053872274235e-05,3.1063191272551194e-05,3.441737499088049e-05,8.48218405735679e-05,5.156064435141161e-05
4.70378618047107e-05,-5.1527051255106926e-05,2.8271562769077718e-05,5.4301712225424126e-05,7.576147618237883e-05,5.577769115916453e-05
4.798818190465681e-05,-5.2432340453378856e-05,2.682829654077068e-05,7.939264469314367e-05,6.494391709566116e-05,5.496420999406837e-05
4.534516847343184e-05,-4.987515421817079e-05,2.8333526643109508e-05,9.970020619221032e-05,5.173933823243715e-05,5.3761476010549814e-05
4.41609627159778e-05,-4.82721152366139e-05,3.480476152617484e-05,0.00010397598816780373,3.6176370485918596e-05,5.4200114391278476e-05
4.546032869257033e-05,-4.6470246161334217e-05,4.055559838889167e-05,9.280674566980451e-05,2.3770939151290804e-05,5.548863919102587e-05
4.503774835029617e-05,-4.439228359842673e-05,4.072959200129844e-05,7.565879059256986e-05,1.1967073078267276e-05,6.0732996644219384e-05
3.879691576003097e-05,-4.279765926185064e-05,3.7394664104795083e-05,6.018476778990589e-05,2.3825275548006175e-06,6.967430090298876e-05
3.096137152169831e-05,-4.415348666952923e-05,3.422117151785642e-05,4.8473502829438075e-05,-4.555786290438846e-06,7.245517190312967e-05
2.524551746319048e-05,-4.567055657389574e-05,3.258382639614865e-05,3.9047237805789337e-05,-1.0153627044928726e-05,6.788127211621031e-05
2.2038417228031904e-05,-4.598225132212974e-05,3.2800540793687105e-05,3.510763781378046e-05,-1.6149440853041597e-05,6.263029354158789e-05
2.022066109930165e-05,-4.719750722870231e-05,3.4253873309353366e-05,3.5653596569318324e-05,-2.053891876130365e-05,6.051474701962434e-05
1.8502412785892375e-05,-5.098836845718324e-05,3.425310933380388e-05,3.394329905859195e-05,-2.0381619833642617e-05,5.686578151653521e-05
1.6908423276618123e-05,-5.535444870474748e-05,3.395662133698352e-05,2.792268423945643e-05,-1.85851204150822e-05,5.1511364290490746e-05
1.7359880075673573e-05,-5.691855403711088e-05,3.433020901866257e-05,2.5506631573080085e-05,-1.9509378034854308e-05,4.785651253769174e-05
1.9915793018299155e-05,-5.5716944189043716e-05,3.629971615737304e-05,3.0156548746163025e-05,-2.3950626200530678e-05,4.297345731174573e-05
2.146626138710417e-05,-5.281272387946956e-05,3.999526234110817e-05,3.470274168648757e-05,-2.8975295208510943e-05,3.839340206468478e-05
1.93144369404763e-05,-5.1071074267383665e-05,4.371206887299195e-05,3.6676909076049924e-05,-2.9575840017059818e-05,3.74968585674651e-05
1.3706800928048324e-05,-5.075872832094319e-05,4.3371917854528874e-05,3.826387182925828e-05,-2.353196032345295e-05,3.6488472687778994e-05
9.50557932810625e-06,-4.96272296004463e-05,4.143408659729175e-05,3.9841172110754997e-05,-2.0501493054325692e-05,3.4055370633723214e-05
8.651227290101815e-06,-4.766997153637931e-05,3.985589137300849e-05,3.951053076889366e-05,-2.265853800054174e-05,3.509146336000413e-05
1.1427217941673007e-05,-4.882926805294119e-05,3.453667159192264e-05,3.8446818507509306e-05,-2.183063406846486e-05,3.8015310565242544e-05
1.4267779988585971e-05,-5.185851114219986e-05,2.6446921765455045e-05,3.6539760913001373e-05,-1.673849328653887e-05,3.914592889486812e-05
1.2813701687264256e-05,-5.4653966799378395e-05,2.2716976673109457e-05,3.1500130717176944e-05,-1.6571242667851038e-05,4.206741868983954e-05
1.0519346687942743e-05,-5.726436211261898e-05,2.2919664843357168e-05,2.3177844923338853e-05,-1.758767211867962e-05,5.1850045565515757e-05
7.731004188826773e-06,-5.92514879826922e-05,2.3038974177325144e-05,1.8753276890492998e-05,-1.619982867850922e-05,6.204914825502783e-05
9.023775419336744e-06,-5.844997940585017e-05,2.4647706595715135e-05,2.049073918897193e-05,-1.4930872566765174e-05,7.113255560398102e-05
1.8228312910650857e-05,-5.435748244053684e-05,2.7872993086930364e-05,2.3145254090195522e-05,-1.5750052625662647e-05,7.325123442569748e-05
2.5001227186294273e-05,-5.271210829960182e-05,3.060670132981613e-05,2.4363655029446818e-05,-1.861726923380047e-05,6.837004912085831e-05
2.3212749511003494e-05,-5.5015138059388846e-05,3.1356026738649234e-05,2.5008666852954775e-05,-2.1690246285288595e-05,6.437182310037315e-05
1.9229684767196886e-05,-5.5178821639856324e-05,3.185385503456928e-05,2.3814718588255346e-05,-2.2441490727942437e-05,6.957244477234781e-05
2.005175338126719e-05,-5.451972538139671e-05,3.343173011671752e-05,2.0751365809701383e-05,-2.1310250303940848e-05,7.958511559991166e-05
2.562315967225004e-05,-5.487988528329879e-05,3.397642285563052e-05,1.8889582861447707e-05,-2.2292286303127185e-05,8.565051393816248e-05
3.0297853299998678e-05,-5.216676800046116e-05,3.158921026624739e-05,1.7238273358088918e-05,-2.426913306408096e-05,9.177310130326077e-05
2.9206690669525415e-05,-4.946539775119163e-05,2.9203629310359247e-05,1.5221194189507514e-05,-2.5826277123996988e-05,9.723546099849045e-05
2.2764992536394857e-05,-4.8680725740268826e-05,2.686863263079431e-05,1.5520718079642393e-05,-2.525647869333625e-05,0.0001015535308397375
1.4194686627888586e-05,-4.900524436379783e-05,2.600684638309758e-05,1.8195747543359175e-05,-2.3631371732335538e-05,9.81688717729412e-05
9.483451322012115e-06,-4.937350968248211e-05,2.6847110348171555e-05,2.1571413526544347e-05,-2.330649658688344e-05,8.809439168544486e-05
6.280119578150334e-06,-4.917091064271517e-05,2.6758054445963353e-05,2.5885685317916796e-05,-2.204755219281651e-05,7.838958845240995e-05
2.6294344479538267e-06,-4.890473064733669e-05,2.5198241928592324e-05,2.9665006877621636e-05,-1.845300357672386e-05,7.420268229907379e-05
2.0417742234712932e-06,-4.916104080621153e-05,2.4025326638366096e-05,2.986165782203898e-05,-1.647195495024789e-05,7.281702710315585e-05
7.112152161425911e-06,-5.036084621679038e-05,2.3982938728295267e-05,2.7099857106804848e-05,-1.736944068397861e-05,7.20501338946633e-05
1.710441028990317e-05,-5.0676288083195686e-05,2.465591205691453e-05,2.373094866925385e-05,-1.9261047782492824e-05,7.049350824672729e-05
2.5937526515917853e-05,-5.0093956815544516e-05,2.5913699573720805e-05,2.069212860078551e-05,-1.9087574401055463e-05,6.513860716950148e-05
2.8072683562641032e-05,-5.0208403990836814e-05,2.5250756152672693e-05,1.7955801013158634e-05,-1.6206140571739525e-05,5.80120031372644e-05
2.5011395337060094e-05,-5.0868529797298834e-05,2.184384356951341e-05,1.3391249922278803e-05,-1.2448410416254774e-05,5.3667445172322914e-05
2.3028247596812434e-05,-4.920031642541289e-05,1.880865056591574e-05,7.321114026126452e-06,-8.952246389526408e-06,4.998123040422797e-05
2.4718201530049555e-05,-4.399270619614981e-05,2.0255680283298716e-05,1.169279698842729e-06,-6.103400664869696e-06,4.323753455537371e-05
2.60834967775736e-05,-4.1332925320602953e-05,2.3948927264427766e-05,-4.5413444240693934e-06,-3.5637510791275417e-06,4.3676562199834734e-05
2.6160700144828297e-05,-4.527493365458213e-05,2.681639489310328e-05,-9.638486517360434e-06,-1.9744099972740514e-06,4.98056979267858e-05
2.486470839357935e-05,-5.0986061978619546e-05,3.022116652573459e-05,-1.2757277545460965e-05,-3.4354818581050495e-06,5.131346915732138e-05
1.9834582417388447e-05,-5.292451533023268e-05,3.176321115461178e-05,-9.018144737638067e-06,-4.8457404773216695e-06,5.264371066004969e-05
1.887034704850521e-05,-4.7357087169075385e-05,2.965899693663232e-05,-1.8257135252497392e-06,-3.430875040066894e-06,5.3670959459850565e-05
2.0466479327296838e-05,-4.053488373756409e-05,3.026750528078992e-05,-1.4887883708070149e-06,-3.5663267681229627e-06,5.3676227253163233e-05
1.671586142037995e-05,-4.049832932651043e-05,3.181611464242451e-05,-3.2257150905934395e-06,-6.450049113482237e-06,5.486843656399287e-05
1.3286814464663621e-05,-4.304866524762474e-05,3.083430419792421e-05,-4.061100298713427e-06,-7.307527084776666e-06,5.1484334107954055e-05
1.4685540918435436e-05,-4.2049752664752305e-05,2.6542229534243234e-05,-6.510076673293952e-06,-5.3703047342423815e-06,4.97218243253883e-05
1.8214917872683145e-05,-4.103771425434388e-05,2.5276232918258756e-05,-7.075622306729201e-06,-6.91076184011763e-06,5.307816172717139e-05
2.1290032236720435e-05,-4.280281427782029e-05,2.665423926373478e-05,3.097480600899871e-07,-9.485623195359949e-06,5.7524859585100785e-05
2.0910685634589754e-05,-4.52403946837876e-05,2.4989183657453395e-05,2.2629987142863683e-05,-1.1532338248798624e-05,5.7977798860520124e-05
1.9234084902564064e-05,-4.380828613648191e-05,2.581805529189296e-05,4.966140477336012e-05,-1.2978955965081695e-05,5.5843862355686724e-05
1.7262900655623525e-05,-3.97995718230959e-05,2.8446202122722752e-05,7.115299376891926e-05,-1.1839354556286708e-05,5.488927126862109e-05
1.4969265976105817e-05,-3.9393638871842995e-05,3.0513887395500205e-05,8.290541882161051e-05,-8.389345566683915e-06,5.395708649302833e-05
1.3397626389632933e-05,-4.250510755809955e-05,3.0327973945531994e-05,8.559376874472946e-05,-3.5197313081880566e-06,5.508368485607207e-05
1.3253675206215121e-05,-4.4864791561849415e-05,2.9254069886519574e-05,7.951118459459394e-05,-4.3891941459150985e-07,6.059623774490319e-05
1.433107718185056e-05,-4.4189670006744564e-05,3.0014969524927437e-05,6.898480205563828e-05,1.287831139507034e-07,6.866992771392688e-05
1.7070709873223677e-05,-4.308246570872143e-05,3.4632474125828594e-05,6.302471592789516e-05,-2.779935130092781e-06,7.386817742371932e-05
2.199455957452301e-05,-4.323498797020875e-05,3.827457840088755e-05,6.18700505583547e-05,-5.982659331493778e-06,7.393426494672894e-05
2.731343192863278e-05,-4.441754208528437e-05,3.637026748037897e-05,6.164790829643607e-05,-5.140152097737882e-06,7.331053348025307e-05
2.9251583328004926e-05,-4.4327480281936005e-05,3.2496311177965254e-05,6.101260078139603e-05,-1.1736823353203363e-06,7.351247040787712e-05
2.6788511604536325e-05,-4.397440352477133e-05,3.209734131814912e-05,6.318891246337444e-05,1.3558599221141776e-06,6.923224282218143e-05
2.2810856535215862e-05,-4.557403008220717e-05,3.731488686753437e-05,7.022920181043446e-05,1.9607716694736155e-06,5.989144119666889e-05
1.9144312318530865e-05,-4.9236226914217696e-05,4.244856972945854e-05,7.722090231254697e-05,7.68054746913549e-07,5.443835470941849e-05
1.8384162103757262e-05,-5.225863787927665e-05,4.222556162858382e-05,7.22002296242863e-05,-1.363384626529296e-06,5.829003202961758e-05
1.86314427992329e-05,-5.375345790525898e-05,3.96691175410524e-05,5.7241206377511844e-05,-4.95922949994565e-06,6.215786561369896e-05
1.936469561769627e-05,-5.467394657898694e-05,3.917758658644743e-05,4.4073585740989074e-05,-1.0260243470838759e-05,5.8583358622854576e-05
2.1562183974310756e-05,-5.703277565771714e-05,3.8859605410834774e-05,3.660891525214538e-05,-1.335702654614579e-05,4.9916954594664276e-05
2.1354848286136985e-05,-6.21401850366965e-05,3.750085670617409e-05,3.216574259568006e-05,-1.1219498446735088e-05,4.5012111513642594e-05
2.0346769815660082e-05,-6.487667269539088e-05,3.861418736050837e-05,3.352481508045457e-05,-6.592187673959415e-06,4.588819865603e-05
2.1164281861274503e-05,-6.098723315517418e-05,4.123160761082545e-05,3.222216400899924e-05,-6.194044999574544e-06,4.7806959628360346e-05
2.4454098820569925e-05,-5.718100146623328e-05,3.9681432099314407e-05,2.6842688384931535e-05,-9.576962838764302e-06,4.8166908527491614e-05
2.670448702701833e-05,-5.789397255284712e-05,3.422332520131022e-05,2.430092717986554e-05,-1.2746674656227697e-05,4.654537042370066e-05
2.3719552700640634e-05,-5.917739326832816e-05,2.9008691853960045e-05,2.159767427656334e-05,-1.1123892363684718e-05,4.574576087179594e-05
1.5714829714852385e-05,-5.874149064766243e-05,2.782111732813064e-05,1.3233328900241759e-05,-9.11530605662847e-06,4.419128890731372e-05
6.744011443515774e-06,-5.9216516092419624e-05,3.0287246772786602e-05,3.5113073408865603e-06,-1.1788894880737644e-05,4.27622435381636e-05
5.04973149872967e-06,-6.420417776098475e-05,3.362713323440403e-05,6.182094239193248e-06,-1.6251227862085216e-05,4.3606847611954436e-05
9.719138688524254e-06,-6.912974640727043e-05,3.613290027715266e-05,1.857966162788216e-05,-1.8411572455079295e-05,4.377806180855259e-05
1.7642702005105093e-05,-7.033025030978024e-05,3.861057848553173e-05,3.077618748648092e-05,-1.591481668583583e-05,4.2199608287774026e-05
2.130046414094977e-05,-6.743844278389588e-05,4.024880763608962e-05,3.771731644519605e-05,-1.2636920473596547e-05,4.101724334759638e-05
2.197841058659833e-05,-6.31681687082164e-05,4.023790097562596e-05,4.0956729208119214e-05,-1.174124645331176e-05,4.137606083531864e-05
2.3053620680002496e-05,-5.99101695115678e-05,4.0971826820168644e-05,3.9378013752866536e-05,-1.2975571735296398e-05,4.057121623191051e-05
2.555396167736035e-05,-5.6288205087184906e-05,4.389951936900616e-05,3.259638469899073e-05,-1.4715777979290579e-05,3.929492231691256e-05
3.071657192776911e-05,-5.2880652219755575e-05,4.4947752030566335e-05,2.321528700122144e-05,-1.548711043142248e-05,3.9680919144302607e-05
3.722996552824043e-05,-4.9835845857160166e-05,4.185761645203456e-05,1.4238524272514042e-05,-1.2483824320952408e-05,4.1442439396632835e-05
4.104160325368866e-05,-4.6073138946667314e-05,3.94620728911832e-05,5.8582809288054705e-06,-7.927480510261375e-06,4.299127613194287e-05
4.1554794734111056e-05,-4.301270382711664e-05,3.9435370126739144e-05,-1.8848572835850064e-06,-7.766714588797186e-06,4.39865943917539e-05
4.683699080487713e-05,-4.238920155330561e-05,3.891637970809825e-05,-6.339081210171571e-06,-1.069650625140639e-05,4.631917181541212e-05
5.6746637710602954e-05,-4.263181835995056e-05,3.6981364246457815e-05,-6.544384177686879e-06,-1.0277482033416163e-05,5.2286497520981357e-05
6.285607378231362e-05,-4.186924343230203e-05,3.399469278519973e-05,-4.634813649317948e-06,-4.495796929404605e-06,5.95588717260398e-05
5.924434299231507e-05,-3.966083386330865e-05,3.219189966330305e-05,1.1353481568221468e-06,2.861332177417353e-06,6.277830834733322e-05
4.8726084060035646e-05,-3.9652662962907925e-05,3.4513886930653825e-05,1.3797814972349443e-05,6.575639872608008e-06,6.15196768194437e-05
3.5040065995417535e-05,-4.388284287415445e-05,3.705990457092412e-05,2.4703425879124552e-05,2.928149797298829e-06,5.911834887228906e-05
2.060082260868512e-05,-4.878169784205966e-05,3.828738772426732e-05,3.1545387173537165e-05,-3.757282911465154e-06,5.6015549489529803e-05
8.823759344522841e-06,-5.148817945155315e-05,4.0774644730845466e-05,3.712464604177512e-05,-6.976232725719456e-06,5.7482840929878876e-05
2.2655895008938387e-06,-5.041035183239728e-05,3.944007767131552e-05,3.825799285550602e-05,-6.573272912646644e-06,6.383621075656265e-05
-1.004872274279478e-06,-4.781195821124129e-05,3.820716665359214e-05,3.2658990676281974e-05,-3.7170866562519222e-06,6.873167149024084e-05
-1.8750351955532096e-06,-4.697331314673647e-05,3.8649977796012536e-05,2.5501922209514305e-05,-3.3368557978974422e-06,6.922140892129391e-05
-3.785807621170534e-06,-4.397640441311523e-05,3.602106880862266e-05,2.0745699657709338e-05,-6.481317086581839e-06,6.129430403234437e-05
-4.9642299018159974e-06,-4.234165317029692e-05,3.378099063411355e-05,1.7960792320081964e-05,-9.463120477448683e-06,5.353219967219047e-05
-3.7399149732664227e-06,-4.139295197091997e-05,3.093872874160297e-05,1.857791176007595e-05,-9.314410817751195e-06,5.356917972676456e-05
-2.0008371848234674e-06,-4.117410571780056e-05,3.049897713935934e-05,2.1575069695245475e-05,-6.43013663648162e-06,5.625686389976181e-05
-1.4099787222221494e-06,-4.733155947178602e-05,3.3880081900861114e-05,2.7163230697624385e-05,-8.67137532623019e-06,5.768477785750292e-05
-9.085844681067101e-07,-5.2509421948343515e-05,3.6423738492885605e-05,3.1164450774667785e-05,-1.2872377737949137e-05,5.8154073485638946e-05
7.4718632276926655e-06,-5.847871580044739e-05,3.7730929761892185e-05,3.438845305936411e-05,-1.5019814782135654e-05,5.929324106546119e-05
2.6848860215977766e-05,-7.028200343484059e-05,3.9617589209228754e-05,3.4367181797279045e-05,-1.546444218547549e-05,6.0642993048531935e-05
5.2750085160369053e-05,-8.719562174519524e-05,3.755768557311967e-05,2.8714008294628002e-05,-1.809416244213935e-05,6.124907667981461e-05
8.105742745101452e-05,-0.00010052095603896305,3.439664578763768e-05,2.1374562493292615e-05,-2.358532765356358e-05,6.168390245875344e-05
0.00010224707511952147,-0.00010543454118305817,3.597644536057487e-05,1.4638531865784898e-05,-2.565184149716515e-05,5.8803329011425376e-05
0.0001084924879251048,-0.00010447915701661259,4.055708268424496e-05,1.4509058019029908e-05,-2.152057822968345e-05,5.590267392108217e-05
9.890719229588285e-05,-0.00010064092930406332,4.1447907278779894e-05,1.8237298718304373e-05,-1.7112170098698698e-05,5.808936839457601e-05
7.668796024518088e-05,-9.306643914896995e-05,3.745306457858533e-05,2.382712409598753e-05,-1.8073917090077884e-05,6.192280852701515e-05
4.386096043162979e-05,-7.680252019781619e-05,3.172694050590508e-05,2.752370528469328e-05,-1.7932034097611904e-05,6.256513734115288e-05
-1.7597250234757666e-07,-4.939225982525386e-05,2.7315894840285182e-05,2.631636925798375e-05,-1.214636995428009e-05,6.324254354694858e-05
-4.5472468627849594e-05,-1.7028291040332988e-05,2.675757059478201e-05,2.2628961232840084e-05,-4.919373168377206e-06,6.750420288881287e-05
-7.017455209279433e-05,7.160272161854664e-06,2.812055390677415e-05,2.1041852960479446e-05,-2.9275220185809303e-06,7.183623529272154e-05
-6.417196709662676e-05,1.7339376427116804e-05,2.8569415007950738e-05,2.0429773940122686e-05,-6.354638117045397e-06,7.130891754059121e-05
-4.362689651316032e-05,1.9456112568150274e-05,2.6797319151228294e-05,1.8302804164704867e-05,-1.1979203918599524e-05,6.828808545833454e-05
-2.1602525521302596e-05,2.1109819499542937e-05,2.716790186241269e-05,1.4987359463702887e-05,-1.623884600121528e-05,6.62105594528839e-05
-2.34253866437939e-06,2.112498077622149e-05,2.734089684963692e-05,1.3878274330636486e-05,-1.728084680507891e-05,6.404839950846508e-05
1.0293307241227012e-05,2.0951823898940347e-05,2.4009306798689067e-05,1.8527252905187197e-05,-1.3718884474656079e-05,6.390689668478444e-05
1.3946351828053594e-05,2.18935474549653e-05,2.0405366740305908e-05,2.2725984308635816e-05,-6.293284513958497e-06,6.638880586251616e-05
1.1579311831155792e-05,2.3173955923994072e-05,1.8492522940505296e-05,2.530753772589378e-05,2.4995577518893697e-07,6.689619476674125e-05
1.0330440090910997e-05,1.6598556612734683e-05,1.6874644643394276e-05,2.6923622499452904e-05,-5.248472234598012e-07,6.704436964355409e-05
1.5644802260794677e-05,-1.328683651991014e-06,1.6712050637579523e-05,2.8821281375712715e-05,-8.309856639243662e-06,6.582364585483447e-05
3.09512070089113e-05,-2.2160136722959578e-05,1.767299727362115e-05,3.4771925129462034e-05,-1.2744375453621615e-05,5.929198596277274e-05
4.8917609092313796e-05,-3.634305903688073e-05,2.370798210904468e-05,3.897733040503226e-05,-1.051040362654021e-05,5.9566416894085705e-05
5.82303327973932e-05,-4.2896761442534626e-05,3.0981704185251147e-05,4.0270369936479256e-05,-5.039567440690007e-06,6.555390427820385e-05
5.8074143453268334e-05,-4.520130096352659e-05,3.437745544943027e-05,3.979784742114134e-05,-2.0371794562379364e-06,6.711179594276473e-05
4.941112638334744e-05,-4.7566987632308155e-05,3.548509630491026e-05,3.6218716559233144e-05,-3.400129344299785e-06,6.070988092687912e-05
3.3463267754996195e-05,-5.4353324230760336e-05,3.282488978584297e-05,3.427600677241571e-05,-4.761678155773552e-06,5.620190131594427e-05
1.9525839888956398e-05,-6.038540959707461e-05,2.821303132805042e-05,3.664845644379966e-05,-8.056937076617032e-06,5.379858339438215e-05
1.2470293768274132e-05,-6.177108298288658e-05,2.5337163606309332e-05,4.1554270865162835e-05,-1.3354660950426478e-05,5.140582288731821e-05
1.1005263331753667e-05,-5.981851791148074e-05,2.4558343284297734e-05,4.273612648830749e-05,-1.651834463700652e-05,5.124161907588132e-05
1.1747963981179055e-05,-5.6912769650807604e-05,2.06066088139778e-05,3.936695429729298e-05,-1.3982208656670991e-05,5.080596019979566e-05
1.1264010026934557e-05,-5.38074345968198e-05,1.7597740225028247e-05,3.428068521316163e-05,-9.990075341193005e-06,5.6008131650742143e-05
1.3602289072878193e-05,-5.220474486122839e-05,1.904982673295308e-05,3.030251173186116e-05,-8.567774784751236e-06,6.353508797474205e-05
1.8836932213162072e-05,-5.218963633524254e-05,2.1734809706686065e-05,2.8518372346297838e-05,-8.553023690183181e-06,6.830141501268372e-05
2.352107549086213e-05,-5.249426612863317e-05,2.1952870156383142e-05,2.9649154384969734e-05,-7.6008986980014015e-06,6.700729136355221e-05
2.4621313059469685e-05,-5.296974995872006e-05,2.012536788242869e-05,3.1812705856282264e-05,-6.365497483784566e-06,6.374413351295516e-05
2.5412879040231928e-05,-5.3580693929689005e-05,1.9130970031255856e-05,3.347426900290884e-05,-5.697936558135552e-06,6.258220673771575e-05
2.7550562663236633e-05,-5.405167757999152e-05,2.1170197214814834e-05,3.506172288325615e-05,-4.301726676203543e-06,6.20850914856419e-05
2.9737480872427113e-05,-5.432854231912643e-05,2.456195215927437e-05,3.6309382267063484e-05,-4.588823685480747e-06,6.110559479566291e-05
2.9160260964999907e-05,-5.645207056659274e-05,2.6055955459014513e-05,3.593327710404992e-05,-6.104434760345612e-06,6.22729494352825e-05
2.676181793503929e-05,-6.087416841182858e-05,2.500575101294089e-05,3.3833272027550265e-05,-7.06767013980425e-06,6.57332202536054e-05
2.7456209863885306e-05,-6.271846359595656e-05,2.3257924112840556e-05,3.310626925667748e-05,-8.15706152934581e-06,6.619916530326009e-05
2.9654715035576373e-05,-6.136904994491488e-05,2.2516565877594985e-05,3.4001091989921406e-05,-8.730462468520273e-06,6.293893966358155e-05
3.275074777775444e-05,-5.936536763329059e-05,2.2153762984089553e-05,3.3575397537788376e-05,-5.173783392820042e-06,6.266003765631467e-05
3.5470737202558666e-05,-5.733429497922771e-05,2.4885588572942652e-05,3.457181446719915e-05,-3.220300186512759e-06,6.497159483842552e-05
3.286320861661807e-05,-5.9575588238658383e-05,2.82805813185405e-05,3.754563658731058e-05,-6.2592730500909965e-06,6.232977466424927e-05
2.5123401428572834e-05,-6.61500816931948e-05,3.156031380058266e-05,3.826461033895612e-05,-8.9789173216559e-06,5.7556346291676164e-05
1.881946445791982e-05,-7.080127397784963e-05,3.561797348083928e-05,4.1434908780502155e-05,-1.05691869975999e-05,5.7263034250354394e-05
1.4834659850748722e-05,-7.197254308266565e-05,3.5900309740100056e-05,4.1023686208063737e-05,-7.573270977445645e-06,6.0853293689433485e-05
1.5047845408844296e-05,-6.963106716284528e-05,3.47984823747538e-05,3.307970109744929e-05,-2.9439620448101778e-06,6.149995897430927e-05
2.15650798054412e-05,-6.634387682424858e-05,3.4032917028525844e-05,2.0768804461113177e-05,-5.563515969697619e-06,5.6199791288236156e-05
3.0034463634365238e-05,-6.770296022295952e-05,3.1130926799960434e-05,1.218569559569005e-05,-1.156058169726748e-05,4.886417809757404e-05
3.756064688786864e-05,-7.104902761057019e-05,2.9787794119329192e-05,1.4484004168480169e-05,-1.6674213838996366e-05,4.5442659029504284e-05
4.462830111151561e-05,-7.148238364607096e-05,3.220630605937913e-05,1.8885220924858004e-05,-2.0118086467846297e-05,4.59525290352758e-05
5.6614677305333316e-05,-6.974369898671284e-05,3.531633046804927e-05,2.133527596015483e-05,-1.8935319531010464e-05,4.8232981498586014e-05
7.36975998734124e-05,-7.303524034796283e-05,3.644639582489617e-05,2.1981537429383025e-05,-1.231394344358705e-05,5.176205377210863e-05
8.408666326431558e-05,-7.881515921326354e-05,3.644988828455098e-05,2.2030331820133142e-05,-6.029703854437685e-06,5.359480928746052e-05
8.898914529709145e-05,-8.290662663057446e-05,3.5818840842694044e-05,2.0114588551223278e-05,-6.502662017737748e-06,5.8271332818549126e-05
0.00010228714381810278,-8.669725502841175e-05,3.769003160414286e-05,1.9482829884509556e-05,-1.2308869372645859e-05,6.426583422580734e-05
0.0001224533043568954,-9.055768168764189e-05,4.151478424319066e-05,2.0470564777497202e-05,-1.553202855575364e-05,6.325761933112517e-05
0.00012665081885643303,-9.32385737542063e-05,4.427280873642303e-05,2.3193973902380094e-05,-1.629531107028015e-05,5.616569615085609e-05
0.0001020312265609391,-9.220666106557474e-05,4.535411062533967e-05,2.7257532565272413e-05,-1.6850626707309857e-05,5.0377926527289674e-05
5.328731640474871e-05,-8.64994217408821e-05,4.5759436034131795e-05,3.0771443562116474e-05,-1.8200929844169877e-05,4.7062087105587125e-05
-4.0042727960099e-06,-7.988618745002896e-05,4.4147589505882934e-05,3.343653952470049e-05,-1.8867636754293926e-05,4.647466994356364e-05
-5.0767153879860416e-05,-7.422788621624932e-05,4.282475492800586e-05,3.22894447890576e-05,-1.7533804566483013e-05,5.134786624694243e-05
-7.800116145517677e-05,-6.559919711435214e-05,4.430050466908142e-05,3.0639974283985794e-05,-1.698416963336058e-05,5.755115853389725e-05
-9.13766270969063e-05,-5.3306685003917664e-05,4.494196764426306e-05,3.1713370844954625e-05,-1.7398704585502855e-05,5.826511551276781e-05
-9.262823004974052e-05,-3.770837793126702e-05,4.321496089687571e-05,3.479207953205332e-05,-1.6401603716076352e-05,5.387029887060635e-05
-7.290305075002834e-05,-2.035250327026006e-05,3.9107606426114216e-05,3.8139449316076934e-05,-1.1970543710049242e-05,4.98431982123293e-05
-3.356464731041342e-05,-6.639520051976433e-06,3.4146509278798476e-05,4.023031215183437e-05,-7.733728125458583e-06,5.0599683163454756e-05
5.71967075302382e-06,-5.1271058509883005e-06,2.9197193725849502e-05,3.815634408965707e-05,-3.587348146538716e-06,5.6829681852832437e-05
2.269527794851456e-05,-1.2731095921481028e-05,2.3411215806845576e-05,3.8001660868758336e-05,-1.5466734737401566e-07,6.351978663587943e-05
1.4757720236957539e-05,-1.896471258078236e-05,1.978935324586928e-05,4.06376930186525e-05,-7.171208267209295e-07,6.450321961892769e-05
-1.9063203637870174e-07,-1.9590455849538557e-05,2.1069168724352494e-05,4.3101470510009676e-05,-3.7618340229528258e-06,5.787105328636244e-05
-1.6057936591096222e-05,-2.3677344870520756e-05,2.2365329641615972e-05,4.3476742575876415e-05,-1.948082172020804e-06,5.355218308977783e-05
-3.0047051041037776e-05,-3.6265610106056556e-05,2.7022733775083907e-05,4.0396611439064145e-05,2.6495288807382167e-07,4.9917005526367575e-05
-3.750536052393727e-05,-5.055978908785619e-05,3.3430293115088716e-05,3.7562218494713306e-05,-2.385207153565716e-06,4.68766811536625e-05
-4.312848614063114e-05,-5.7521858252584934e-05,3.471790478215553e-05,3.9757425838615745e-05,-5.5675077419437e-06,4.974711191607639e-05
-3.452385499258526e-05,-5.52691999473609e-05,3.099664900219068e-05,4.5627442887052894e-05,-9.088304977922235e-06,5.519622573046945e-05
-4.494022050494095e-06,-5.206342393648811e-05,2.8681435651378706e-05,4.956401971867308e-05,-1.355162930849474e-05,5.986350879538804e-05
3.212531009921804e-05,-4.9315323849441484e-05,3.2675325201125816e-05,4.996238203602843e-05,-1.8323835320188664e-05,6.193969602463767e-05
5.1724880904657766e-05,-4.5412474719341844e-05,3.911086605512537e-05,4.6830045903334394e-05,-2.29032139031915e-05,6.118327291915193e-05
5.0077207561116666e-05,-4.06497492804192e-05,4.161710967309773e-05,4.233241270412691e-05,-2.7105235858471133e-05,6.396949902409688e-05
3.425389513722621e-05,-3.5769680835073814e-05,3.636712426668964e-05,3.595248927013017e-05,-3.179707346134819e-05,6.92695684847422e-05
1.2455561773094814e-05,-3.3516869734739885e-05,2.9082941182423383e-05,2.6209037969238125e-05,-4.2757797928061336e-05,7.074316090438515e-05
-5.024458459956804e-06,-3.664401810965501e-05,2.7922869776375592e-05,1.492295996285975e-05,-5.6163993576774374e-05,6.986241351114586e-05
-9.962999683921225e-06,-4.0990602428792045e-05,3.2083335099741817e-05,6.751036380592268e-06,-6.293094338616356e-05,6.781194679206237e-05
-7.655763511138503e-06,-3.981890404247679e-05,3.690011362778023e-05,5.894150490348693e-06,-6.316308281384408e-05,6.547830707859248e-05
-3.809213922068011e-06,-3.844226375804283e-05,3.6978501157136634e-05,9.468740245210938e-06,-6.344047869788483e-05,6.325165304588154e-05
7.876910785853397e-06,-4.3418611312517896e-05,3.190954521414824e-05,1.2946149581694044e-05,-6.357319216476753e-05,6.179040065035224e-05
2.84787493001204e-05,-5.1762359362328425e-05,2.7952502932748757e-05,1.4759741134184878e-05,-5.933258944423869e-05,6.141007906990126e-05
4.585138231050223e-05,-5.73556317249313e-05,2.9694210752495565e-05,1.7017751815728843e-05,-4.8574976972304285e-05,6.189167470438406e-05
4.512528903433122e-05,-5.7831206504488364e-05,3.4662905818549916e-05,2.199309346906375e-05,-2.9613513106596656e-05,6.146057421574369e-05
2.686039988475386e-05,-5.327175676939078e-05,3.749745519598946e-05,2.6611016437527724e-05,-5.965822765574558e-06,6.23473315499723e-05
7.702759830863215e-06,-4.7924546379363164e-05,3.7928872188786045e-05,2.6938505470752716e-05,2.1498377464013174e-05,6.564403156517074e-05
4.8516681090404745e-06,-4.7283421736210585e-05,3.667651253635995e-05,2.3382930521620438e-05,5.4781921789981425e-05,6.861516885692254e-05
1.3216357729106676e-05,-4.999702287022956e-05,3.5030396247748286e-05,1.82924068212742e-05,8.267531666206196e-05,6.913467950653285e-05
1.9591881937230937e-05,-4.898785846307874e-05,3.5240296710981056e-05,1.839083051891066e-05,9.067796781891957e-05,6.718716758769006e-05
1.1591519069042988e-05,-4.163707126281224e-05,3.5710425436263904e-05,2.4088161808322184e-05,8.345313835889101e-05,6.374614167725667e-05
4.331402578827692e-07,-3.2673313398845494e-05,3.367472891113721e-05,3.144533548038453e-05,7.048459519864991e-05,6.417925033019856e-05
6.4808832576090936e-06,-2.5292190912296064e-05,3.1302512070396915e-05,3.725773058249615e-05,5.7716959418030456e-05,6.905671762069687e-05
2.859615233319346e-05,-2.2737356630386785e-05,3.1718238460598513e-05,3.870975342579186e-05,4.728484418592416e-05,7.272871152963489e-05
4.664458901970647e-05,-2.2623577024205588e-05,3.397846012376249e-05,4.4382733904058114e-05,3.644925163825974e-05,7.350208034040406e-05
4.953667666995898e-05,-1.8674745660973713e-05,3.570350963855162e-05,5.014139605918899e-05,2.2082518626120873e-05,7.058029586914927e-05
5.2195369789842516e-05,-1.6619180314592086e-05,3.6494500818662345e-05,4.973650720785372e-05,4.426766736287391e-06,6.767285958630964e-05
6.881140143377706e-05,-2.3640253857593052e-05,3.5861809010384604e-05,4.3056352296844125e-05,-1.3849283277522773e-05,6.8783359893132e-05
9.31722970562987e-05,-3.8790003600297496e-05,3.620201096055098e-05,3.595683665480465e-05,-2.8965112505829893e-05,6.969629612285644e-05
0.00010403890337329358,-5.9002271882491186e-05,3.71780879504513e-05,3.59188015863765e-05,-3.724374619196169e-05,7.11449611117132e-05
9.543916530674323e-05,-7.761710730846971e-05,3.825537714874372e-05,3.9905957237351686e-05,-3.490336166578345e-05,6.879950524307787e-05
7.456792809534818e-05,-9.166890959022567e-05,3.807368557318114e-05,4.1994186176452786e-05,-2.6992856874130666e-05,6.27679328317754e-05
5.707427771994844e-05,-9.771280747372657e-05,3.4971253626281396e-05,3.839187775156461e-05,-1.9485820303088985e-05,5.7389435824006796e-05
5.134117600391619e-05,-9.191550634568557e-05,3.178518090862781e-05,3.0397879527299665e-05,-1.3805559319735039e-05,5.445530769065954e-05
5.065041477791965e-05,-7.571133028250188e-05,3.080354872508906e-05,2.2630214516539127e-05,-9.163084541796707e-06,5.697716187569313e-05
4.416787123773247e-05,-5.4470248869620264e-05,3.291499524493702e-05,1.9531444195308723e-05,-5.091247203381499e-06,6.086116627557203e-05
3.047217251150869e-05,-3.6111825465923175e-05,3.4342352591920644e-05,1.9245726434746757e-05,2.1786797788081458e-07,6.623767694691196e-05
2.0392257283674553e-05,-2.653905175975524e-05,3.39131111104507e-05,2.0050712919328362e-05,7.959725735418033e-06,7.033853034954518e-05
1.9418070223764516e-05,-2.374229188717436e-05,3.1764746381668374e-05,2.166545164072886e-05,1.2941046406922396e-05,7.112761522876099e-05
2.2994645405560732e-05,-2.0787241737707518e-05,2.7942453016294166e-05,2.477202724548988e-05,1.2416247045621276e-05,6.680179649265483e-05
1.8745622583082877e-05,-1.5785755749675445e-05,2.370053880440537e-05,2.8893229682580568e-05,1.1649972293525934e-05,6.021217632223852e-05
3.5049829421041068e-06,-1.1317505595798139e-05,2.1519108486245386e-05,3.2077532523544505e-05,1.4729731447005179e-05,5.724422589992173e-05
-1.0563695468590595e-05,-1.0150746675208211e-05,1.9720744603546336e-05,3.154992373310961e-05,1.6041178241721354e-05,5.6534645409556106e-05
-7.79936908656964e-06,-1.3991391824674793e-05,1.7268383089685813e-05,2.3278356820810586e-05,1.0941486834781244e-05,5.52794081158936e-05
8.26607720227912e-06,-2.6248861104249954e-05,1.5691115549998358e-05,1.1704671123879962e-05,2.8078036393708317e-06,5.691841943189502e-05
2.4213210053858347e-05,-4.368096779217012e-05,1.5852383512537926e-05,8.644924491818529e-06,-3.2267046208289685e-06,5.9115765907336026e-05
3.0684779630973935e-05,-5.7919620303437114e-05,1.793012961570639e-05,1.1236171303607989e-05,-1.0730628673627507e-05,5.832333044963889e-05
2.7188945750822313e-05,-7.164739508880302e-05,2.136112016160041e-05,1.0571297025308013e-05,-2.09702157007996e-05,5.375924956751987e-05
2.2847976651974022e-05,-8.94041295396164e-05,2.7447564207250252e-05,7.434844519593753e-06,-2.7765661798184738e-05,5.091885759611614e-05
2.4991204554680735e-05,-0.00010604202543618158,3.227525303373113e-05,4.222618372295983e-06,-2.7637939638225362e-05,5.73576835449785e-05
2.6820323910214938e-05,-0.0001117137071560137,3.0508726922562346e-05,4.72568035547738e-06,-3.030079278687481e-05,6.471540837083012e-05
2.488404425093904e-05,-0.00010984937398461625,2.7410524126025848e-05,1.0825828212546185e-05,-4.382439510663971e-05,6.464716716436669e-05
3.071371975238435e-05,-0.00010817151633091271,3.0361543394974433e-05,1.5479552530450746e-05,-6.322268745861948e-05,5.6795372074702755e-05
3.832822403637692e-05,-0.00010194684728048742,3.0326031264849007e-05,1.726783739286475e-05,-7.836089935153723e-05,5.126371615915559e-05
3.8820315239718184e-05,-9.27562577999197e-05,2.86206432065228e-05,1.8745595298241824e-05,-8.21610155981034e-05,5.121024514664896e-05
2.7520625735633075e-05,-8.232016989495605e-05,2.960053097922355e-05,2.38487573369639e-05,-7.477546751033515e-05,4.9754802603274584e-05
-1.3105808704949595e-07,-6.484796176664531e-05,3.119960456388071e-05,3.774305878323503e-05,-6.058088911231607e-05,4.814447675016709e-05
-2.593428871477954e-05,-4.350652307039127e-05,3.3527598134242e-05,5.6352153478655964e-05,-4.619261380867101e-05,4.640392944565974e-05
-3.1040173780638725e-05,-2.933227369794622e-05,3.5854678571922705e-05,7.33952401787974e-05,-3.4941982448799536e-05,4.327689021010883e-05
-1.965561204997357e-05,-2.1797086446895264e-05,3.724126145243645e-05,8.342629735125229e-05,-2.1580752218142152e-05,4.349743539933115e-05
-7.60387320042355e-06,-1.7175923858303577e-05,3.6444889701670036e-05,8.457429794361815e-05,-6.898426818224834e-06,4.904415982309729e-05
4.318686933402205e-06,-1.6847459846758284e-05,3.4947901440318674e-05,7.541361992480233e-05,3.7318020531529328e-06,5.6445805967086926e-05
2.2794703909312375e-05,-2.3838931156205945e-05,3.287859362899326e-05,6.191368447616696e-05,8.469535714539234e-06,5.7777258916758e-05
4.253799852449447e-05,-3.835276220343076e-05,3.3132841053884476e-05,4.991187961422838e-05,1.0226539416180458e-05,5.369650534703396e-05
5.709435208700597e-05,-5.22760019521229e-05,3.507115980028175e-05,4.2698808101704344e-05,9.589172805135604e-06,5.0993192417081445e-05
6.71345042064786e-05,-5.94736156926956e-05,3.582114368327893e-05,3.8664089515805244e-05,7.885170816734899e-06,5.348721970221959e-05
7.501800428144634e-05,-6.0746853705495596e-05,3.510090027702972e-05,3.504829510347918e-05,6.6308707573625725e-06,5.825589323649183e-05
7.891329732956365e-05,-6.225970719242468e-05,3.483282489469275e-05,3.39261423505377e-05,5.4836791605339386e-06,6.13442825851962e-05
7.964059477671981e-05,-6.437989213736728e-05,3.732440745807253e-05,3.58627294190228e-05,3.845923856715672e-06,6.197430775500834e-05
7.011419074842706e-05,-5.9815458371303976e-05,4.2630257667042315e-05,3.7500551115954295e-05,-1.4437824802371324e-06,5.941077688476071e-05
4.182523480267264e-05,-4.937637277180329e-05,4.6880806621629745e-05,3.61387174052652e-05,-8.760059245105367e-06,5.688914461643435e-05
1.3924854101787787e-05,-4.193872518953867e-05,4.512880332185887e-05,3.4477237932151183e-05,-1.2012755178147927e-05,5.664590571541339e-05
6.599124844797188e-06,-3.7637513742083684e-05,3.818656114162877e-05,3.081422619288787e-05,-1.1053894922952168e-05,5.515103111974895e-05
5.719071396015352e-06,-3.426664261496626e-05,3.3118081773864105e-05,2.7114081603940576e-05,-1.1530965821293648e-05,5.1808518037432805e-05
-4.000368335255189e-06,-3.061621100641787e-05,3.125136572634801e-05,3.0295785109046847e-05,-1.4499631106446031e-05,4.7418179747182876e-05
-1.0976621524605434e-05,-2.2508387701236643e-05,3.039332659682259e-05,3.944181662518531e-05,-1.909342608996667e-05,4.349496157374233e-05
3.8007337934686802e-06,-1.4999051018094178e-05,2.849944939953275e-05,4.723660822492093e-05,-2.1663516236003488e-05,4.501513103605248e-05
3.3509077184135094e-05,-1.5430678104166873e-05,2.5357803679071367e-05,4.804437776328996e-05,-2.2242264094529673e-05,5.361658986657858e-05
5.1238130254205316e-05,-1.801309554139152e-05,2.5853574697976e-05,4.4858712499262765e-05,-1.876531860034447e-05,6.422551814466715e-05
4.362264007795602e-05,-1.919933311000932e-05,2.8287613531574607e-05,4.298551721149124e-05,-1.4278110029408708e-05,6.764023419236764e-05
1.3803380170429591e-05,-2.3687891371082515e-05,2.5511519197607413e-05,3.8399437471525744e-05,-1.1604480278037954e-05,6.903107714606449e-05
-1.798183802748099e-05,-3.3297510526608676e-05,1.9692948626470752e-05,2.8329051929176785e-05,-1.0438971912662964e-05,7.458844629582018e-05
-3.44950967701152e-05,-4.377123696031049e-05,1.877566501207184e-05,1.525980042060837e-05,-7.902758625277784e-06,7.985874981386587e-05
-4.009091207990423e-05,-5.082561256131157e-05,2.3111373593565077e-05,2.810215391946258e-06,-2.5905928850988857e-06,7.936890324344859e-05
-3.837038457277231e-05,-5.2892522944603115e-05,2.8242560802027583e-05,-7.171828201535391e-06,3.581641294658766e-07,7.433374412357807e-05
-2.5647936126915738e-05,-5.335612513590604e-05,2.996823241119273e-05,-1.1618977623584215e-05,-3.8130549455672735e-06,6.693886825814843e-05
-3.8099765333754476e-06,-5.653127664118074e-05,2.9418815756798722e-05,-6.6626366788113955e-06,-1.1248475857428275e-05,6.375936936819926e-05
1.3516667422663886e-05,-5.842075916007161e-05,2.9968066883157007e-05,5.199563020141795e-06,-1.4408124116016552e-05,6.865216710139066e-05
2.1805475626024418e-05,-5.945267912466079e-05,3.157030005240813e-05,1.4371838915394619e-05,-1.5197032553260215e-05,7.730473589617759e-05
2.586341906862799e-05,-6.631447467952967e-05,3.418315827730112e-05,1.652837818255648e-05,-1.4719639693794306e-05,8.252607949543744e-05
3.1825813493924215e-05,-8.304973744088784e-05,3.7253885238897055e-05,1.035841978591634e-05,-1.2991707080800552e-05,7.801775791449472e-05
3.4645920095499605e-05,-9.974366548703983e-05,3.989435936091468e-05,-1.0105007959282375e-06,-1.1069232641602866e-05,6.891874363645911e-05
3.179996565449983e-05,-0.00010484023368917406,4.177856317255646e-05,-1.1953812645515427e-05,-1.171238091046689e-05,6.270594167290255e-05
2.981691068271175e-05,-9.809322364162654e-05,4.10963584727142e-05,-2.4440267225145362e-05,-9.919326657836791e-06,6.169314292492345e-05
2.7888587283086963e-05,-8.335804886883125e-05,3.769762042793445e-05,-4.527828059508465e-05,-1.7077038592105964e-06,6.089166345191188e-05
