0.00015711525338701904,-0.0001835602306528017,2.0650317310355604e-05,-4.627529051504098e-05,-2.5190844098688103e-05,8.055876241996884e-05
0.00014388246927410364,-9.736871288623661e-05,2.4202532586059533e-05,-2.8954407753190026e-05,-1.762539250194095e-05,8.769451960688457e-05
0.0001024017037707381,-4.7765217459527776e-05,3.726049544638954e-05,-1.217927820107434e-05,-1.5767349395900965e-05,0.00010448418470332399
4.8663852794561535e-05,-5.432965190266259e-05,5.07615550304763e-05,1.2522456017904915e-05,-1.905447061290033e-05,0.0001227445900440216
-6.442723588406807e-06,-7.581675163237378e-05,5.0313115934841335e-05,3.775674485950731e-05,-1.5013524716778193e-05,0.00013600767124444246
-4.633959542843513e-05,-8.49294156068936e-05,2.968721128127072e-05,4.0558028558734804e-05,-1.066492131940322e-05,0.00012319086818024516
-5.5724023695802316e-05,-8.05060044513084e-05,9.580944606568664e-06,3.739469684660435e-05,-9.70540895650629e-06,9.568745008436963e-05
-4.115344199817628e-05,-6.653463788097724e-05,8.640685337013565e-06,4.164082929491997e-05,-7.614391051902203e-06,8.02502763690427e-05
-2.4855200535967015e-05,-4.7989829909056425e-05,1.9745168174267747e-05,4.5914934162283316e-05,-3.3849532883323263e-06,8.007470023585483e-05
-2.291836244694423e-05,-3.1111787393456325e-05,3.1665651476942e-05,4.898657789453864e-05,-1.2093164514226373e-06,7.900170749053359e-05
-2.3606644390383735e-05,-2.9694638215005398e-05,3.869013744406402e-05,4.403731145430356e-05,-2.7036010123993037e-06,7.22713812137954e-05
-1.7349124391330406e-05,-4.615668876795098e-05,3.84710292564705e-05,2.4914763343986124e-05,-4.703254489868414e-06,6.15477838437073e-05
-4.458966031961609e-06,-6.739882519468665e-05,3.244790423195809e-05,-2.304948338860413e-06,-6.211205800354946e-06,4.902735963696614e-05
1.2275788321858272e-05,-7.066917896736413e-05,3.0129338483675383e-05,-2.2187154172570445e-05,-6.258062512642937e-06,5.885447535547428e-05
3.996579107479192e-05,-5.1808328862534836e-05,3.259201184846461e-05,-2.6652578526409343e-05,2.2929964416107396e-07,9.653438610257581e-05
8.929587056627497e-05,-3.0053432055865414e-05,3.4891796531155705e-05,-2.305066300323233e-05,1.092610000341665e-05,0.000121576915262267
0.00015140701725613326,-2.338750709895976e-05,3.587118771974929e-05,-1.4436993296840228e-05,1.385491486871615e-05,9.250661241821945e-05
0.00019793695537373424,-3.9845388528192416e-05,3.542450212989934e-05,3.6255401028029155e-06,8.431266905972734e-06,1.2241809599800035e-05
0.00020806258544325829,-8.437359792878851e-05,3.3622032788116485e-05,2.069746915367432e-05,-5.497329311765498e-07,-8.112530485959724e-05
0.00017932940681930631,-0.00014400595682673156,3.129261313006282e-05,2.4948554710135795e-05,-8.374123353860341e-06,-0.0001378891902277246
0.0001301616575801745,-0.00017778888286557049,2.9242219170555472e-05,2.599949402792845e-05,-1.2328714547038544e-05,-0.00013390291132964194
6.476307316916063e-05,-0.0001495315518695861,3.0135726774460636e-05,3.401044523343444e-05,-1.4123127584753092e-05,-8.886045543476939e-05
-3.252124224673025e-05,-8.394967153435573e-05,3.7725374568253756e-05,4.725474718725309e-05,-1.536834315629676e-05,-4.309257201384753e-05
-0.00012477354903239757,-3.8987760490272194e-05,5.050036997999996e-05,6.317382212728262e-05,-1.3734063031733967e-05,-1.3957898772787303e-05
-0.0001481364161008969,-2.7914360543945804e-05,5.55765836907085e-05,7.569663284812123e-05,-8.957507816376165e-06,6.277647116803564e-06
-9.971761028282344e-05,-2.9368600735324435e-05,4.3057778384536505e-05,8.006079588085413e-05,-5.351949766918551e-06,3.9630711398785934e-05
-2.4532959287171252e-05,-3.281267709098756e-05,2.6993455321644433e-05,7.788382208673283e-05,-1.0373119039286394e-05,7.762917084619403e-05
3.921046663890593e-05,-4.1341518226545304e-05,2.261804365844e-05,8.185335900634527e-05,-2.0009865693282336e-05,9.385717567056417e-05
6.945848144823685e-05,-4.8366677219746634e-05,3.185573223163374e-05,9.985396900447085e-05,-2.121427132806275e-05,9.969960956368595e-05
6.568991375388578e-05,-3.7540765333687887e-05,4.924814493278973e-05,0.00011446330609032884,-1.1900717254320625e-05,0.00011243459448451176
3.850426583085209e-05,-1.574548332428094e-05,5.66206181247253e-05,0.00010194312926614657,-5.270197561912937e-06,0.00011736539454432204
-6.196624326548772e-06,-1.8159782939619618e-06,4.408156746649183e-05,6.712444155709818e-05,-7.697500223002862e-06,0.00011268486559856683
-7.119937799870968e-05,4.694873950938927e-06,2.5807587007875554e-05,3.731567630893551e-05,-1.2792807865480427e-05,0.00013996711641084403
-0.0001506525877630338,1.0001289410865866e-05,1.1489693861221895e-05,2.2781328880228102e-05,-1.5305166016332805e-05,0.00018589968385640532
-0.00018757270299829543,1.1968283615715336e-05,1.6246810901066056e-06,8.373495802516118e-06,-1.73255230038194e-05,0.00020579801639541984
-0.00014807387196924537,6.722849775542272e-06,1.3380769132709247e-06,-2.5264396754209884e-05,-1.797818549675867e-05,0.00019737971888389438
-6.544253847096115e-05,-7.427173386531649e-06,1.1689704479067586e-05,-5.851282912772149e-05,-2.081570892187301e-05,0.000182837073225528
9.628832231101114e-06,-2.837534157151822e-05,1.9885772417183034e-05,-5.9464320656843483e-05,-2.733660767262336e-05,0.0001727333146845922
5.633639739244245e-05,-4.8308535042451695e-05,2.0145180315012112e-05,-3.200662467861548e-05,-2.8361710064928047e-05,0.0001559891679789871
7.829876994946972e-05,-6.373100040946156e-05,2.4512897653039545e-05,3.922346877516247e-06,-2.1468182239914313e-05,0.00012514495756477118
8.870491001289338e-05,-7.344964251387864e-05,3.877596464008093e-05,2.5680910766823217e-05,-1.1876445569214411e-05,9.14232587092556e-05
0.00010668030881788582,-8.036337385419756e-05,5.545161184272729e-05,2.0785300876013935e-05,2.947473660697142e-07,6.648701673839241e-05
0.00013327541819307953,-9.071192471310496e-05,5.9884045185754076e-05,-2.9249829367472557e-06,9.940249583451077e-06,2.822725218720734e-05
0.00015419849660247564,-0.000104489219665993,4.78096553706564e-05,-2.4670438506291248e-05,7.2268258008989505e-06,-3.7221750972094014e-05
0.00016172837058547884,-0.00011360510688973591,3.320272662676871e-05,-2.371734444750473e-05,-5.996738764224574e-06,-9.808131289901212e-05
0.00016240480181295425,-0.0001111663514166139,3.133356221951544e-05,4.628587248589611e-06,-2.0089168174308725e-05,-0.00011086846643593162
0.00014349412231240422,-9.193160076392815e-05,3.975146682932973e-05,3.449763607932255e-05,-2.9515238566091284e-05,-7.419524627039209e-05
7.602979894727468e-05,-5.42520938324742e-05,4.627300950232893e-05,4.434643415152095e-05,-3.5574237699620426e-05,-1.0452874448674265e-05
-3.633208689279854e-05,-1.5742587493150495e-05,4.504091339185834e-05,4.6309207391459495e-05,-3.4917495213449e-05,6.535991269629449e-05
-0.00013706053141504526,3.0896808311808854e-06,3.9077272958820686e-05,5.113636143505573e-05,-2.5248935344279744e-05,0.00012984100612811744
-0.0001793528936104849,4.068615453434177e-06,3.376389940967783e-05,5.1372127927606925e-05,-9.599355507816654e-06,0.00015426354366354644
-0.00016262683493550867,2.4423582090093987e-06,2.8474039936554618e-05,4.3038700823672116e-05,3.804383140959544e-06,0.0001365103235002607
-0.00011574524251045659,3.223046178391087e-06,2.4219853003160097e-05,3.8523197872564197e-05,1.1303254723316059e-05,9.337453229818493e-05
-6.285603012656793e-05,-8.936759741118294e-07,2.5997363991336897e-05,4.45955665782094e-05,1.0876126907533035e-05,3.213309173588641e-05
2.465767693138332e-06,-1.1534575605764985e-05,2.8114418455515988e-05,5.1396396884229034e-05,4.272707883501425e-06,-2.8200196538819e-05
8.012739999685436e-05,-2.3405515094054863e-05,2.7652125936583616e-05,5.582127414527349e-05,1.8098724012816092e-06,-5.496542144101113e-05
0.00014032504986971617,-3.677131098811515e-05,2.5112223738688044e-05,5.645116834784858e-05,-1.2043816468576551e-06,-7.284420280484483e-05
0.00015586362860631198,-5.046765727456659e-05,1.727024391584564e-05,5.116167449159548e-05,-6.5721087594283745e-06,-9.467631025472656e-05
0.00013445454533211887,-5.929521648795344e-05,1.3224384929344524e-05,4.384430940262973e-05,-1.1102943972218782e-05,-7.075520989019424e-05
0.00010353870311519131,-6.040600419510156e-05,1.8427475879434496e-05,3.8977501390036196e-05,-1.8689808712224476e-05,-1.3677638889930677e-05
6.965825741644949e-05,-5.681672701030038e-05,2.826860327331815e-05,4.1023013181984425e-05,-2.5504357836325653e-05,2.2450045435107313e-05
3.049564838875085e-05,-5.16031650477089e-05,2.9741000616922975e-05,4.228221587254666e-05,-3.1408537324750796e-05,3.296998329460621e-05
-1.160624287876999e-05,-4.8105801397468895e-05,2.273693826282397e-05,3.773500066017732e-05,-3.0260234780143946e-05,4.588333104038611e-05
-3.139149339403957e-05,-5.655913628288545e-05,2.0713379853987135e-05,2.9372084100032225e-05,-1.7424072211724706e-05,7.08725128788501e-05
-1.322176194662461e-05,-7.389522215817124e-05,2.7032090656575747e-05,2.0972507627448067e-05,8.176000392268179e-07,0.00010151077731279656
2.9450975489453413e-05,-8.176266419468448e-05,3.490133894956671e-05,1.7807613403419964e-05,1.2373699064482935e-05,0.0001271709188586101
7.459240441676229e-05,-7.83559080446139e-05,4.129790613660589e-05,2.0968489479855634e-05,1.3080999451631214e-05,0.00014359103806782514
9.816030797082931e-05,-6.980212492635474e-05,4.4833956053480506e-05,2.5734465452842414e-05,4.2547076191112865e-06,0.0001528975262772292
8.92850584932603e-05,-5.521040293388069e-05,4.162580444244668e-05,2.4659151677042246e-05,-7.522593477915507e-06,0.00015182288188952953
5.505404624273069e-05,-3.873094465234317e-05,3.288431980763562e-05,1.9238636014051735e-05,-1.3061014215054456e-05,0.00013613991905003786
1.4648656360805035e-05,-2.887768278014846e-05,2.43456397583941e-05,1.2178732504253276e-05,-7.981278031365946e-06,0.00010387756628915668
-2.201137067459058e-05,-2.7009324185200967e-05,2.258776112284977e-05,5.185910140426131e-06,3.076636403420707e-07,5.629297811537981e-05
-4.488135891733691e-05,-3.5316690627951175e-05,2.4782262698863633e-05,9.12094947125297e-06,-6.760760697943624e-07,2.0432815290405415e-05
-3.746309084817767e-05,-5.639500159304589e-05,2.321179817954544e-05,2.5047813323908485e-05,-1.0190048669755924e-05,2.8716574888676405e-05
4.890208856522804e-06,-8.202693425118923e-05,2.0710322132799774e-05,3.0258859624154866e-05,-1.784187406883575e-05,6.844125164207071e-05
5.2731207688339055e-05,-9.839568519964814e-05,2.4051167201832868e-05,1.9432260160101578e-05,-1.8101629393640906e-05,0.00011020716920029372
7.538589125033468e-05,-9.339874668512493e-05,3.106669464614242e-05,1.882874857983552e-05,-1.5764651834615506e-05,0.00013834855053573847
7.387669757008553e-05,-6.687179120490327e-05,3.8720580050721765e-05,3.940854003303684e-05,-1.0585994459688663e-05,0.00013879018661100417
6.450705404859036e-05,-4.044440356665291e-05,4.223112409817986e-05,6.0592632507905364e-05,-4.774178250954719e-06,0.00011583531886572018
5.8067511417903006e-05,-2.8275571821723133e-05,3.913658656529151e-05,6.798280082875863e-05,-4.303220521251205e-06,9.071651584235951e-05
3.903545075445436e-05,-2.0963239876437e-05,3.0667342798551545e-05,6.329547613859177e-05,-8.78725404618308e-06,7.060465577524155e-05
-1.6382060493924655e-05,-1.5752902982058004e-05,2.259722532471642e-05,5.7981662394013256e-05,-1.2167260138085112e-05,4.86866119899787e-05
-6.219617353053764e-05,-1.6564135876251385e-05,1.8464837921783328e-05,5.980809874017723e-05,-1.5957108189468272e-05,2.8347105399006978e-05
-5.453389530885033e-05,-2.177831993321888e-05,1.2934457117808051e-05,6.557943561347201e-05,-1.379278637614334e-05,2.5706285669002682e-05
-2.9920707675046287e-05,-2.1690491848858073e-05,1.3770015357295051e-05,6.708665023325011e-05,-8.580259418522473e-06,3.8181380659807473e-05
-2.4178609237424098e-05,-1.4716370969836134e-05,2.1239353372948244e-05,6.134685827419162e-05,-1.3503430636774283e-05,5.0773134717019275e-05
-3.10695540974848e-05,-1.280181277252268e-05,2.388969915045891e-05,6.415677489712834e-05,-2.1387788365245797e-05,6.077555735828355e-05
-3.100603862549178e-05,-1.9407434592721984e-05,2.6427667762618512e-05,7.720659777987748e-05,-2.3025910195428878e-05,7.39150054869242e-05
-1.3595077689387836e-05,-2.7133908588439226e-05,2.896715704991948e-05,8.092148345895112e-05,-1.8694287064136006e-05,8.298279135487974e-05
1.4716354598931503e-05,-3.193757947883569e-05,2.9333968996070325e-05,7.337199349422008e-05,-9.92166042124154e-06,7.916469621704891e-05
3.706790812429972e-05,-3.341441697557457e-05,2.745200981735252e-05,7.17111979611218e-05,-1.9832227735605557e-06,6.720913370372728e-05
4.717921910923906e-05,-3.740881948033348e-05,2.9922974135843106e-05,7.47474332456477e-05,2.8728168217639904e-06,5.375473483582027e-05
4.507957783062011e-05,-4.362469553598203e-05,3.802807623287663e-05,6.580763874808326e-05,6.300057975749951e-06,4.793157131643966e-05
2.8892756745335646e-05,-4.680631900555454e-05,4.673681178246625e-05,3.362475399626419e-05,8.981388418760616e-06,5.285638690111227e-05
2.3577342744829366e-06,-4.717521005659364e-05,5.3979994845576584e-05,-1.3783927897748072e-05,1.2515316484495997e-05,6.222348019946367e-05
-1.4930114957678597e-05,-4.881457061856054e-05,5.833278919453733e-05,-5.514677832252346e-05,1.4642932910646778e-05,6.910356023581699e-05
5.046954356657807e-06,-5.8798024838324636e-05,5.7804034440778196e-05,-7.727726915618405e-05,8.671750947542023e-06,7.401523907901719e-05
7.185344293247908e-05,-8.325647650053725e-05,5.163002060726285e-05,-8.427449938608333e-05,-4.693994014814962e-06,8.287910168292001e-05
0.0001556604984216392,-0.00011244562483625486,4.809378515346907e-05,-7.85014417488128e-05,-1.3984934412292205e-05,9.489873627899215e-05
0.00020988805044908077,-0.00012811650231014937,4.562644971883856e-05,-6.50605870760046e-05,-1.3786780073132832e-05,0.00010549576836638153
0.00021509386715479195,-0.0001294823014177382,3.604568701121025e-05,-6.162789213703945e-05,-1.1186357369297184e-05,0.00011652422836050391
0.00018414710939396173,-0.00011839930812129751,2.0507553927018307e-05,-7.14916895958595e-05,-1.5453497326234356e-05,0.00012556441652122885
0.00013614914496429265,-9.036391566041857e-05,1.251051071449183e-05,-7.395750435534865e-05,-2.2533205992658623e-05,0.00012582061754073948
7.557003846159205e-05,-5.346293983166106e-05,2.229416713817045e-05,-4.394841744215228e-05,-2.140796641469933e-05,0.00013080384815111756
-6.892702003824525e-06,-2.2539517885888927e-05,4.162286495557055e-05,8.087367859843653e-06,-1.701135261100717e-05,0.00012910529039800167
-0.00010730947542469949,-7.053818990243599e-06,4.5946784666739404e-05,4.7115951019804925e-05,-1.9463739590719342e-05,7.748424832243472e-05
-0.00018009818450082093,-5.415545274445321e-06,3.3596126741031185e-05,5.89212249906268e-05,-2.0670115191023797e-05,-1.8495991753297858e-05
-0.00018416476086713374,-9.39407527766889e-06,2.6689560399972834e-05,5.985894676996395e-05,-1.0957431186398026e-05,-8.733665890758857e-05
-0.00012660700303968042,-2.8442298571462743e-05,3.531927359290421e-05,7.40567920729518e-05,3.939983344025677e-06,-7.749810902168974e-05
-5.881100514670834e-05,-5.25929281138815e-05,4.596863072947599e-05,9.268725261790678e-05,1.1773287042160518e-05,-3.224760075681843e-05
-1.724764115351718e-05,-6.575761653948575e-05,4.7416240704478696e-05,9.5787261670921e-05,7.3104492912534624e-06,-1.8824590370059013e-05
-4.4216330934432335e-06,-7.182150875451043e-05,3.904469122062437e-05,9.03473628568463e-05,-4.801379418495344e-06,-5.096929817227647e-05
-1.712676021270454e-05,-7.230163464555517e-05,2.2245161744649522e-05,7.727540651103482e-05,-1.5189315490715671e-05,-8.88544600456953e-05
-2.8770309654646553e-05,-6.322187255136669e-05,1.2662861990975216e-05,6.13668016740121e-05,-1.4525770893669687e-05,-7.611852197442204e-05
-2.3797554604243487e-05,-4.581511893775314e-05,1.9850662283715792e-05,4.9856898840516806e-05,-5.02226066600997e-06,-1.3028486137045547e-05
1.9897157699233503e-07,-3.065394776058383e-05,3.3830834581749514e-05,4.908429036731832e-05,1.1936458577110898e-06,4.2460509575903416e-05
2.7870833946508355e-05,-2.408102409390267e-05,3.683995237224735e-05,5.4374926548916847e-05,-3.360476739544538e-06,5.903144119656645e-05
5.1575574616435915e-05,-2.8467904485296458e-05,2.7995232812827453e-05,4.9372887588106096e-05,-9.711501661513466e-06,5.76321835978888e-05
6.224786920938641e-05,-4.107045606360771e-05,2.2699176042806357e-05,3.775760342250578e-05,-7.474776339222444e-06,6.0826485423604026e-05
4.8660236643627286e-05,-5.2006962505402043e-05,3.072817708016373e-05,3.275404742453247e-05,-1.1132594863738632e-06,7.083944365149364e-05
2.197270623582881e-05,-5.204265107749961e-05,4.67444806417916e-05,3.629011189332232e-05,4.346779860497918e-06,8.257698937086388e-05
8.87076384969987e-06,-4.9414844397688285e-05,5.443117333925329e-05,3.404070594115183e-05,5.735273134632735e-06,9.078759467229247e-05
1.856430208135862e-05,-4.9858113925438374e-05,4.777663343702443e-05,1.857715324149467e-05,3.696088242577389e-06,8.9558023319114e-05
3.121395275229588e-05,-5.030780812376179e-05,3.658341302070767e-05,2.014279971263022e-06,-8.58749729104602e-08,7.451322744600475e-05
3.95454335375689e-05,-5.019213131163269e-05,3.141020715702325e-05,2.91353512693604e-06,-3.1593956464348594e-06,5.4453423217637464e-05
4.8574012907920405e-05,-5.2523981139529496e-05,3.201497747795656e-05,1.4342859685712028e-05,-3.426408966333838e-06,4.788947262568399e-05
6.343550194287673e-05,-5.832088572788052e-05,3.235508484067395e-05,2.0200726794428192e-05,-3.5538662359613227e-06,6.0162110457895324e-05
8.497515955241397e-05,-6.689759902656078e-05,2.9463653845596127e-05,2.4138122171279974e-05,-7.398399702651659e-06,6.38939964119345e-05
0.000118948046292644,-7.669204205740243e-05,2.689722714421805e-05,3.733363701030612e-05,-1.33637522594654e-05,3.771886622416787e-05
0.0001543521211715415,-8.219417941290885e-05,2.7951398806180805e-05,5.666534707415849e-05,-1.4825818652752787e-05,8.28031261335127e-06
0.00018232964794151485,-8.199751755455509e-05,2.8326645406195894e-05,6.711239257128909e-05,-9.909025720844511e-06,1.9117057945550187e-06
0.00019596698984969407,-8.408337453147396e-05,2.257843516417779e-05,5.5209002312039956e-05,-5.443813279271126e-06,9.009683708427474e-06
0.00017119242693297565,-9.68360691331327e-05,1.2674988283833954e-05,1.3296835277287755e-05,-9.020976904139388e-06,7.684934644203167e-06
9.788930037757382e-05,-0.00010624891001498327,1.051655908668181e-05,-2.1993591872160323e-05,-1.4568481674359646e-05,5.1167844503652304e-06
2.329520611965563e-05,-8.597364649176598e-05,1.8414819351164624e-05,-1.014836561807897e-05,-1.0271507562720217e-05,2.117230360454414e-05
-1.628827885724604e-05,-4.667944085667841e-05,2.5209486921085045e-05,1.909878119477071e-05,2.832546442732564e-06,5.473001147038303e-05
-4.4578897359315306e-05,-2.17606830119621e-05,2.880853571696207e-05,2.309303636138793e-05,1.0293344530509785e-05,8.91094168764539e-05
-0.00010838105663424358,-2.5514527806080878e-06,4.004681613878347e-05,2.2051781343179755e-05,7.0892310759518296e-06,0.00010284537711413577
-0.00019084368250332773,1.1685201570799109e-05,5.200146551942453e-05,3.1974734156392515e-05,2.9975713005114812e-06,9.954607230611145e-05
-0.00020876762573607266,7.342770231844042e-07,4.5546872570412233e-05,3.47342538589146e-05,2.9869233912904747e-06,0.00010162838589167222
-0.00014078873209655285,-3.376333916094154e-05,3.0499742933898233e-05,2.6694926418713294e-05,1.173359009953856e-06,0.00012004354357486591
-2.9939768865006045e-05,-6.991191912675276e-05,2.3209107894217595e-05,8.917875675251707e-06,-5.502596195583465e-06,0.00014761133934371173
7.661813287995756e-05,-9.396192035637796e-05,2.5617309802328236e-05,-7.533633834100328e-06,-1.5996183719835244e-05,0.00017140127602033317
0.0001473808370064944,-0.00010568401194177568,3.343199932714924e-05,-1.4947225281503052e-05,-2.765031240414828e-05,0.00017452369502279907
0.00016994088946375996,-9.029810462379828e-05,4.113905015401542e-05,-1.31132592287031e-05,-3.794574877247214e-05,0.00013345511979423463
0.00015300960512831807,-4.872653880738653e-05,4.8399688239442185e-05,-4.173642082605511e-06,-4.491599611355923e-05,6.010174911352806e-05
0.0001094005856430158,-5.362086994864512e-06,5.38462154509034e-05,2.1367961380747147e-05,-3.802007267950103e-05,8.433808034169488e-07
5.124790550325997e-05,1.679748311289586e-05,5.4237127187661827e-05,5.888157829758711e-05,-2.115624192811083e-05,-2.7516654881765135e-05
-1.2673027413256932e-05,1.8148655726690777e-05,4.992588219465688e-05,9.122827759711072e-05,-8.629137482785154e-06,-2.7972395400865935e-05
-7.818732410669327e-05,1.0362111424910836e-05,4.1054972825804725e-05,0.0001071315273293294,-5.015956503484631e-06,-3.0525459351338213e-06
-0.00013519740605261177,1.63752861226385e-06,2.8564749300130643e-05,0.00010595125786494464,-5.323068762663752e-06,3.7929796235403046e-05
-0.000168783706612885,-3.3562514545337763e-06,1.7502277842140757e-05,0.00010252920765196905,-5.413313374447171e-06,7.292892405530438e-05
-0.00017242621106561273,-2.847345513146138e-06,1.4581371942767873e-05,0.00010483457299415022,-4.911265932605602e-06,8.27267358545214e-05
-0.00015534822887275368,4.231098955642665e-07,2.1316369384294376e-05,0.00010323222522856668,-5.455603513837559e-06,7.185934373410419e-05
-0.00011954867659369484,-1.7359677713102428e-06,3.1944862712407485e-05,8.52169978315942e-05,-1.0269300219079014e-05,5.9345144109101966e-05
-5.505818626261316e-05,-1.0909151569649111e-05,3.643262607511133e-05,5.696800144505687e-05,-1.6946656614891253e-05,5.644382326863706e-05
3.092638871748932e-05,-2.5038229068741202e-05,3.233297320548445e-05,3.0965995392762125e-05,-2.0903031327179633e-05,6.359550025081262e-05
0.00010540195944486186,-4.3789466872112826e-05,2.7125786800752394e-05,7.70977021602448e-06,-2.2810236259829253e-05,8.197806164389476e-05
0.00014577330148313195,-6.077506623114459e-05,2.5270241167163476e-05,-1.242007056134753e-05,-2.5757028197403997e-05,0.00010813897824846208
0.00014717284648213536,-6.433981616282836e-05,2.8849530281149782e-05,-8.274232641269919e-06,-2.629353548400104e-05,0.00013120871153660119
0.00011129489575978369,-5.8252044254913926e-05,3.509661110001616e-05,1.3028156899963506e-05,-2.684345599845983e-05,0.00013494616723619401
5.825455082231201e-05,-6.385493907146156e-05,3.6310470022726804e-05,2.0930538084940054e-05,-3.2480496884090826e-05,0.0001149927920778282
-6.387512712535681e-06,-7.773272227495909e-05,2.8413531254045665e-05,2.379522265982814e-05,-3.58843790309038e-05,8.733498543733731e-05
-6.261307134991512e-05,-6.758209929103032e-05,2.3729055101284757e-05,4.0426606574328616e-05,-2.3168684492702596e-05,8.578152483096346e-05
-5.7036246289499104e-05,-3.871570515912026e-05,2.4058259441517293e-05,4.727689520223066e-05,1.1178776730957907e-06,9.600920020602643e-05
-2.696023329917807e-06,-1.8648655895958655e-05,2.466939258738421e-05,4.3413623643573374e-05,1.4628562894358765e-05,7.762804307276383e-05
4.2301158828195184e-05,-1.0479195225343574e-05,3.083570481976494e-05,3.9089271012926474e-05,8.974563570518512e-06,4.329856892582029e-05
6.101054896134883e-05,-1.5639696357538924e-05,3.131011544610374e-05,2.8496311642811634e-05,-2.3029695057630306e-06,2.7531332307262346e-05
7.03122204868123e-05,-5.094553125672974e-05,1.6984007743303664e-05,1.3006191693420988e-05,-1.4009512597112916e-05,3.584990190574899e-05
8.680980681674555e-05,-0.00010844720964087173,8.162343874573708e-06,-1.8266403003508458e-06,-2.145969119737856e-05,5.1037026423728094e-05
9.937724098563194e-05,-0.00014908084995113313,2.759740709734615e-05,-1.3904130355513189e-05,-1.7637639757595025e-05,6.814580410718918e-05
8.766248356550932e-05,-0.00015623269428033382,5.6648692407179624e-05,-3.1398292776430026e-05,-1.1511922821227927e-05,8.174758113455027e-05
6.357584788929671e-05,-0.0001381589681841433,6.683389801764861e-05,-4.527683631749824e-05,-1.3390347703534644e-05,8.30759308882989e-05
4.325890404288657e-05,-9.955361019819975e-05,5.684647476300597e-05,-3.9938731788424775e-05,-1.607084777788259e-05,8.345727110281587e-05
1.9536822946975008e-05,-5.370217331801541e-05,3.938174995710142e-05,-2.948632391053252e-05,-1.100727513403399e-05,9.897614654619247e-05
-8.176056326192338e-06,-2.179656621592585e-05,2.2687201635562815e-05,-2.8310496418271214e-05,-4.368605914351065e-06,0.0001218354154843837
-2.788866731862072e-05,-1.3052678696112707e-05,6.502337328129215e-06,-3.0513534511555918e-05,-1.0855875416382332e-06,0.0001372984697809443
-3.2907817512750626e-05,-1.861002601799555e-05,-4.980973244528286e-06,-2.8548331101774238e-05,7.558779202554433e-07,0.0001339094014838338
-2.6346919185016304e-05,-2.373378629272338e-05,-3.6108347103436245e-06,-2.246041731268633e-05,3.710210421559168e-06,0.0001127714931499213
-1.7630456568440422e-05,-2.457608024997171e-05,1.5211141544568818e-05,-1.404766589985229e-05,4.346674359112512e-06,8.798087947070599e-05
-1.2406138921505772e-05,-2.501489143469371e-05,4.3103147618239745e-05,-5.068243353889557e-06,-1.8933343426397187e-06,6.736441719112918e-05
-2.04730508812645e-06,-2.6723771952674724e-05,6.383394065778702e-05,9.477522553424933e-07,-1.42847748065833e-05,4.5731001591775566e-05
2.56439670920372e-05,-2.8841697712778114e-05,6.692764145554975e-05,1.0291059879818931e-06,-2.52817444561515e-05,1.3974581634101924e-05
6.169010885059834e-05,-3.575575465220027e-05,5.4637694120174274e-05,-1.4244467820390128e-05,-3.1702049454906955e-05,-2.9468552384059876e-05
8.59165083966218e-05,-4.854283542954363e-05,3.825008752755821e-05,-3.8131991459522396e-05,-3.107465818175115e-05,-7.521531370002776e-05
9.337357187177986e-05,-6.0038844821974635e-05,3.1374587706523016e-05,-4.3894411646761e-05,-2.03657091333298e-05,-0.00010501307406229898
9.044992475537583e-05,-6.374029908329248e-05,3.753690543817356e-05,-2.2365151380654424e-05,-3.986699084634893e-06,-0.0001034705710480921
8.269772661151364e-05,-6.280685920501128e-05,4.7221015847753733e-05,8.742282261664513e-06,5.509703441930469e-06,-7.543424726463854e-05
6.938818842172623e-05,-6.212224252521992e-05,5.429550219560042e-05,3.11652293021325e-05,4.008731139037991e-06,-3.94408380088862e-05
5.0144095439463854e-05,-6.38141282252036e-05,5.679841706296429e-05,3.883592944475822e-05,2.5587751224520616e-06,-6.5975582401733845e-06
2.5246947188861668e-05,-6.686223787255585e-05,5.557689655688591e-05,4.544873445411213e-05,1.965353476407472e-06,-1.2971685464435723e-05
-2.91128571916488e-06,-6.859761197119951e-05,5.10221034346614e-05,4.788640944752842e-05,-4.642955445888219e-06,-6.402123108273372e-05
-2.508582838345319e-05,-6.836835382273421e-05,4.267730037099682e-05,4.457142495084554e-05,-1.3042790669715032e-05,-9.098653390537947e-05
-2.6206780603388324e-05,-6.314460915746167e-05,4.048657865496352e-05,5.097882240079343e-05,-1.5428695405717008e-05,-5.417460124590434e-05
-1.1250379429839086e-05,-5.4414482292486355e-05,4.2523981392150745e-05,6.885888433316723e-05,-1.1560882740013767e-05,1.2714010154013522e-05
-4.127452484681271e-06,-5.040058749727905e-05,3.817747347056866e-05,8.367303962586448e-05,-8.67909511725884e-06,6.77409116178751e-05
-1.4616091903008055e-05,-5.6942877563415095e-05,2.8797530831070617e-05,8.765808888711035e-05,-8.515078661730513e-06,9.153288556262851e-05
-3.0229111871449277e-05,-7.053128501866013e-05,1.8364391507930122e-05,8.023613190744072e-05,-9.506144124316052e-06,7.884857041062787e-05
-3.510942406137474e-05,-8.164460450643674e-05,1.5251575860020239e-05,6.47475608275272e-05,-9.422703442396596e-06,5.90662493777927e-05
-1.566111131978687e-05,-9.076668357010931e-05,2.0594807210727595e-05,5.2663282986031845e-05,-5.301940745994216e-06,5.743353540310636e-05
3.918086440535262e-05,-0.00010419119644211605,2.580148975539487e-05,4.711335350293666e-05,-6.686234428343596e-07,7.23437697160989e-05
0.00010993740579579026,-0.00011813247692771256,2.4734161343076266e-05,4.275152605259791e-05,2.715748678383534e-06,9.531011892249808e-05
0.00015634966257493943,-0.00012031131336698309,2.2359712602337822e-05,3.8586695154663175e-05,9.64816990745021e-07,0.0001290565705858171
0.0001628757017897442,-0.00010269981430610642,2.5190311134792864e-05,3.711245153681375e-05,-5.601373231911566e-06,0.00016832978872116655
0.0001510823203716427,-7.039721822366118e-05,3.1210434826789424e-05,4.0012495446717367e-05,-1.0709106391004752e-05,0.00019080418860539794
0.00013888116518501192,-4.3516749428818e-05,3.2824897061800584e-05,4.744106263387948e-05,-1.1351257853675634e-05,0.00018623206415213645
0.00011552811338333413,-4.0997980249812827e-05,2.8341395591269247e-05,5.3695101087214425e-05,-1.2734734809782822e-05,0.0001608313323231414
6.338340608635917e-05,-5.4504896979779005e-05,2.2281063138507307e-05,5.702491762349382e-05,-1.548543332319241e-05,0.00012409381452016532
5.794493063149275e-06,-6.09218368481379e-05,1.6785752450232394e-05,6.183476943988353e-05,-1.0331079465686344e-05,8.061456901486963e-05
-7.915133210190106e-06,-5.4132877266965806e-05,1.421525939804269e-05,6.817702524131164e-05,1.7848381048679585e-06,3.7232395698083565e-05
1.0249294064124115e-05,-3.6505021853372455e-05,1.8584023564471863e-05,6.839976413175464e-05,6.554711944772862e-06,-5.345822501112707e-06
2.8452041078708135e-06,-8.905525646696333e-06,2.5588444259483367e-05,6.047261558705941e-05,5.247523517937225e-07,-3.769893373828381e-05
-3.460747757344507e-05,1.426348080713069e-05,2.5992576411226764e-05,4.3025593186030164e-05,-4.945491127728019e-06,-5.003862315788865e-05
-6.826197204645723e-05,2.366945773246698e-05,2.2602454919251613e-05,2.834516271832399e-05,-6.397565812221728e-06,-4.2794752516783774e-05
-8.104994049062952e-05,1.9740462448680773e-05,1.884708763100207e-05,3.4325865271966904e-05,-1.2020053873129655e-05,-2.2676429580315016e-05
-9.013857925310731e-05,6.146737177914474e-06,1.4708302842336707e-05,5.3510131692746654e-05,-2.3056720237946138e-05,4.501024704950396e-06
-0.00011790379357989877,-3.382912382221548e-06,1.7643487808527425e-05,7.445480150636286e-05,-2.6794625227921642e-05,4.768371945829131e-05
-0.00012971721298526973,-4.505631750362227e-06,3.0773582693655044e-05,8.239375165430829e-05,-1.8547849322203547e-05,7.453745638485998e-05
-9.543123451294377e-05,-5.8198620536131784e-06,3.728596129803918e-05,6.694180774502456e-05,-8.809471182757989e-06,5.916141526540741e-05
-3.999714681413025e-05,-1.2566948498715647e-05,3.0013357900315896e-05,3.8179216062417254e-05,-3.3999706374743255e-06,3.4035154385492206e-05
6.056960955902468e-06,-2.0181756553938612e-05,2.006835893553216e-05,1.1244866072956938e-05,-3.5232626487413654e-06,1.7038568330463022e-05
3.084515265072696e-05,-2.862104338419158e-05,1.8331669707549736e-05,1.4346103398565901e-06,-6.644121640420053e-06,1.3805435628455598e-05
3.571764682419598e-05,-3.974221181124449e-05,2.4472417862853035e-05,1.296994014410302e-05,-1.0039410881290678e-05,6.3260376919060946e-06
3.510931855998933e-05,-4.663685103878379e-05,3.0043562219361775e-05,3.849284985335544e-05,-1.193517255160259e-05,-1.4515444490825757e-05
4.400223042466678e-05,-4.533609899226576e-05,3.5096545616397634e-05,5.9982256061630324e-05,-7.845715117582586e-06,-3.0623974453192204e-05
5.5039217841112986e-05,-4.137575160712004e-05,4.103052560822107e-05,7.240668492158875e-05,-7.984138392203022e-06,-3.658013156382367e-05
6.208910053828731e-05,-4.0323382563656196e-05,4.539672227110714e-05,7.778019062243402e-05,-1.4029918020241894e-05,-2.1619182007270865e-05
6.941076571820304e-05,-4.283210000721738e-05,4.405346044222824e-05,7.50829276512377e-05,-1.872776192612946e-05,3.1674040656071156e-05
8.32443984108977e-05,-5.07891018060036e-05,3.715509956236929e-05,6.190144631545991e-05,-1.9605209672590718e-05,0.00010102685337187722
9.221299842465669e-05,-6.316471262834966e-05,2.667151602508966e-05,4.14657624787651e-05,-2.0103054339415394e-05,0.0001387009979225695
7.407274097204208e-05,-7.325115439016372e-05,1.8822503989213146e-05,2.2218522644834593e-05,-1.9944274754379876e-05,0.00013994061737321317
2.994273199874442e-05,-7.658325921511278e-05,1.9218538000131957e-05,9.28670124267228e-06,-1.6693138604750857e-05,0.00013369673979468644
-7.459168045897968e-06,-7.602051482535899e-05,2.4968321667984128e-05,9.351917469757609e-06,-1.237164451595163e-05,0.00014029971498530358
-1.2756752767018043e-05,-7.508530688937753e-05,2.7877144020749256e-05,2.3819309717509896e-05,-1.3285822205943987e-05,0.00015233471640385687
-5.530410476239922e-07,-7.360031304415315e-05,2.428640436846763e-05,4.1476203477941453e-05,-1.9500568669172935e-05,0.00014598741836380213
2.6564123345451662e-06,-7.02836478012614e-05,2.1203974029049277e-05,4.273311060387641e-05,-2.1895821191719733e-05,0.00010946234397124499
-3.103287099293084e-06,-6.575293809873983e-05,2.6321167752030306e-05,2.830784251273144e-05,-1.8062937670038082e-05,6.071005918784067e-05
5.435229923023144e-06,-6.764618592569605e-05,3.5000248317373917e-05,2.3296423023566604e-05,-1.1675371752062347e-05,2.205577948188875e-05
3.768705573747866e-05,-8.13768056104891e-05,3.619580820668489e-05,3.6433008062886074e-05,-1.0505885256861802e-05,9.94660695141647e-06
7.710209320066497e-05,-9.699919610284269e-05,3.0028711989871226e-05,5.142955342307687e-05,-1.520421756140422e-05,3.711340468726121e-05
9.913302346831188e-05,-0.00011242542677791789,2.623401815071702e-05,5.872600740985945e-05,-1.9409812011872418e-05,6.8564411776606e-05
0.00010144784027943388,-0.00013542592932935804,2.8490027034422383e-05,5.640673407469876e-05,-1.951521699083969e-05,5.882826735614799e-05
0.00010007888340624049,-0.00015324931882787496,3.387927790754475e-05,5.888318992219865e-05,-1.9438921299297363e-05,4.994923074264079e-05
9.143201168626547e-05,-0.00013867870438843966,3.83235965273343e-05,7.42790216463618e-05,-1.949154830072075e-05,7.954778266139328e-05
5.5763364798622206e-05,-9.846675675362349e-05,3.3532403904246166e-05,8.772211731411517e-05,-2.084030165860895e-05,0.00010900851339101791
3.0180583053152077e-05,-5.5749820603523403e-05,2.2902309865457937e-05,8.653913391754031e-05,-2.240771209471859e-05,0.00011081904085585847
6.301662506302819e-05,-2.2332185835693963e-05,1.7443468095734715e-05,6.945500354049727e-05,-2.8085403755540028e-05,9.877003321889788e-05
0.00012070324009982869,-4.9467867029306944e-06,1.7279173334827647e-05,4.463982259039767e-05,-2.8618162104976363e-05,0.0001011524727800861
0.00015477485430892557,6.842140010121511e-07,2.1678841221728362e-05,2.7412896088208072e-05,-1.5395722584798932e-05,0.00012400600826367736
0.00016374852566514164,-3.215818651369773e-06,3.267543070251122e-05,1.7106372979469597e-05,-2.8774368274753215e-06,0.00014554122753906995
0.0001505255640950054,-6.751441560481908e-06,3.933778862119652e-05,3.2647501484461827e-06,2.9162220016587526e-06,0.00015286466805264354
0.00010144770203623921,-6.294777904258808e-06,3.915344859706238e-05,-9.337488336313982e-06,-1.6615439335510018e-06,0.00014439593360293657
9.447049365007842e-08,-2.843631136784097e-06,3.7462235923158005e-05,-4.900392013951205e-06,-1.3768334611086175e-05,0.00013216685329098254
-0.00013351072266232222,3.132623987767147e-06,3.5272460081614554e-05,1.1812083357654046e-05,-2.1112142349011265e-05,0.000139375013532117
-0.00024188945826608688,7.734424798400141e-06,3.200239734724164e-05,2.2180080122780055e-05,-1.2340733519522473e-05,0.00016390372184105217
-0.0002805280964821577,1.2176886230008677e-05,3.3840002288343385e-05,2.3786908059264533e-05,7.497790647903457e-06,0.00017465911514591426
-0.00024482657318003476,1.6403862900915556e-05,4.33729583164677e-05,1.9178000002284534e-05,2.368876630498562e-05,0.0001529045111965388
-0.00016218166274484247,1.5944387996569276e-05,4.9039525038097054e-05,5.8999162320105825e-06,2.6920377422356978e-05,0.00011653370165731758
-7.158229709602892e-05,5.536031494557392e-06,4.294725658837706e-05,-1.4714887583977543e-05,1.8785009160637856e-05,9.504827175987884e-05
-3.311539558126242e-06,-1.5047455235617235e-05,2.9522945624194108e-05,-3.105053838226013e-05,7.553834620921407e-06,9.724591654958203e-05
3.536641816026531e-05,-4.031975913676433e-05,1.8040582290268503e-05,-4.135967174079269e-05,-2.8890181056340225e-06,0.00010512115841265768
5.779520870419219e-05,-6.279407534748316e-05,1.4479533092526253e-05,-5.0302609452046454e-05,-1.0181955985899549e-05,0.00011028838343918324
7.667434692848474e-05,-7.523709064116701e-05,2.491264240234159e-05,-5.261907426756807e-05,-1.5143472410272807e-05,0.0001250213972525671
8.58501298353076e-05,-7.354970875894651e-05,4.6092001866782084e-05,-4.496714609558694e-05,-2.287269671796821e-05,0.00013635987124871463
8.30206336104311e-05,-6.473331450251862e-05,6.370012852130458e-05,-4.075459219166078e-05,-3.807236862485297e-05,0.00010275968816131353
8.214312401833013e-05,-5.9221994888503104e-05,6.649523129453883e-05,-4.001006527687423e-05,-5.002432953915559e-05,2.6633808374754153e-05
8.97930221981369e-05,-6.142349593574181e-05,5.8787092712009326e-05,-3.2219486456597224e-05,-4.5323246013140306e-05,-3.38826393999625e-05
8.943300053942949e-05,-6.612372089875862e-05,5.283071004669182e-05,-1.5665940736653283e-05,-2.5329994969069958e-05,-5.949900150881149e-05
6.319839303614572e-05,-6.822453724453226e-05,5.1252416596980765e-05,6.973576546442928e-06,-3.4341055652475916e-06,-8.405407425016165e-05
1.4068692507862579e-05,-6.183891673572361e-05,4.647131936508231e-05,3.581604323699139e-05,9.186710485664662e-06,-0.00011657122377073392
-3.587340688682161e-05,-5.353126834961586e-05,3.7535712181124836e-05,6.27936897217296e-05,1.0775499504234176e-05,-0.00013142748503014445
-4.9088659579865634e-05,-5.074796354165301e-05,2.7501131626195274e-05,6.802421557949856e-05,8.991367394628469e-06,-0.00010037660103989765
-3.02203006867785e-05,-4.615132638718933e-05,1.966543641174212e-05,5.757497274316847e-05,9.168656106339768e-06,-3.762580672628246e-05
-1.0107914931722917e-05,-4.063720189151354e-05,1.651430648053065e-05,4.558105501928367e-05,6.4293471950804815e-06,1.8246810213895515e-05
1.3942059922555927e-05,-3.668701901915483e-05,2.3940106984809972e-05,4.567216456052847e-05,1.7890670278575271e-06,6.026106348144822e-05
3.944001946365461e-05,-3.3465581509517506e-05,3.425927206990309e-05,5.4466156143462285e-05,-1.6374311826439225e-06,0.00010394664423074573
5.5804244766477495e-05,-3.2419691706309095e-05,3.7157791666686535e-05,5.3027193644084036e-05,-3.074851065321127e-06,0.000145299534779042
5.5000178690534085e-05,-4.0121038182405755e-05,3.551130794221535e-05,4.042006185045466e-05,-6.042241693648975e-07,0.00016697816317901015
5.826709093526006e-05,-7.354123226832598e-05,3.8911730371182784e-05,3.172352444380522e-05,4.363315611044527e-07,0.00016798384604044259
8.799000352155417e-05,-0.00013628098531626165,4.467994222068228e-05,3.239110083086416e-05,-6.71141924613039e-06,0.0001569352316437289
0.00013483292423188686,-0.00019657894154079258,4.3781350541394204e-05,3.014939466083888e-05,-1.3225710063125007e-05,0.000143810932058841
0.00017287595255766064,-0.00022185398847796023,4.154600537731312e-05,2.9104179702699184e-05,-1.2166275155323092e-05,0.00012761933612637222
0.00018203364743385464,-0.0002002628898480907,3.9556256524519995e-05,3.3220832847291604e-05,-7.3236524258391e-06,0.00010411589028080925
0.0001515662734163925,-0.00013631954789161682,3.928053774870932e-05,3.6346620618132874e-05,-3.0505293580063153e-06,8.156706462614238e-05
8.96544152055867e-05,-5.417869397206232e-05,3.641837611212395e-05,3.186758840456605e-05,6.1462628764275e-07,6.805684824939817e-05
2.8783499146811664e-05,9.732245416671503e-06,2.1923882741248235e-05,2.6119927497347817e-05,4.781553798238747e-06,5.4855361668160185e-05
2.4766268325038254e-06,3.952859333367087e-05,-2.6797724785865285e-06,2.525110903661698e-05,6.3310421865026e-06,3.0473031074507162e-05
2.0754279830725864e-05,4.735715265269391e-05,-2.103437145706266e-05,2.5733963411767036e-05,9.574679324941826e-07,7.172532605181914e-06
6.197017501108348e-05,4.274206730769947e-05,-2.016726284637116e-05,2.9130307666491717e-05,-9.354378562420607e-06,1.3917143405706156e-05
0.00010173288319492713,2.1532991013373248e-05,-1.5481331772093654e-08,3.8396934542106465e-05,-1.8584230929263867e-05,5.0748014473356307e-05
0.0001289591018576175,-1.4152798939903732e-05,2.6975023502018303e-05,4.275529136066325e-05,-2.1187839593039826e-05,0.00010144803673028946
0.00012944545596837997,-4.50932166131679e-05,4.2467378079891205e-05,2.748567749222275e-05,-1.5980544048943557e-05,0.000157019923790358
8.456168143311515e-05,-5.2711144235217944e-05,4.340122177382e-05,3.255623596487567e-06,-1.168260132544674e-05,0.00019709189655259252
-6.1097948673705105e-06,-3.533680865075439e-05,4.349667142378166e-05,-1.6300828065141104e-06,-1.0850396392925177e-05,0.00021150379325263202
-0.0001442296343157068,-1.0183269296248909e-05,4.942365558235906e-05,1.492414503445616e-05,-8.552380677429028e-06,0.0002008194860536605
-0.00027712859446182847,1.7665412315182039e-06,4.810492100659758e-05,1.875487760116812e-05,-1.853583967204031e-06,0.00015780774992890656
-0.00031733824289403856,-1.2025691376038594e-06,3.670570004032925e-05,8.871802492649294e-06,5.952901119599119e-06,9.412586950929835e-05
-0.0002554318052716553,3.3707285638229223e-06,2.805781150527764e-05,1.0841225048352499e-05,1.0190137800236698e-05,2.1969581212033518e-05
-0.00016428166418336332,1.1630485460045747e-05,2.653629780979827e-05,2.414291157037951e-05,8.375690413231496e-06,-3.92564179492183e-05
-8.730475383345038e-05,-4.348459242464742e-06,3.218691563233733e-05,3.6343455576570705e-05,-4.406218181429722e-07,-7.600498793181032e-05
-2.262601447000634e-05,-4.8124064051080495e-05,3.34152027789969e-05,4.19788048020564e-05,-6.723637397954008e-06,-9.70166438492015e-05
2.3590378987137228e-05,-8.892173354979604e-05,2.5881407054839656e-05,3.826204192591831e-05,-8.331795470439829e-06,-0.00010583947732811794
5.589245120063424e-05,-0.00010312279482604936,1.9463423086563125e-05,3.209297574358061e-05,-1.0037212632596493e-05,-0.00010396901780040935
7.080404611770064e-05,-9.796279482543468e-05,1.9147573766531423e-05,3.06727561110165e-05,-1.1752358659578022e-05,-9.424652671441436e-05
6.304195267148316e-05,-7.790030940668657e-05,2.0855310140177608e-05,3.1378542189486325e-05,-1.785966924217064e-05,-8.928587340051308e-05
4.700158751802519e-05,-5.296630843076855e-05,2.2661684852209873e-05,3.156613456667401e-05,-2.1765765268355608e-05,-7.305607141461223e-05
4.422576239448972e-05,-3.4402808523736894e-05,2.2513529984280467e-05,2.941215643659234e-05,-1.3343777936825063e-05,-2.0361259885248728e-05
5.058195165474899e-05,-3.004907011927571e-05,1.834803151723463e-05,2.8700662369374186e-05,-1.5003872704255627e-06,5.072563362773508e-05
5.0544644182082266e-05,-3.701231980812736e-05,1.5543686458840966e-05,2.6549821996013634e-05,1.84187445029238e-06,9.317311196355149e-05
4.372795592644252e-05,-4.8478970711585134e-05,1.4949688193155453e-05,1.604139652044978e-05,-4.952234121446963e-06,9.534395212540403e-05
3.797543831751682e-05,-5.9685316955437884e-05,1.5584770153509453e-05,4.055596946272999e-06,-1.5259580322890542e-05,8.041857654461637e-05
3.410216231714003e-05,-6.072482210583985e-05,1.3646668776345905e-05,1.671581458140281e-06,-2.096690695907455e-05,7.427626405842602e-05
2.353833224333357e-05,-4.782321411767043e-05,1.3391233551374171e-05,9.803605280467309e-06,-2.0322455384302884e-05,8.441282989224419e-05
1.2555178727780003e-05,-3.0700564821017906e-05,1.9331046132720076e-05,2.3963844796526246e-05,-1.704982787487097e-05,0.00010418787132948637
1.5900346625130624e-05,-2.5627647119108588e-05,3.10750438075047e-05,4.167197766946629e-05,-1.3650406799570192e-05,0.00012868861085735261
3.212917363271117e-05,-3.584151636459865e-05,4.2485116864554584e-05,5.443715053843334e-05,-1.0366717106080614e-05,0.00015211912977974862
4.318523861002177e-05,-5.650968159898184e-05,4.340468512964435e-05,5.3548294090433046e-05,-1.3256048987386748e-05,0.00015820014232303947
4.432830974110402e-05,-8.105355664156377e-05,3.224513056920841e-05,4.855675433645956e-05,-2.183707692893222e-05,0.00013230866170488298
4.825619180337526e-05,-0.00010398729500593618,2.1642044885084033e-05,5.601146040135063e-05,-2.678985401871614e-05,0.00010039660992333665
6.878373096697032e-05,-0.00011874915799126029,1.7797754480852745e-05,6.637474143644795e-05,-2.465339821355883e-05,8.926254668040201e-05
0.00010160492092836648,-0.00012197891192045063,1.69938757608179e-05,5.6499433412682265e-05,-1.5997262380551547e-05,8.28282572911121e-05
0.00012985007197130471,-0.00011719568283297122,1.6755784599808976e-05,2.9322794944164343e-05,-5.914012945140712e-06,5.5949902161955833e-05
0.00013832800323143601,-9.889764623949304e-05,1.8295779227628373e-05,5.511587460205192e-06,-4.46661533715087e-06,1.3531712284020614e-05
0.00012487648928072304,-5.8606299717212096e-05,2.110718014591839e-05,-3.4731954201561166e-06,-1.207036530104233e-05,-1.347849774901988e-05
8.24413655209355e-05,-3.7398190215753857e-06,2.4051802029134706e-05,9.078649782168213e-06,-1.420467651769286e-05,1.4901687563906307e-06
1.3601662431028672e-05,2.743131153692957e-05,2.5447310690651648e-05,2.3840741050662473e-05,-1.1178683962498326e-05,5.9617417718982324e-05
-3.913982800440863e-05,1.0070005373563617e-05,2.1468562408699654e-05,1.6341758964699693e-05,-7.364922112174099e-06,0.0001254910894203931
-5.373387466534041e-05,-3.235764961573295e-05,2.491466875653714e-05,9.637681159802014e-07,-1.8089290279021952e-06,0.00016032868006732315
-3.8043042877689004e-05,-6.846362521173432e-05,4.339473525760695e-05,-7.321604698518058e-06,-4.205824666314584e-07,0.00015586985682602972
-7.026069397397805e-07,-8.737474854569882e-05,6.15991884842515e-05,1.4105933132668724e-06,-9.027341548062395e-06,7.872216519899666e-05
4.7218949475791305e-05,-8.555822569178417e-05,6.655345350736752e-05,2.221183240180835e-05,-2.1441579519887455e-05,-4.48904829681851e-05
8.615410479251295e-05,-6.170354026835412e-05,6.331313488772139e-05,4.0438040741719306e-05,-2.0491659597610123e-05,-0.00012769924069289118
9.969033999368548e-05,-4.374146010377444e-05,5.556764517677948e-05,5.514421354746446e-05,-1.0071151336887851e-05,-0.00014554461813531816
8.66731716087088e-05,-3.905703852069564e-05,4.71994026156608e-05,6.423649756470695e-05,-1.5117078646653681e-06,-0.00012727790453936905
4.6324144932441413e-05,-3.713153273565695e-05,4.138092845096253e-05,6.620462227147073e-05,-1.8431912849337095e-06,-9.616679017199203e-05
-2.2932010324439034e-05,-3.007861778314691e-05,4.0575454477220774e-05,5.9834572311956435e-05,-8.963714208221063e-06,-4.948793139192276e-05
-9.68053936958313e-05,-2.169344952562824e-05,4.4607470044866204e-05,5.2209317800588906e-05,-1.4808944797550794e-05,2.1738553186878562e-05
-0.00013777089770883322,-1.944888208527118e-05,4.8465233703609556e-05,4.717241245089099e-05,-1.6992631572065875e-05,0.00010709661000873893
-0.0001304587203776464,-2.2439078747993335e-05,4.93652987643145e-05,4.7265923058148474e-05,-1.802723818400409e-05,0.0001787535729818046
-8.935763617046177e-05,-2.4147162548615597e-05,5.0248658226337284e-05,5.352688458515331e-05,-2.2300519049167633e-05,0.00021533656399697065
-3.908642611349933e-05,-2.291654709551949e-05,5.559022247325629e-05,6.213877350091934e-05,-2.8394068067427725e-05,0.0002160321455448866
7.118934263417032e-06,-3.109639510512352e-05,5.868230073247105e-05,7.07883809809573e-05,-3.0839964892948046e-05,0.00018945038027595729
4.4992309994995594e-05,-5.3243664297042415e-05,5.2530500397551805e-05,7.736898260191083e-05,-2.532363942009397e-05,0.0001439338957425207
6.888573989272118e-05,-7.966307748574764e-05,4.1425064409850165e-05,7.502290100092068e-05,-1.4600093891203869e-05,0.00010390643728896976
7.030338747426867e-05,-8.948206232162192e-05,3.6829755117651075e-05,6.278599903453141e-05,-5.241595317784231e-06,8.721050107851624e-05
5.561286525335163e-05,-7.961892697494477e-05,4.128817454329692e-05,5.582745870924555e-05,-2.1292123619787162e-06,8.077679376583546e-05
5.397669883677736e-05,-6.941880565136671e-05,4.8841931857168674e-05,6.177795148687437e-05,-5.403199338616105e-06,7.282364822458476e-05
7.645412551937625e-05,-7.627876766491681e-05,5.229878661339171e-05,6.37191187706776e-05,-1.1811323929578066e-05,5.7623718021204695e-05
8.999712736112997e-05,-8.688187517691404e-05,4.901602369500324e-05,4.3684227421181276e-05,-1.50812429637881e-05,3.734818892553449e-05
8.889873424777761e-05,-8.59317442518659e-05,4.2330204450991005e-05,3.5690634376805974e-06,-1.8092046957463026e-05,3.2628693588776514e-05
8.806221012491733e-05,-7.159701635828242e-05,3.5098597436444834e-05,-4.797246219823137e-05,-1.9092920410912484e-05,4.4993383198743686e-05
7.059972995193675e-05,-4.510596772888675e-05,2.9537097361753695e-05,-8.937453094404191e-05,-9.64902665145928e-06,7.075293979141861e-05
3.812752402154729e-05,-1.807401713449508e-05,2.8371794542181306e-05,-9.136914741247892e-05,5.945214979874436e-06,0.00010484485392225906
2.078367700164563e-08,-7.872424248489551e-06,3.34798387484625e-05,-5.485788642545231e-05,1.3693450455320999e-05,0.00012468028580769897
-4.226530290907249e-05,-7.5167149589105975e-06,3.4810527722584084e-05,-1.0555118933552876e-05,9.636798495193943e-06,0.00011600372818065807
-6.87600186211057e-05,-2.4239566300821025e-06,2.5482167984591797e-05,1.6992265955195762e-05,4.786508270626655e-06,9.422052244190127e-05
-5.968263576505706e-05,-3.413334752622177e-06,1.733638964651618e-05,2.8080661650164984e-05,2.853379328371375e-06,7.276040560100228e-05
-2.1565641873166896e-05,-2.2938185793464072e-05,1.7313965145149268e-05,3.7477260775631294e-05,-4.447739172519505e-07,5.5685486586298794e-05
2.472234882588964e-05,-4.441183045855723e-05,2.319040686415974e-05,4.2840372771024704e-05,-2.0533295810309937e-06,3.826778629445471e-05
7.352546526817605e-05,-5.7242868933826685e-05,2.975507413793821e-05,4.723764868685976e-05,-1.6906718656173325e-06,2.3616192265762947e-05
0.00012003858137177303,-6.240861694095656e-05,3.173648292431608e-05,5.6629840401001275e-05,-2.150564341718564e-06,2.6378298571216874e-05
0.00015455021639354527,-6.760174437658861e-05,2.7717238481272943e-05,6.961742474231869e-05,-6.2740568864683155e-06,4.913453449262306e-05
0.00017559899424668401,-7.47560043237172e-05,2.3524027710664086e-05,8.245189383160323e-05,-1.4377784282260109e-05,7.661638665013015e-05
0.00018343843112234026,-7.797886792104691e-05,2.4346807549591176e-05,8.774359594099224e-05,-1.999921369133517e-05,8.576987602282315e-05
0.00017368709086440504,-7.455436571035534e-05,2.5346951588289812e-05,7.62741983635351e-05,-2.0392422811710276e-05,7.510071009164676e-05
0.00013136187044437975,-6.401427526725456e-05,2.1988433218211867e-05,5.28455748280976e-05,-1.4981173080741428e-05,6.0947360907448456e-05
4.836731750401668e-05,-5.315149246598594e-05,1.4547545106324833e-05,3.051130443054717e-05,-7.284949333552504e-06,4.448055915418081e-05
-5.1860242820112035e-05,-5.604202669928782e-05,7.582962552987738e-06,1.7860580555861816e-05,-6.718047416143236e-07,2.192269494116772e-05
-0.0001232492213603109,-8.16389438114129e-05,3.976015705120517e-06,1.6440104445791803e-05,4.8115030040207785e-06,1.1620368240983225e-05
-0.00013274319644551724,-0.0001074095125659369,4.672832801588811e-06,2.0887164282612503e-05,1.160459578386508e-05,3.301672768429853e-05
-9.277792560169473e-05,-9.821135608945042e-05,1.3073597983748186e-05,2.5099079721258022e-05,1.5897809134912677e-05,7.20330499461852e-05
-4.6296823711600155e-05,-5.276288720779121e-05,3.1473449780605733e-05,2.098148615914397e-05,9.05696379049914e-06,9.502657485427335e-05
-1.6800264347693883e-05,-7.722695954726078e-06,5.022693221690133e-05,1.3749760000791866e-05,-9.592953574610874e-06,9.130466060014442e-05
-7.2070797614287585e-06,1.309395520365797e-05,5.158308340469375e-05,1.0402736734249629e-05,-2.6384679586044513e-05,7.85436131991446e-05
-1.4774758710700553e-05,1.4528811334457714e-05,3.784375439863652e-05,9.829374903347343e-06,-2.9656635888386518e-05,8.48880154080689e-05
-2.809504439937882e-05,1.5458343114005402e-05,2.7563723051571287e-05,5.246633008937351e-06,-2.6463318135938607e-05,0.000108310479845386
-4.478038681554608e-05,2.241410948045086e-05,2.4986560674733482e-05,-3.2490386274730554e-06,-2.704128019104246e-05,0.0001295624824706465
-5.825537664350122e-05,2.9725135391345248e-05,3.0017095923540182e-05,-4.0793788684823085e-06,-2.9194778107921593e-05,0.00013457189197652042
-5.859412340214476e-05,1.8529251974541694e-05,3.4782166039804e-05,1.2479645192797761e-05,-2.8638431103900075e-05,0.00010126236156793311
-5.957257599220611e-05,-1.2416719982866198e-05,3.136437590001151e-05,2.82566761597991e-05,-2.2918422473594546e-05,6.949743692530319e-05
-7.567960710730404e-05,-4.312381861382164e-05,2.7950107323704287e-05,2.576043516455684e-05,-1.2626972420548555e-05,9.87332605291158e-05
-9.149176185019314e-05,-5.859989323653281e-05,2.5375733457622118e-05,1.7142598153441213e-05,-3.1488784770772327e-06,0.00015885884931776673
-7.772992103127763e-05,-6.004025635775179e-05,2.345896245969925e-05,1.900954703160096e-05,8.274327001345227e-07,0.00019445392535999417
-3.532852133503184e-05,-5.633936598314904e-05,2.550044700910803e-05,2.9448936402332038e-05,-1.5201541145870578e-06,0.00017851901066023856
9.776885235623922e-06,-5.638688162434846e-05,2.989164750033524e-05,3.477646896499209e-05,-3.559662218322046e-06,0.00012364389840513468
3.9547088817926124e-05,-6.221746298251674e-05,3.322920383652672e-05,2.5484350771876052e-05,-3.412166279304074e-06,5.55974620510824e-05
5.003036494599655e-05,-6.716387724736705e-05,3.532851769705303e-05,9.39739948080387e-06,-1.945049916685093e-06,-8.853305189404637e-06
4.903868102701381e-05,-6.836534885223955e-05,3.401838694117032e-05,4.694112249126192e-06,-7.443466074619209e-07,-6.178154580993578e-05
4.629291652236134e-05,-6.604779628105462e-05,2.8457810913096182e-05,1.1901172911166213e-05,-1.956008418346755e-06,-8.25126189738512e-05
5.068249811301939e-05,-6.279027729760855e-05,2.290123484272044e-05,1.495215929026017e-05,-7.68066820455715e-06,-5.575293107540347e-05
6.260930967982858e-05,-6.210688297869638e-05,2.1758911316283047e-05,9.689618309494108e-06,-1.3090151696815155e-05,3.577131565180025e-06
7.574585470138118e-05,-6.758874224033207e-05,2.403931830485817e-05,7.371816536760889e-06,-1.3047080756223295e-05,6.643290544161573e-05
8.283006172860041e-05,-7.468563853763044e-05,2.672138361958787e-05,1.9166844140272588e-05,-1.0786345228552818e-05,0.00011100708798039705
8.399571379413828e-05,-7.688903860980645e-05,3.0816776416031644e-05,4.0044345951173455e-05,-9.446905096410774e-06,0.00013214763021096587
8.187322964658961e-05,-7.010206900304183e-05,3.712205580086447e-05,5.148849595570937e-05,-9.581449376128148e-06,0.00013453727297019213
7.400823960779235e-05,-5.923360004089773e-05,4.3850486690644175e-05,4.87853103550151e-05,-1.0312392078049015e-05,0.00012602242350112647
5.5261803936446086e-05,-5.011824396206066e-05,4.745491241919808e-05,4.099204670637846e-05,-8.576281288696919e-06,0.00010718968405853957
2.4656494133523665e-05,-4.318760693422519e-05,4.6264289267128333e-05,3.261568781454116e-05,-1.5249244142978569e-06,8.219444862334058e-05
-1.3029133469899534e-06,-3.861940422211774e-05,4.22411467297934e-05,2.5669438400655054e-05,6.3289976424130145e-06,6.00578059675172e-05
-1.8593103732200689e-06,-4.35426554759033e-05,3.8701451558154076e-05,2.6482575776753947e-05,8.910764336178545e-06,4.514861211646348e-05
1.728833740344271e-05,-6.270089215831831e-05,3.277020005043596e-05,3.466687849140726e-05,8.546187018509954e-06,3.156714228680357e-05
3.37958408636041e-05,-8.199605508707464e-05,2.755288551270496e-05,3.9304286474362016e-05,1.2167886779934634e-05,3.203305823262781e-05
3.663531970232725e-05,-8.620780135970563e-05,3.101678885286674e-05,3.8900470826774836e-05,1.1467206604720559e-05,6.343521818052977e-05
2.7271804356132634e-05,-7.990953599801287e-05,3.494561315164901e-05,4.1530816815793514e-05,2.4598688241894706e-07,9.052806126419455e-05
2.36974774452392e-05,-7.178159285103902e-05,3.0517287086695433e-05,4.139459633734077e-05,-1.4562073374690954e-05,6.0790749557781965e-05
3.720083986991085e-05,-7.15017959009856e-05,2.18676923395833e-05,3.6564350011758506e-05,-2.5709810870466754e-05,-3.997807198174996e-06
6.115870928624645e-05,-7.74481231928803e-05,1.9154853362124413e-05,3.681864109239541e-05,-2.383006358286366e-05,-5.080389200884383e-06
7.953315071063116e-05,-7.777776045259088e-05,2.7772068278864026e-05,3.893256143783219e-05,-1.3856070836482104e-05,7.11697357473895e-05
8.917674131225795e-05,-7.43103664717637e-05,3.923948315787129e-05,3.908196231350303e-05,-7.116777851479128e-06,0.00013966954429633915
9.341552504338324e-05,-6.766543810954317e-05,4.736164555652067e-05,4.820740286959335e-05,-1.0236698471999262e-05,0.00014797206677030772
9.90958942566067e-05,-5.8326611906522885e-05,5.3256811952451244e-05,5.460084867081605e-05,-1.7439850125811063e-05,8.66199261508882e-05
0.00010601989924907684,-5.001040335628204e-05,5.446244904305786e-05,4.0588023693999276e-05,-1.7834672689787112e-05,-8.845910883792385e-07
0.00010661533451639116,-4.639461258193478e-05,4.938103666063398e-05,2.2944650481804274e-05,-1.4231749446480535e-05,-6.115087307989597e-05
0.00011764358350774273,-5.517190584214404e-05,4.2542844312265515e-05,2.2907406673766673e-05,-7.745639777567703e-06,-7.17963048373349e-05
0.00014221790479496121,-7.603397534694523e-05,3.676017513498664e-05,3.543310594977811e-05,-4.896861355518922e-06,-6.783818389521912e-05
0.00015198145410977304,-9.531455725664273e-05,3.341332558193244e-05,4.3733201891882345e-05,-8.77724050951656e-06,-7.223844295367599e-05
0.00012304290430620313,-0.00011029208690160885,3.2754109270172194e-05,4.346270361565985e-05,-1.4856157577014528e-05,-6.888167263241485e-05
6.504636985482648e-05,-0.00012164963118266314,3.176572499796748e-05,4.058431295561604e-05,-1.8486685803509317e-05,-3.9285212551476434e-05
8.43329598865239e-06,-0.00011458969675004482,2.8025058782077394e-05,4.25212892878335e-05,-1.8489407011657022e-05,1.0939482308458537e-05
-1.5719713701400906e-05,-8.247140794992447e-05,2.2516082026413642e-05,4.5456054067471996e-05,-1.7158447008114308e-05,6.158303585834801e-05
-1.2692135896941181e-05,-4.136787902098149e-05,1.844004145823419e-05,3.9882128476165235e-05,-1.7743337593856268e-05,9.104838682105765e-05
-7.309617558348691e-06,-1.0048401236417703e-05,1.6875055734999478e-05,2.268303433083929e-05,-2.2266225641942583e-05,8.164226164808497e-05
5.264310402708361e-06,4.484244982450036e-06,1.5208845070446841e-05,2.8079764433641685e-06,-2.4873384973034263e-05,4.062501102453098e-05
3.521527105476707e-05,7.043619234536891e-07,1.2477082236728165e-05,-1.915384018502664e-06,-2.0621524527086876e-05,-2.9564712349383626e-06
5.892752233194187e-05,-1.1087740858783945e-05,1.3591363313025795e-05,1.688612246653065e-05,-1.223459457833087e-05,-1.2809013242076617e-05
4.818590241484344e-05,-1.1184229151695035e-05,2.059435246337671e-05,4.482059011934325e-05,-7.717373591731302e-06,8.394215910811909e-06
-1.6266058082692325e-06,2.641302216943586e-07,3.064508200623095e-05,5.976725879008882e-05,-9.624376616557129e-06,3.6548000934999436e-05
-7.93774743215181e-05,7.024857495707693e-06,3.906095298589207e-05,5.737996252719313e-05,-1.572162909724284e-05,4.828454621019773e-05
-0.00016773685638327152,1.2057177627866622e-05,4.462238575797528e-05,4.62533971585799e-05,-1.708486524876207e-05,4.2421081161592156e-05
-0.00025026497314684093,2.688239146664273e-05,4.5114320528227836e-05,3.303310222690925e-05,-5.959399459243286e-06,3.4569766285130754e-05
-0.0002960433776024729,4.414543218445033e-05,3.995014412794262e-05,2.2503916625282727e-05,9.580607184034307e-06,4.3014533730456606e-05
-0.00027896001120097935,5.131859506946057e-05,3.463822940830141e-05,2.3111208065529354e-05,1.6727415641071275e-05,6.475349073298275e-05
-0.0002057251986116171,4.479351991903968e-05,3.247353379265405e-05,3.2770669349702075e-05,1.0232181011815555e-05,8.922927372623235e-05
-0.0001202733619720675,2.7735311959986575e-05,3.428991112741642e-05,3.204326640116051e-05,-4.092887593287742e-06,9.964504715753719e-05
-4.139906377531588e-05,7.2706639002717566e-06,3.528557863319293e-05,1.7504820789326914e-05,-1.3983840290165972e-05,9.65148356044665e-05
2.8805363399442285e-05,-1.1434115549491253e-05,3.388565164641477e-05,-2.61919421973289e-06,-1.5877580153755844e-05,9.022934682434425e-05
7.073656161082909e-05,-2.8989838028792292e-05,3.324750286992639e-05,-2.670665162440855e-05,-1.4644566363131162e-05,8.465975406579673e-05
8.493143104715273e-05,-4.534485560725443e-05,3.607411417760886e-05,-3.930160164600238e-05,-1.2343944945314433e-05,8.398245699936524e-05
8.538771362509578e-05,-5.448256342788227e-05,3.976791413151659e-05,-2.62366756942356e-05,-1.0962918167933822e-05,8.94667609827593e-05
8.043706475291401e-05,-5.943820724496618e-05,3.889810977852903e-05,1.212263441630057e-06,-1.2729538866551593e-05,0.00010116954945260659
6.804448639741167e-05,-6.433233647840098e-05,3.4779026464093477e-05,1.7748090613167733e-05,-1.0798901712405495e-05,9.796938684303313e-05
5.212208634475246e-05,-6.942831532796845e-05,3.2972726330626756e-05,1.838767457229551e-05,-5.0388607633067295e-06,7.064617238938808e-05
4.022935900138691e-05,-7.489366544177756e-05,3.967252996517345e-05,1.564441845403053e-05,-4.894844209957228e-07,4.1398634493816644e-05
3.365207157912664e-05,-7.890052802395076e-05,5.129282362759113e-05,1.5304336557164788e-05,2.2420297227654373e-06,2.859810228983406e-05
3.6626683140639216e-05,-8.222233736887574e-05,5.5968390370253474e-05,5.382596100389492e-06,5.418748514784966e-06,2.6072204491356388e-05
5.4739139159210026e-05,-8.448135486105457e-05,5.082609277451411e-05,-1.1443872608651873e-05,8.202192475437187e-06,1.7120761185651645e-05
7.779451698297635e-05,-8.349727431777865e-05,4.44010911451187e-05,-1.4729530448676087e-05,6.890945769555401e-06,-1.32891118482803e-05
8.972713112598285e-05,-7.877995813032612e-05,4.056178659084253e-05,-5.9110225265612826e-06,1.5374880604213104e-06,-6.351400952553377e-05
8.83286411408335e-05,-7.53034109948203e-05,3.590539927245118e-05,1.4211814232112374e-06,-5.477915237861453e-06,-0.00011090109182987362
8.137674740282819e-05,-7.61680566938594e-05,3.096781802014448e-05,-6.270091716942261e-07,-1.0867847777262796e-05,-0.00013335750554688275
6.966579530853778e-05,-7.924352394184098e-05,3.189418202964589e-05,-4.899865871266229e-06,-1.44716568684089e-05,-0.00011546019231900573
5.199217048357241e-05,-8.149642235366628e-05,3.914008630090393e-05,4.929416263621533e-06,-1.54112494783476e-05,-4.937795165460557e-05
4.197066664346494e-05,-8.591321238782257e-05,4.5778800995321944e-05,2.8446451324271038e-05,-1.2715641787508503e-05,4.9483191105537117e-05
5.683594645233825e-05,-0.00010154400661122054,4.546266427496448e-05,4.554104816634208e-05,-1.1304002327960916e-05,0.00014278708840720356
9.280717495130375e-05,-0.00012461139704100788,4.033304867334664e-05,5.155477992957458e-05,-1.3584135558630805e-05,0.00019263019203208387
0.0001230809575645253,-0.0001352810941170901,3.6981051380280405e-05,5.704176874132827e-05,-1.6123898603837006e-05,0.00019365581101737916
0.00012625196541193873,-0.00012574857100844383,3.638353155110963e-05,6.505900819320232e-05,-1.7183567251777276e-05,0.00017034764459822327
9.981878247344866e-05,-0.0001026398385874927,3.461515370872803e-05,6.689545989502221e-05,-2.405987288511824e-05,0.00014229631051421165
5.812492236145772e-05,-7.09763917257078e-05,2.7369487725081854e-05,6.360374391078949e-05,-3.578924952307716e-05,0.00012459303252398968
1.567883600728237e-06,-4.363620246294886e-05,1.6610612874501385e-05,4.8959242121782154e-05,-3.6668490793090314e-05,0.00011670068488456309
-7.071285654092208e-05,-2.2896952941664495e-05,1.0090734576806426e-05,2.8125014068791643e-05,-2.4001918063731864e-05,0.00011092034401372075
-0.00012996786972507834,-5.071489340480184e-06,1.2046752090100199e-05,3.0934872484067455e-05,-5.360145678423578e-06,0.00011376268230378628
-0.00013321627920959145,2.586341452115448e-06,1.2881145266874228e-05,5.988062548567541e-05,3.0480434816126944e-06,0.0001278297568205744
-8.343495574081317e-05,-2.85740185290706e-07,1.1582664228626527e-05,9.559460158925503e-05,-3.9123884221226035e-07,0.0001431615382898599
-2.211692844866775e-05,-2.0166302419966087e-05,1.5257200175256003e-05,0.00011143475421704352,-8.98554026207421e-06,0.0001474262389820069
3.096463842666708e-05,-5.110055280965753e-05,2.0178640625090338e-05,0.0001056291803251952,-2.208370278822258e-05,0.00014230847591534257
6.514475535368547e-05,-6.93165638949722e-05,2.287096685904544e-05,9.563194180373102e-05,-2.8715230655507185e-05,0.00012723829422611743
8.355687168659642e-05,-6.261052476475015e-05,2.5096931494772434e-05,8.239050657721236e-05,-2.1271071091177873e-05,9.765876893652603e-05
8.762185461819172e-05,-4.589166201185435e-05,2.9790642656735145e-05,6.115359428804368e-05,-1.0543089956627227e-05,5.0302231102250516e-05
7.594082853756845e-05,-3.449671930866316e-05,3.552561247488484e-05,4.391977927298285e-05,-7.964297765283845e-06,7.123836894606939e-06
5.81525091547519e-05,-3.144440415780991e-05,3.8565580325666815e-05,4.3291260226396844e-05,-1.0478831427462865e-05,-1.3114231478539295e-05
4.668742258218117e-05,-3.363712676218711e-05,3.4183474781457335e-05,5.4382056987378746e-05,-1.063964100467274e-05,-1.473255360906478e-05
3.161475251545198e-05,-3.271419336670078e-05,2.8422364266589284e-05,6.571568519575521e-05,-6.989407211221987e-06,-5.213410076976288e-06
1.0468532991581014e-06,-2.7307436539558694e-05,3.011872286151629e-05,6.842229049652815e-05,-2.437143848510459e-06,1.2782184967363719e-05
-3.165407542837784e-05,-2.4095328626572154e-05,3.866378392558545e-05,6.371492054313421e-05,2.61463952710983e-07,1.9620632883743383e-05
-4.233931758790277e-05,-3.113966158707626e-05,4.432258356246166e-05,5.8773010096047074e-05,1.925878905240097e-06,-1.4240124983189162e-05
-2.784324715321418e-05,-4.4949003495275974e-05,3.906800702679902e-05,5.094039806863293e-05,4.906310095975641e-06,-7.296862895600498e-05
-1.1979518603766337e-05,-5.523926665773615e-05,2.5984363674069755e-05,2.932550705736503e-05,6.3611164478061255e-06,-9.280778613174334e-05
-1.712023049549316e-06,-5.372787200030871e-05,1.9814378902083263e-05,3.4162671909143683e-06,5.294010861689458e-06,-3.720753011293709e-05
2.2470629119197838e-05,-5.123031951370649e-05,2.5613406251068227e-05,-1.129634529206669e-05,7.865280622354476e-07,4.489798811846413e-05
6.290571764111519e-05,-6.35003816569224e-05,2.869053787435405e-05,-1.4684975212730933e-05,-4.793596872332273e-06,8.837040513753891e-05
9.648554987506941e-05,-8.826837438391522e-05,2.2142792658996768e-05,-1.2032666745653842e-05,-7.64520518714562e-06,9.489416697761044e-05
0.00011428259313106537,-0.00011014376650564373,1.6227315427386202e-05,-5.822368621011265e-06,-1.2225184946146328e-05,0.00011003667168552056
0.00011791394354077056,-0.00011900477693416178,1.946510747075081e-05,7.026150342426263e-06,-1.7753114661900327e-05,0.00014199104043655097
0.0001061912698787637,-0.00010477368778083473,2.604878318379633e-05,2.8955919333384372e-05,-1.8306493075215258e-05,0.000155491623445414
7.292516238521785e-05,-7.820450264262035e-05,2.785869401122909e-05,4.1573544876882806e-05,-1.6098942069220357e-05,0.0001207439781865105
2.4356906578759663e-05,-5.846006024512462e-05,2.1792535335407592e-05,2.49824661295861e-05,-1.2350756151136011e-05,3.8988473534118384e-05
-1.4683924746350385e-05,-3.681293674162589e-05,1.92170718946727e-05,6.822828709118767e-06,-9.365290679852478e-06,-4.430249100551009e-05
-3.0221812266972847e-05,-1.686244286247529e-05,1.948010321939364e-05,1.4749390174984e-05,-1.1051160072383936e-05,-8.801059448160231e-05
-2.4856954041752033e-05,-1.380343110213289e-05,1.6062724171206355e-05,4.308059214963578e-05,-1.5709858416812494e-05,-8.857907960191369e-05
-6.57571661122347e-07,-2.230535937997047e-05,1.6785661500762217e-05,6.9546586018987e-05,-1.852572495408822e-05,-3.670905789476819e-05
2.8559235943248495e-05,-3.261821620981209e-05,2.2878461095388047e-05,7.033155998215079e-05,-1.924632852023933e-05,5.546096508624032e-05
4.8875266656978056e-05,-3.8070160371717066e-05,3.2518477382836863e-05,5.287759267957881e-05,-1.63721833814634e-05,0.0001474349555792287
5.352200969355181e-05,-3.521136750350706e-05,4.487069963943213e-05,4.899360646959394e-05,-9.592237802280579e-06,0.00021276847110129893
3.8475940527860075e-05,-2.9827495382050984e-05,4.969123256159946e-05,5.683042400050908e-05,-6.645725989073981e-06,0.0002291647542733699
8.05264244263526e-06,-2.372409653617069e-05,4.3701242248062044e-05,3.59330624633003e-05,-1.3020015103393234e-05,0.00016939861234277487
-2.0043888071086258e-05,-1.7088554159272462e-05,3.444600952207111e-05,-1.207266905112192e-05,-2.4875755116227083e-05,5.8546345826471224e-05
-3.6179175367578864e-05,-1.5538334992015734e-05,2.5964480300899595e-05,-5.0519625801825896e-05,-3.582706631277688e-05,-5.056860754848458e-05
-3.615478635765612e-05,-2.3798753318260424e-05,2.0611878426279873e-05,-4.9479829613119364e-05,-3.7699745007557794e-05,-0.00013534791651181877
-2.0431245502550155e-05,-3.2742547773523256e-05,1.872104076028336e-05,-1.6249812688329257e-05,-3.1357150874100626e-05,-0.00019130719010718167
1.5663459862480522e-06,-3.516584911267273e-05,1.625447657715995e-05,1.1053513844672125e-05,-2.5773289962671697e-05,-0.00020768216927535832
2.1344450942706317e-05,-3.473264223430306e-05,9.251201845472679e-06,1.5495612387894653e-05,-2.3941052859299816e-05,-0.00018640817143023014
4.196519876131788e-05,-3.5221972211729735e-05,7.274731160578085e-06,1.285487633140292e-05,-1.881303069239948e-05,-0.00013595455675385892
6.927781942067668e-05,-3.9436956285499036e-05,1.864421028585639e-05,1.5034367606858723e-05,-5.026844064559555e-06,-5.30326142325066e-05
9.436016989639029e-05,-6.160000339150429e-05,3.7187386624282226e-05,1.913166488520801e-05,1.0830630344571546e-05,4.045723471790552e-05
0.00010800869495142251,-0.00011889436427736655,4.7052155423443764e-05,2.2444291971623898e-05,2.074170515697915e-05,9.975713328458369e-05
0.00012179142504464835,-0.0001944565592566505,3.847167317871936e-05,2.2701267880620435e-05,2.1371457478380762e-05,0.00011760700726881623
0.00016799992590676993,-0.0002451634791214019,2.297780883964151e-05,3.0755556508665904e-05,1.6644398783682846e-05,0.00012631167192012072
0.0002581586013548076,-0.0002460933174006641,1.7581107385922223e-05,4.475027890293859e-05,1.170340328826569e-05,0.0001361920585623011
0.00034459398011676967,-0.00019699442782439291,2.7756899726227857e-05,4.37923263234552e-05,4.499597707763314e-06,0.00014494780043605715
0.0003519625461194664,-0.00011796737089753151,4.438757605385035e-05,2.786170989566017e-05,-1.0008781828219071e-05,0.00014224444748833776
0.00025721933343447745,-5.579119533649646e-05,4.8846159188542515e-05,2.127752304659225e-05,-3.191340510966256e-05,0.00011509721662150696
0.00011643690231721848,-3.1023286283016205e-05,3.6982539313612506e-05,2.8202066459925845e-05,-5.151577715878375e-05,0.00010210010805167258
-5.260884336166782e-06,-1.4310098777059466e-05,2.1768051738035865e-05,2.9160413760109805e-05,-4.850794721278362e-05,0.00013582340034190565
-0.00012743697152473032,2.1260713765514083e-05,2.2480158804683015e-05,1.887473263195716e-05,-1.861855162132997e-05,0.00017499056411907077
-0.0003067625220865011,6.677249621134251e-05,5.0663744332268834e-05,1.9054317817790434e-05,1.1125537639600225e-05,0.0001847364765126258
-0.0004594885103870183,8.754251030040905e-05,7.979531801538542e-05,4.0340171835850924e-05,1.567315666761715e-05,0.00015850963245611638
-0.00044569309102371335,7.256572280311957e-05,8.098678517853841e-05,5.023950507165864e-05,3.290549102530349e-06,0.00010422185732750222
-0.0003154324076604098,4.7493933379882947e-05,6.273552571656182e-05,3.4874497941927984e-05,-8.852974133333191e-06,4.924590757582337e-05
-0.00018810451729223132,3.217529592802748e-05,4.350006929598749e-05,1.4926967196515761e-05,-1.1789010386564769e-05,2.361630549785332e-06
-0.00011800346692325547,2.724113619478885e-05,3.17221820296254e-05,1.8966414927490405e-06,-9.501960448687896e-06,-3.5120476240990683e-05
-9.494398545939475e-05,2.3279582819668576e-05,2.470848266966641e-05,3.2658329018886434e-06,-8.530162631359417e-06,-4.190766776446253e-05
-0.00010217855015071109,1.5180159607552923e-05,1.8356722648604773e-05,1.16934052130091e-05,-1.0888578799495008e-05,-1.9650773538160138e-05
-0.00011584129242692143,7.674324479012284e-06,1.260125918634003e-05,1.821670048229862e-05,-1.3416753063211218e-05,1.12527468445478e-05
-9.904432226903737e-05,3.315932417535805e-06,1.1404968063288834e-05,2.5488221581326798e-05,-1.4048956472834107e-05,3.693265171023086e-05
-5.1169419748475775e-05,8.666120265843347e-06,1.5189088117040228e-05,2.7721116566681303e-05,-1.399472512275679e-05,6.047307761036791e-05
-1.5949588316743757e-07,2.5759694835869595e-05,2.3007041818345897e-05,7.662900316063315e-06,-1.26622380776098e-05,8.048550807870924e-05
3.329652827233076e-05,3.362339339219034e-05,3.415357059566304e-05,-3.271288733230904e-05,-9.276661330659408e-06,8.866607095114887e-05
5.373936437536031e-05,1.4994546290836297e-05,4.660709237214178e-05,-6.297234358498827e-05,-3.5021525945921894e-06,8.550544589525089e-05
6.86648563714698e-05,-2.487084384483751e-05,5.9131940361112356e-05,-6.12482544966042e-05,2.667987644144887e-07,7.428521348629147e-05
8.156365947797894e-05,-6.712757021887228e-05,6.392677460098639e-05,-4.1796305595198646e-05,-1.6294641227432294e-06,4.806250217370689e-05
8.8843225967139e-05,-9.158061584457755e-05,5.561434227274731e-05,-2.8859467420261353e-05,-5.6050603234325536e-06,1.3612653674499597e-05
9.156735904980451e-05,-9.244407556252554e-05,4.235967935528606e-05,-2.735743510129396e-05,-4.3434051804069895e-06,5.904428235226078e-06
8.852933387970552e-05,-8.27202238724567e-05,3.870453656418249e-05,-2.2930256818654016e-05,-8.423152308978388e-08,4.259715205989778e-05
8.209844963857904e-05,-7.52721171011217e-05,4.729739157482982e-05,1.5816666518730926e-06,3.042642902073567e-07,0.00010900847701122984
8.206879283534363e-05,-7.206886948551983e-05,5.676200453308411e-05,4.067206828040071e-05,-4.518915375228971e-06,0.00016193014744203538
9.645693353377283e-05,-7.995703344931826e-05,5.7786099205259234e-05,7.797027501510456e-05,-1.0096993719344027e-05,0.00016179349040612578
0.00011053414345951751,-0.00010017040040111169,5.07813565491233e-05,0.00010511506116017699,-1.155250720330514e-05,0.00013387248327489942
0.00010745541658252478,-0.00011557109246496111,4.2931947973556817e-05,0.00011966467718593776,-1.036402682075277e-05,0.00014839261712040752
8.183111640391871e-05,-0.00011351781722623855,3.55044576281216e-05,0.00011687140067806467,-1.5117661860131193e-05,0.0002026192523771897
3.880684380419552e-05,-9.692792082205415e-05,2.690867768251337e-05,0.0001177982339868322,-2.2373380488716066e-05,0.00023566940217278898
3.900999217876233e-06,-7.627875311300159e-05,3.253458999097347e-05,0.00015460967551916838,-2.569902608229313e-05,0.00020088655583094805
-8.965556048678991e-07,-5.797059566248208e-05,4.525199256022461e-05,0.00020122456771787256,-2.906079862441402e-05,0.00012786137813236564
8.14649865787942e-06,-4.816321961698122e-05,4.337060090620071e-05,0.00021511857630684972,-3.486089190118946e-05,7.074003224261105e-05
1.204877935379045e-05,-4.694180825026706e-05,2.979611963382922e-05,0.0001916997425723821,-3.518256562529132e-05,2.8933298381161876e-05
1.0870146070374176e-05,-5.12486367370002e-05,2.285859955009073e-05,0.00014871415623929352,-2.6767673261929303e-05,-5.000963483325904e-06
1.9373397663002834e-05,-5.814555333927274e-05,2.4645927624078467e-05,0.0001077576307579875,-1.5063933460623957e-05,-2.90180050797062e-05
3.7793499359395355e-05,-6.401048449333757e-05,2.3124237486626953e-05,7.510388968512416e-05,-7.432071470248047e-06,-3.16583136736881e-05
5.485058136400767e-05,-6.678433419438079e-05,1.907864134409465e-05,4.9354875955032185e-05,-2.483856633261894e-06,-9.989058526116423e-06
5.33474849362392e-05,-6.317927181953564e-05,2.0198262063786387e-05,2.7512796805240214e-05,1.4425050949284923e-06,2.219367706857156e-05
3.622368967626244e-05,-5.419924491434358e-05,2.89464423985919e-05,1.6550115105928853e-05,-6.62693992126151e-07,4.815320789930411e-05
2.9428563721012324e-05,-4.6396169636864215e-05,3.236180782550946e-05,1.0108278729603626e-05,-6.2781905398878735e-06,6.0699985624523833e-05
3.92101974284742e-05,-4.7336849092971534e-05,2.3219155991682783e-05,-8.409928341279738e-06,-9.629603482608218e-06,6.128029781393707e-05
5.149576099938713e-05,-5.246395812719129e-05,1.24636080727214e-05,-2.873967787309084e-05,-8.486639671900775e-06,5.8487941714702174e-05
5.7551391364540905e-05,-5.74156510992907e-05,1.3567069800046738e-05,-3.108916644123383e-05,-4.624968823918607e-06,6.254392064874992e-05
6.505028432002291e-05,-6.133451825007796e-05,2.0861876691924408e-05,-1.7962587662623264e-05,2.257448130649209e-07,7.028878462733701e-05
7.824429485481232e-05,-6.46470653009601e-05,2.3369033442577347e-05,-5.452944151329575e-06,6.664159286629001e-07,7.508948328904808e-05
9.071897511603311e-05,-6.675443728454411e-05,1.8680913854041137e-05,-1.7223023860424291e-06,-2.889593361032894e-06,7.519395876443014e-05
9.22791805351153e-05,-6.952956027816981e-05,1.4030605598236434e-05,-3.4715958463493735e-06,-3.5208179269829998e-06,7.487346738344058e-05
8.842326496960595e-05,-7.155595812946558e-05,1.3075040442345198e-05,-1.5844474319237634e-06,7.493957241422322e-07,7.338397699641064e-05
8.33806479931809e-05,-7.06145801814273e-05,1.5092089597601444e-05,4.9347545427735895e-06,3.0487292406178312e-06,6.42196973785758e-05
7.035065209493041e-05,-7.106419798219576e-05,1.4091210687183775e-05,2.6232137315673754e-06,-3.670119667731342e-06,4.749788058688864e-05
3.9142709283623844e-05,-8.021512621780857e-05,6.657890025962843e-06,-1.0799727533594705e-05,-1.4141048268356826e-05,3.2407169783255085e-05
1.0232432032353245e-05,-0.0001000014744931832,4.680242909671506e-06,-1.5268400602508336e-05,-1.6584019249421544e-05,2.8375394322210923e-05
2.286227208969649e-05,-0.00011791075667133555,1.4990938325354364e-05,-5.1532683755795006e-06,-9.430300451640505e-06,4.2871430196100846e-05
7.903181540314108e-05,-0.0001261033321497962,3.163538713124581e-05,9.5777822934906e-06,6.299302413026453e-07,6.712051981594414e-05
0.00013209476310294122,-0.00012132027768529952,4.3959164031548426e-05,1.3920511264586821e-05,5.078681169834454e-06,8.242822514148429e-05
0.00015432793588843197,-9.682787640485913e-05,4.581183020491153e-05,4.687075943365926e-06,-7.486369213438593e-07,8.535554661648348e-05
0.00013936750474385917,-7.194784848252311e-05,3.771334741031751e-05,-4.068541329615982e-06,-1.103267914004391e-05,8.545976015739143e-05
9.406707249581814e-05,-6.180621130624786e-05,3.0107898055575788e-05,-6.257469976844732e-06,-1.712618541205302e-05,8.385976980207488e-05
3.121316331089474e-05,-5.28249038325157e-05,2.5664254280854948e-05,-7.12355040377588e-06,-1.4357033251144458e-05,8.647831418784335e-05
-3.93654772778973e-05,-3.194344026269391e-05,2.364625470363535e-05,2.533021643102984e-06,-5.6988892538356595e-06,9.626934479456395e-05
-0.00010573744657449424,2.15376098822162e-06,2.73134410235798e-05,1.6968509953585453e-05,-3.185262187344051e-07,9.720254456624389e-05
-0.00015737437934149057,3.226233457098715e-05,2.7416459488449618e-05,2.3334989236900583e-05,3.6028336580784526e-06,8.616271225037053e-05
-0.0001685906172497198,4.8566522309556603e-05,1.7867683709482662e-05,2.5539067792124115e-05,6.998429853410926e-06,6.307456351350993e-05
-0.00013028057583142072,5.1446157158352435e-05,1.064263688022038e-05,2.0244200641172938e-05,1.3733655350733898e-06,3.421939618419856e-05
-6.712396134389564e-05,4.4253512896830216e-05,1.2555525245261379e-05,1.4469537745753769e-05,-1.2056736522936262e-05,1.1178525710420217e-05
-1.2911273188365158e-05,2.7206551749259233e-05,1.9965753381256945e-05,1.4176299373502843e-05,-2.139918797183782e-05,2.9460611585818697e-06
2.2899272153154016e-05,3.7494717162189772e-06,2.7317497369949706e-05,1.332786359853344e-05,-2.155322363250889e-05,9.529821909382008e-06
4.019179687020369e-05,-1.9563503883546218e-05,3.1685736757935956e-05,5.984607469144976e-06,-1.6951678844634444e-05,1.9239421817474067e-05
3.766935697058216e-05,-3.415446917642839e-05,3.3344331313855946e-05,1.2036169891871396e-06,-1.0147375178348739e-05,2.819497967720963e-05
1.72986437974032e-05,-4.0431361412629485e-05,3.444669710006565e-05,6.574817234650254e-06,-4.135268227400957e-06,3.638523048721254e-05
-8.558311492379289e-06,-4.7184286813717335e-05,3.6009427276439965e-05,1.899708695418667e-05,-3.4499419143685373e-06,4.313118915888481e-05
-1.8315526176593266e-05,-5.5151511332951486e-05,3.650637518148869e-05,3.170967465848662e-05,-9.663763194112107e-06,4.9774014769354835e-05
-3.0709727525390917e-06,-5.791408329969272e-05,3.696867497637868e-05,4.3331765482435e-05,-1.5537103536189534e-05,5.860574310645461e-05
2.511411003069952e-05,-5.3369931265478954e-05,4.290732249501161e-05,5.2523082558764145e-05,-1.34607589643565e-05,7.018804171821102e-05
4.669150075642392e-05,-5.6431836128467694e-05,5.18570450367406e-05,5.434250851976685e-05,-9.216911166731734e-06,8.0442288890481e-05
5.7446079154033214e-05,-7.845211803214625e-05,5.558962584473193e-05,4.972932583768852e-05,-1.3159236004867125e-05,8.921077096601948e-05
6.604013469768688e-05,-0.00010357674182159826,5.225793211138807e-05,4.19342759414576e-05,-2.2097812689025886e-05,9.790408512344584e-05
8.020473615033552e-05,-0.00011207981879124418,4.431178967934102e-05,3.677824861370027e-05,-2.5909943360602483e-05,9.286673594033346e-05
9.252901509171352e-05,-0.00010313529492123052,3.512043986120261e-05,3.435081453062594e-05,-2.3298865926335566e-05,6.083398693590425e-05
8.749045082367957e-05,-7.707587792538106e-05,3.079104862990789e-05,2.9731694667134434e-05,-1.835734110500198e-05,2.1089299480081536e-05
6.469649815699086e-05,-4.466599420993589e-05,3.1698273232905194e-05,2.0694951672339812e-05,-1.2812916793336626e-05,-2.657629920577165e-07
4.959786747349426e-05,-2.6233630705974065e-05,2.8630447559407912e-05,1.6871832485776395e-05,-9.270965165342204e-06,5.855097697349265e-06
7.616115181008354e-05,-2.7526581106940284e-05,1.8638676920090802e-05,2.6509607778280042e-05,-5.448306183097884e-06,3.685983392642811e-05
0.0001260599965462461,-3.070624734391458e-05,1.0098693564941641e-05,4.0909031667979434e-05,-2.466841806381126e-06,7.244596054079011e-05
0.00014286494115367532,-3.19266073347535e-05,1.6078560292953625e-05,5.092187348054722e-05,-3.1505762763117673e-06,0.00011076126247644424
0.00012508193321991712,-4.545539923128672e-05,3.295638089184649e-05,6.230275903362781e-05,-3.7093191167514306e-06,0.00016433211567346007
0.00010621028923196718,-6.538403977174312e-05,4.2975843825843185e-05,7.482411456294358e-05,-3.89106617149082e-06,0.00021808553719893098
8.40764696476981e-05,-7.31096588424407e-05,4.469169653020799e-05,7.517655467381701e-05,-5.493854132510023e-06,0.0002387199056101963
2.677268821571488e-05,-6.381032289937139e-05,4.5363187382463366e-05,5.878544834558852e-05,-9.046537343238015e-06,0.0002008140436373651
-6.71668749419041e-05,-4.433718277141452e-05,4.390625690575689e-05,3.754768113140017e-05,-9.741637768456712e-06,0.0001259177952306345
-0.0001538105570944026,-2.619631413836032e-05,3.949460369767621e-05,2.4237633624579757e-05,-3.993477093899855e-06,4.834141509491019e-05
-0.00018715571786742657,-1.4615235158998985e-05,2.971903268189635e-05,2.195153501816094e-05,4.142156285524834e-06,-3.215449032722972e-05
-0.00016152944590430707,-8.00434918346582e-06,2.0011368178529665e-05,2.594783654785715e-05,8.946733942138962e-06,-0.00010180997924180701
-0.00010492993169464171,-7.832180926925503e-06,1.4476931028184481e-05,3.15476099785883e-05,6.611149728996679e-06,-0.00012711893941741437
-4.023271321784705e-05,-1.397530832036864e-05,1.6171481547644362e-05,3.3242282370338216e-05,4.620061417881516e-07,-0.00011253186676185578
1.194347260025097e-05,-2.3253249310073443e-05,2.451669570291415e-05,2.7507257982506417e-05,-4.644495675165672e-06,-8.884562703315169e-05
3.5666704206960276e-05,-3.0262597647379152e-05,3.4975008020410314e-05,1.4586829820473213e-05,-7.680855560465716e-06,-6.874910468468443e-05
2.7393050913815387e-05,-3.6172208638163283e-05,4.085166801814921e-05,1.1311996104268474e-06,-1.0168821972911246e-05,-4.687391628976911e-05
3.5908685731556034e-06,-4.298838393879123e-05,3.951664621126838e-05,-6.04186425334774e-06,-1.2285233424336184e-05,-1.0732296686910558e-05
-1.6667401723680086e-05,-5.1649916713358834e-05,3.5941866372013465e-05,-5.532579962164164e-06,-1.2756055184581783e-05,3.721337634488009e-05
-2.264372778881807e-05,-5.911709013162181e-05,3.712666512001306e-05,1.7574540152054396e-06,-1.2858014088124037e-05,8.097259706119075e-05
-1.3740537724515889e-05,-6.185146776260808e-05,4.655985321733169e-05,1.4252520486479625e-05,-1.2553293345263228e-05,0.0001053431915352121
3.394890654817573e-06,-6.085729910410009e-05,5.5799104302423075e-05,2.399181539658457e-05,-1.012207030726131e-05,0.00010502173245185986
1.9491446437314153e-05,-6.365941226249561e-05,5.663737465511076e-05,2.290386510139797e-05,-6.090253464208217e-06,9.622210927773267e-05
3.498211663099937e-05,-7.64025971875526e-05,4.7978810471249744e-05,1.501396945968736e-05,-6.089991529734107e-06,9.901638986775652e-05
5.991222496959381e-05,-9.226069960277528e-05,3.689477307489142e-05,1.050481205311371e-05,-1.249277192982845e-05,0.0001085351686924696
9.343266719952226e-05,-0.00010060323984362185,2.892651355068665e-05,1.1561670362425502e-05,-1.752493335516192e-05,0.00010483222285984084
0.0001277571718674153,-9.482062887400389e-05,2.6876936317421496e-05,8.330177479365375e-06,-1.5708206774434075e-05,9.185351518681273e-05
0.00014922321133781224,-7.551355520263314e-05,3.08889320876915e-05,1.1574911695788614e-05,-1.4591772924177349e-05,8.459245145786554e-05
0.000142737349960953,-4.4538955989992246e-05,4.102621096535586e-05,3.2702384487492964e-05,-1.9228331439080648e-05,7.996999920578673e-05
0.00011870725575136021,-2.22890630539041e-05,4.7733494284329936e-05,5.2006111218361184e-05,-2.2232927221921273e-05,7.809502130839974e-05
9.785898146219552e-05,-2.410638626315631e-05,4.5891454647062346e-05,4.9609032430453226e-05,-2.067892455670517e-05,7.944290700834244e-05
6.750814645783976e-05,-4.213879583403468e-05,4.017853279947303e-05,3.2494044717168435e-05,-1.863864054030273e-05,9.078561561182141e-05
1.1469395758467726e-05,-6.15690223639831e-05,3.492706309771165e-05,2.105007297359407e-05,-1.7958773241844028e-05,0.00011723586794687435
-5.9299825807102025e-05,-6.825952004874125e-05,3.23724998452235e-05,2.629578193591442e-05,-1.6391786630265415e-05,0.00014107425522524863
-0.00010861619375646114,-6.267587741604075e-05,3.185454261256382e-05,3.769989052671008e-05,-1.0003555871662684e-05,0.00015130007523112
-0.00012154200521763414,-4.7978235670598224e-05,3.064528209506534e-05,3.942943294532597e-05,-3.435520511629875e-06,0.00015923228056635708
-0.0001084820760297589,-2.9534829081967473e-05,2.772474726953078e-05,3.252056194469333e-05,-3.0367880299309036e-06,0.00018176915182266384
-7.383032061625272e-05,-1.596128277014941e-05,2.303836117789615e-05,2.714488800847903e-05,-7.268391073012026e-06,0.0002081546263070777
-3.102121263509616e-05,-1.9730174244614318e-05,1.84985274245264e-05,2.7665946618071757e-05,-8.504132892994676e-06,0.00021134632697794586
3.54056555806892e-06,-4.0417813579551876e-05,2.0244968254701234e-05,3.0468672775896266e-05,-3.6104349874221953e-06,0.00017895748896989971
2.6385387172922492e-05,-6.183989171404392e-05,2.542931542848237e-05,3.0093395253061317e-05,4.587444436765509e-06,0.00012426792818587273
4.016400998807512e-05,-7.16283029760234e-05,2.6961239200318232e-05,2.735324414970819e-05,7.660418305022176e-06,6.576726445928216e-05
4.844103750656359e-05,-7.377057772828266e-05,2.3242417228175327e-05,2.4473985831718892e-05,8.712264047971985e-07,4.230998001730768e-06
5.3511204896494746e-05,-6.9627225457225e-05,1.6108268027892336e-05,1.6922291251830757e-05,-1.181916468340205e-05,-5.913649147260003e-05
5.810104266856797e-05,-5.6053013395285234e-05,8.696886652614921e-06,7.3638079811644275e-06,-2.0582076103892177e-05,-9.493035759078339e-05
6.72707028570585e-05,-4.249934499966912e-05,4.875268132309429e-06,1.3135492736182641e-05,-1.9108341803075746e-05,-8.481150871375576e-05
8.456056093564257e-05,-3.934880078304559e-05,6.454466983996099e-06,3.720096356119029e-05,-8.959119440987706e-06,-5.182049790164456e-05
0.0001044575110427104,-4.890502168564126e-05,1.4245185411709826e-05,6.200170173542574e-05,4.599331987265032e-06,-2.3505841454607435e-05
0.00011764005466829985,-7.148352597141638e-05,2.4614424546598457e-05,7.399773312499747e-05,1.1949401596211828e-05,-1.5678910131100565e-05
0.00011848971917061135,-9.809921175474301e-05,3.210516297258437e-05,6.89591615810059e-05,1.0190114153374452e-05,-2.9906435884186067e-05
9.905505430651829e-05,-0.00010893331636907533,3.684828334371559e-05,4.846342562814243e-05,5.37303822056856e-06,-4.641726627596654e-05
5.391458762460388e-05,-9.389145270688459e-05,4.3133219151059166e-05,2.398179640294984e-05,5.146836429048562e-06,-4.318886931287125e-05
-5.875277111044852e-06,-5.411620804807171e-05,5.0124730478273705e-05,1.1842108506243676e-05,5.634574790747138e-06,-1.3207770280132536e-05
-5.116403190186247e-05,-1.373655231873272e-05,4.940694270771928e-05,1.1744264156732243e-05,3.2060099783848273e-06,3.75073250324931e-05
-6.962595216464251e-05,2.428655307085137e-06,4.649175753002055e-05,1.706341572571546e-05,3.1659317301091505e-06,8.25709430500865e-05
-8.095032535493374e-05,-3.454432999205892e-06,4.7378791350638494e-05,2.5295659725088626e-05,8.157741859804446e-08,8.121615974232554e-05
-7.643472781637684e-05,-1.5094557966222055e-05,4.7851455747149885e-05,3.6281799111748114e-05,-8.50376090966165e-06,4.747005004901439e-05
-4.353719486971386e-05,-2.087514803861268e-05,4.6245237172115594e-05,3.8882710214238614e-05,-1.914418135129381e-05,3.427996489335783e-05
-6.19304773863405e-06,-2.6914307454717346e-05,3.7165409594308585e-05,1.826029983931221e-05,-3.091939652222209e-05,2.3353471988230012e-05
1.8954304323415272e-05,-3.5291323001729324e-05,2.415179187664762e-05,-1.229706595040625e-05,-3.622262738645077e-05,-2.135971408279147e-05
2.7478128686198033e-05,-3.5407756513450295e-05,1.7585878595127724e-05,-2.5203387849614955e-05,-3.6227309465175495e-05,-6.465328624472022e-05
2.7194324502488598e-05,-3.14329081447795e-05,2.1590114556602202e-05,-3.8085922824393492e-06,-3.629457933129743e-05,-4.7482375521212816e-05
2.317900361958891e-05,-2.734710869845003e-05,3.0570172384614125e-05,3.324104909552261e-05,-3.5200169804738835e-05,2.6722669645096175e-05
2.1159397874725983e-05,-2.4511437004548497e-05,3.5755871067522094e-05,5.2996907470515e-05,-2.9392973374342546e-05,0.00010035743616754189
2.371130176470615e-05,-2.555563514761161e-05,3.1348943593911827e-05,4.5484164729714394e-05,-1.9454306311672553e-05,0.00013834665878675878
3.175594247295521e-05,-3.275879498687573e-05,2.059033613477368e-05,2.7205283913644962e-05,-8.218426046369132e-06,0.00013843835040461272
5.106094977236353e-05,-4.710124630946666e-05,1.0600101632007863e-05,1.4121113053988665e-05,-3.6345666103443364e-06,0.00010696556273614988
9.244276589015499e-05,-6.84863407514058e-05,6.321266937447945e-06,1.1578434168768581e-05,-9.362359378428664e-06,7.337132410611957e-05
0.000157440168550238,-0.00010020371701102704,1.00014094641665e-05,2.0996852981625125e-05,-1.9548624550225213e-05,7.206392183434218e-05
0.00023538048844784498,-0.00014288185047917068,1.6692387362127192e-05,3.7715730286436155e-05,-2.667052103788592e-05,0.00010748521162895486
0.0003067785582970828,-0.0001796563738025725,2.026230504270643e-05,4.907607944915071e-05,-2.6530309696681798e-05,0.00015679468924645334
0.00034311896888539195,-0.00018923326570075005,2.1175741494516842e-05,4.1069022699957713e-05,-1.9052200514124706e-05,0.00020011015294585377
0.0003181698266416788,-0.00016449386021122336,3.008111525559798e-05,2.0616869733203202e-05,-9.619260708859656e-06,0.00023789094120729715
0.00021223568182904273,-0.00011494052887428552,5.193078686716035e-05,1.225947926286608e-05,-5.90542458667187e-06,0.00027129286900162697
4.604458808898926e-05,-6.451740773627535e-05,6.720868987031281e-05,3.065292185056023e-05,-6.794055025238777e-06,0.0002938922552857548
-0.00011032198381144553,-2.877995211747475e-05,6.023326568538323e-05,5.35242106707301e-05,-3.1952661174727837e-06,0.0003030364168807864
-0.00020737793238367885,2.8000387786164538e-08,4.408422319102101e-05,5.555629832088016e-05,4.615623311110539e-06,0.00029320281464606524
-0.0002506610471755266,3.824769737548195e-05,3.589537664083764e-05,4.136296411161311e-05,4.487146725296043e-06,0.0002502479765098542
-0.00024991045938804746,7.574988558189943e-05,3.7739424442406744e-05,2.9651782824657857e-05,-8.937720394897042e-07,0.00016706346650607884
-0.00024001896963454783,8.705171785550192e-05,4.205575896776281e-05,3.382424620212987e-05,-4.287011506676208e-06,7.388812809949741e-05
-0.0002618574071675539,6.736291106790304e-05,4.0898961742641404e-05,4.903726949123666e-05,-5.29109320268617e-06,1.4689386262034532e-05
-0.0002789702557493001,3.576584276743233e-05,3.6335997720016167e-05,6.053263496141881e-05,-3.885544174409006e-06,-3.195144745404832e-05
-0.0002351963921682909,6.380192644428462e-06,3.473999458947219e-05,7.42093106964603e-05,-5.246855835139286e-06,-0.00011001742677763104
-0.0001625240547582507,-1.0067507901112549e-05,3.444974572630599e-05,8.723046630620956e-05,-1.3565041626861785e-05,-0.0001924907264765352
-0.00010674250370357186,-2.1214878870523535e-05,3.4938293538289145e-05,8.62696542753838e-05,-2.396744275756646e-05,-0.00026740346220321953
-6.416473479475826e-05,-4.1359129681950435e-05,3.360325354151428e-05,7.473998994100839e-05,-2.731499625951983e-05,-0.0003170151321683079
-2.49057229666505e-05,-5.983246228424832e-05,3.113647471764125e-05,6.062935062800534e-05,-2.347895861021243e-05,-0.00027730411966331303
8.92422758624889e-06,-6.670135189779103e-05,2.9988743335707113e-05,5.313925794325769e-05,-2.1406347514130175e-05,-0.00015273816825356334
2.9202150471974164e-05,-6.605949602089822e-05,3.167981412843801e-05,5.270967085380107e-05,-2.25193944061175e-05,-2.235350439150352e-05
3.334279972477816e-05,-6.688018038403243e-05,3.40071928803809e-05,5.2284911362221465e-05,-2.6665475161280483e-05,3.563563586794771e-05
2.8009002562612295e-05,-7.183925481513143e-05,3.331985863042064e-05,4.26232218160294e-05,-3.278139411122538e-05,2.894299541367218e-05
2.9865404940210283e-05,-7.238992839120328e-05,3.1757139367982745e-05,3.168248076690361e-05,-3.096188447671011e-05,1.8297005226486363e-05
4.709794666268863e-05,-6.520419265143573e-05,3.3910389902302995e-05,3.421391375013627e-05,-1.542426980449818e-05,4.425067891133949e-05
6.929870141902938e-05,-5.8988200180465356e-05,3.878307688864879e-05,4.493305823416449e-05,9.86764234767179e-07,8.075769437709823e-05
8.226752834161744e-05,-5.83774053666275e-05,3.977529559051618e-05,5.000202509108931e-05,7.830456524970941e-06,9.937304275808856e-05
8.531845378456637e-05,-5.970823622192256e-05,3.716724313562736e-05,4.719598655356094e-05,8.903200978238601e-06,9.93935827864334e-05
8.244106720667332e-05,-5.9957535995636135e-05,3.5772543924394995e-05,3.9259604818653315e-05,9.31183330976637e-06,8.841224916977808e-05
7.89829864515923e-05,-5.9625323046930134e-05,3.608672341215424e-05,2.587597191450186e-05,8.731971320230514e-06,7.756665581837296e-05
8.16182218841277e-05,-6.048250725143589e-05,3.504247433738783e-05,9.222699191013817e-06,6.398976893251529e-06,7.513097079936415e-05
8.969972259365022e-05,-6.572454731212929e-05,3.532200207700953e-05,1.475233517567176e-07,4.002678451797692e-06,8.04429073468782e-05
0.000105204017017968,-7.805731002008542e-05,3.7679728848161176e-05,7.646988706255797e-06,6.54239272535051e-07,9.368888277094811e-05
0.00014291139086708426,-9.435569518245757e-05,3.9873073546914384e-05,2.898237289628014e-05,-1.974409769900376e-06,0.00012751207395922393
0.000206624114071019,-0.00010694569209590554,3.70353736798279e-05,5.336917456588708e-05,-1.291342414333485e-06,0.00016547527047805488
0.0002753064036369324,-0.00011476942745503038,2.4796718207653612e-05,6.518286681966856e-05,-1.8581372387416195e-06,0.00017730779654812068
0.00031551613938063383,-0.00011699769675033167,1.1215412087040022e-05,5.3701820434071124e-05,-1.0786942766571883e-05,0.00015528207586612552
0.0003101313777733594,-0.00011468891170807183,1.863128659351787e-06,2.2659434762317687e-05,-2.515637424949091e-05,0.00011801665823440999
0.00027966737980023026,-0.00011247212387388572,-7.0021196734160185e-06,-2.1590558390016668e-05,-2.8066653612768278e-05,8.44473615870811e-05
0.00022190266463439912,-0.00010106174886459485,-1.6190406313398853e-05,-7.696422835579142e-05,-1.41011751111364e-05,8.201446325983852e-05
0.00011647559585981071,-7.014414586592466e-05,-1.7277739971177652e-05,-0.00012107833026675507,3.372131914147758e-06,0.00011424864351283759
-2.7049576601712033e-05,-3.3248827094212174e-05,6.059856787032913e-06,-0.00010836348519660532,1.1281115803285502e-05,0.00017084543651435524
-0.00015259273641277105,-7.5669536272471305e-06,4.038419865537435e-05,-3.234400355722755e-05,1.7915417629410513e-06,0.0001954748440766707
-0.0002190847008023411,9.447670890949667e-06,5.956582390354015e-05,2.719195072131697e-05,-9.097227120946627e-06,0.00013290756032802165
-0.00024330781889148057,1.7332735296804458e-05,5.4600215662503615e-05,2.6250630980939604e-05,-1.1943401659664232e-05,1.2941493878315669e-05
-0.00023835964384488761,1.8823968275683e-05,4.305902257328853e-05,7.234460554172983e-06,-1.0121166269527748e-05,-9.818054968491197e-05
-0.00021030083007644862,2.300202686456032e-05,4.3472926336107776e-05,2.4591154215158895e-06,-1.4100335192779312e-06,-0.00015146132500376552
-0.00015874014934524894,2.389291512372438e-05,4.603423803928308e-05,1.2199242519272957e-05,7.352045940933749e-06,-0.00014823389938101172
-9.936153219314292e-05,1.1154254934808705e-05,4.327228816691786e-05,2.719025724218227e-05,1.2670511750911828e-05,-9.836828394327313e-05
-4.8918573156697676e-05,-1.2198437616461888e-05,3.6348370485939085e-05,3.745503636309877e-05,1.3180259884393308e-05,-2.9508242732845247e-05
-1.5807936506462283e-05,-3.514146010274999e-05,3.098971865256317e-05,3.527065200614743e-05,6.910587217134889e-06,1.9936704120482318e-05
-2.4691812541277613e-06,-5.23981980222743e-05,3.058675429201685e-05,2.9365770387812518e-05,-3.1333077004092047e-06,4.3372729123802856e-05
-4.280218036001315e-06,-6.361776468111202e-05,3.4556116588646546e-05,3.197161277057603e-05,-1.1395493856980465e-05,6.043769099051133e-05
-4.318707397032995e-06,-7.087855919962749e-05,3.834475137409754e-05,3.924806151189841e-05,-1.3637230040330905e-05,8.227262878790498e-05
9.94097445072839e-06,-7.477244071196765e-05,3.84795457648579e-05,3.7443933251779526e-05,-1.0369790288677905e-05,9.791170305106789e-05
3.1043826311361045e-05,-7.803204061929137e-05,3.3976251870626584e-05,2.5071503841900267e-05,-7.281486887222854e-06,9.79635224211961e-05
4.9535443395143375e-05,-8.605474431533366e-05,2.9273604013724253e-05,1.0582230061118025e-05,-6.769733317923965e-06,9.339179814560339e-05
6.119879253674299e-05,-9.251754818251356e-05,2.9289098165463656e-05,1.3026381111558294e-06,-3.1415647754329257e-06,0.00010657705570338294
6.854537787148729e-05,-8.486246224492788e-05,3.481354360701516e-05,8.150749977176019e-07,5.695510026271222e-06,0.0001331615640083328
7.168651063693687e-05,-6.932661199243739e-05,4.173407069174573e-05,8.988297850009985e-06,1.2060993867635261e-05,0.00015405866724904627
6.917339487699792e-05,-6.412964285118505e-05,4.496672045206651e-05,2.0386583855724894e-05,1.006030561256921e-05,0.00015450095816049725
5.808095374959521e-05,-6.698261859128252e-05,4.2860599933192134e-05,2.8854970878455788e-05,3.87318323191721e-06,0.00013603377738036215
4.405457366374321e-05,-6.157912139315158e-05,4.334533150540665e-05,2.547430085542146e-05,3.502271113120514e-07,0.000119050542707555
3.184101660735905e-05,-4.3458327127154917e-05,5.060949479229748e-05,1.5733113514215802e-06,-2.2990536763245473e-06,0.00011043678387068212
2.3653665266465396e-05,-2.1400477635324933e-05,5.333685840014368e-05,-2.568877607700415e-05,-1.094543495128164e-05,7.140067464206368e-05
1.8265032849740237e-05,-9.859889360086527e-06,5.125295865582302e-05,-3.0196330044418573e-05,-2.3076216166373342e-05,-3.5978791856905445e-05
1.864565820142161e-05,-1.4078750609769486e-05,4.6568216930609196e-05,-1.3151884559192695e-05,-3.2621450372971594e-05,-0.0001481671497458592
2.704680991882924e-05,-2.6275982236256823e-05,3.7392874219221994e-05,3.7973779853928136e-06,-3.718892185133882e-05,-0.00014200231817085296
4.1517141653457657e-05,-3.486713467282243e-05,2.843679249053821e-05,2.5571251171641052e-05,-3.560451295925304e-05,-3.325698708067648e-05
4.857035310124047e-05,-3.7781617720611393e-05,2.599754952825606e-05,6.000842040521093e-05,-3.162709253956564e-05,2.1241556169115938e-05
4.694354720413685e-05,-4.115976844332181e-05,2.878948362194933e-05,8.836818597046658e-05,-2.995834256580565e-05,-7.663649739697576e-06
3.764363282243721e-05,-4.2340911022620276e-05,3.13876589643769e-05,0.00010550332081038505,-3.0161359973135404e-05,-4.789354352396913e-05
2.1413705326267518e-05,-4.483140946831554e-05,3.0546929338015616e-05,0.00010470449342392385,-2.8508322429843247e-05,-6.311070319497958e-05
1.81710347533226e-05,-5.88698239880614e-05,2.6339455871493556e-05,8.493737550452352e-05,-2.5789247956709005e-05,-3.886643025907688e-05
3.399192792130634e-05,-7.402613118756562e-05,2.3481259631807916e-05,6.824305455666035e-05,-2.2917214664630592e-05,1.350016646028962e-06
5.256931763142347e-05,-8.275835716631263e-05,2.492738531145733e-05,6.17517507635057e-05,-2.0356159438961186e-05,2.9063972760923207e-05
6.027621202520095e-05,-8.95074408617802e-05,2.698254684219137e-05,5.633415639749728e-05,-2.1874790036235936e-05,2.744316225289367e-05
5.9899444750044495e-05,-8.734593575354666e-05,2.517108259780798e-05,4.596386861521751e-05,-2.174022483814042e-05,2.167704406019766e-05
5.992116712150164e-05,-7.159192318795249e-05,2.416118877590634e-05,4.026429451187141e-05,-1.4509851098409854e-05,3.552580892574042e-05
6.0550650232471526e-05,-6.213684537215158e-05,2.6263183826813474e-05,4.822249320568517e-05,-7.933374945423566e-06,5.2937353757442906e-05
5.6273795053130016e-05,-7.067967089824378e-05,2.9447974156937562e-05,6.27263289061375e-05,-8.805383913568221e-06,5.6397471780655906e-05
4.951015216647647e-05,-7.955075852805749e-05,2.976251380459871e-05,7.380728493444622e-05,-1.1704320968419779e-05,6.233377644093707e-05
4.073328454978764e-05,-7.279440615093336e-05,2.4808430680423044e-05,7.858161552576348e-05,-1.098140000976855e-05,8.032236655708402e-05
2.9074462872813456e-05,-5.64747751923278e-05,1.7803693481255323e-05,7.290842768270522e-05,-6.122882950876374e-06,0.00010053639562102035
1.5429259292432107e-05,-3.517263394314796e-05,1.1291160262771882e-05,5.506948218680918e-05,1.595452658875729e-06,0.00011502860434120521
2.116383484462858e-06,-8.313514626934193e-06,7.962061317812186e-06,2.5206141799571924e-05,5.8644650380301755e-06,0.00011078007082687691
-7.432770871673711e-06,1.1773485312005505e-05,8.975462151283864e-06,-1.088969838747289e-05,2.3020854769129073e-06,8.737127063795924e-05
-2.904752363974694e-06,1.2617372703971341e-05,1.3702637261303607e-05,-3.4264394344063476e-05,-7.2309276220039465e-06,5.718389365938492e-05
2.095367744914256e-05,1.2566019904625136e-06,2.0991215933463536e-05,-3.080473106820136e-05,-1.4691731848870404e-05,3.664843097794801e-05
5.027528095524758e-05,-1.14286503958283e-05,2.8424852644093335e-05,-8.43782618176192e-06,-1.1862703104270622e-05,3.0866234737914056e-05
6.824935553595424e-05,-2.7234455046709627e-05,3.526483487803489e-05,1.5263376553775743e-05,-1.9095900825050194e-06,3.7327201425796375e-05
7.205026486190036e-05,-4.616552541847341e-05,4.132624599151313e-05,2.490928818588145e-05,6.896490958752111e-06,5.050738400314003e-05
6.585515075130388e-05,-6.39365753158927e-05,3.9178157749120146e-05,1.702430563454982e-05,7.754883881716523e-06,7.104724500095472e-05
5.9305453760316595e-05,-7.196977094281465e-05,3.266039857408032e-05,1.7368542103213258e-05,3.572063633328071e-06,0.000107268599094823
5.546193278860301e-05,-7.110675505828112e-05,2.9361763154156506e-05,2.8430993552319705e-05,3.5802523257189023e-07,0.0001487051777075976
5.6430257245665416e-05,-7.318134885281324e-05,2.82095334114274e-05,2.1794839994981885e-05,-7.762856512272265e-06,0.00016108917770907283
6.147858948679641e-05,-7.635792280780151e-05,2.985009632539004e-05,4.62738671558327e-06,-1.3701390344067477e-05,0.00015417746908497065
6.61027297610417e-05,-6.69540895614773e-05,3.6824938433710486e-05,1.1328629625495523e-05,-1.3631663023261353e-05,0.0001317104761255905
7.348692452069372e-05,-5.510854680323973e-05,4.426525629241951e-05,3.306428334326483e-05,-1.2597756722243503e-05,0.00010021260095527396
8.570333011448383e-05,-5.830128429806791e-05,4.6416596887866035e-05,4.6947516239015386e-05,-1.2328074262768496e-05,6.735005445079878e-05
0.00010167351138079539,-7.966903649503365e-05,4.714012538897805e-05,5.5309526942437515e-05,-1.5120472198759671e-05,2.630594462971203e-05
9.882271842798218e-05,-0.00010165006096940488,4.871474811807275e-05,6.253834726521745e-05,-1.5565150533802807e-05,2.4606051738373935e-06
6.848068733233958e-05,-0.00010598643712000921,5.007768049836159e-05,7.08809748175554e-05,-1.3064445738564245e-05,1.7850863514468074e-05
2.9011132937739603e-05,-9.55245632212609e-05,4.911995347356424e-05,7.156145147746429e-05,-9.774117643246427e-06,5.1579288992797956e-05
-8.862778486218303e-06,-7.290260691661388e-05,4.578231164487079e-05,6.442190351663157e-05,-1.0059548003482632e-05,7.66437005950138e-05
-4.354807242634706e-05,-4.479579001781531e-05,4.226254895911552e-05,5.193123797653243e-05,-1.4607780030928552e-05,0.00010345227929065004
-8.339735359186307e-05,-2.350815702811815e-05,4.1635328670963645e-05,3.966866643168032e-05,-1.837014679040294e-05,0.00013587440480478108
-0.00013026803208049387,-1.0312423000868876e-05,4.088220885023475e-05,3.446486152824946e-05,-1.751999297994189e-05,0.00015804232680238783
-0.0001521894009783864,1.6043223922679317e-06,3.55264128302224e-05,3.77482756448444e-05,-1.443208020646125e-05,0.00015666987746953964
-0.00012819415132980794,1.2013553714496084e-05,3.054285843973048e-05,4.6059951273491606e-05,-1.1128381629532669e-05,0.0001354325213469565
-7.953939348226413e-05,1.182110372610623e-05,3.097666922258213e-05,5.1048507884843275e-05,-7.73682495491812e-06,0.00010228645987808704
-3.355193985044025e-05,-2.781900320769637e-06,3.286330320406705e-05,4.8989000788424164e-05,-7.145931249397108e-06,6.439569551730528e-05
-3.535790256137261e-06,-2.0259818484191783e-05,3.324771751067601e-05,4.38520910392981e-05,-9.543522537569515e-06,2.739183219091501e-05
1.1878489203809295e-05,-3.091366670560092e-05,3.459942672634497e-05,4.1953193431254476e-05,-1.0362393368268386e-05,1.1639517651929054e-06
2.7115716875414364e-05,-4.0187936974689364e-05,3.7353693187469617e-05,4.2667234083637595e-05,-8.749476364755537e-06,-1.382502796332119e-05
5.1241760957054794e-05,-5.2066752687096596e-05,3.920866220141761e-05,4.740642543765716e-05,-1.029292161547346e-05,-2.6666833946364932e-05
7.354135595960543e-05,-6.055847188690677e-05,3.656662374851294e-05,5.159805732546374e-05,-1.456929931009654e-05,-2.9798751711496152e-05
8.587935735704377e-05,-6.241910887183622e-05,3.1329782359534875e-05,4.38617353211157e-05,-1.7679290976957418e-05,-1.2208644875499886e-05
8.175909169949591e-05,-5.960670387139544e-05,2.74800095212413e-05,2.6070638341479935e-05,-1.7076725271181203e-05,1.0149768968403805e-05
4.6980967454146594e-05,-5.396650158218108e-05,2.7236061214352958e-05,1.5691772205173038e-05,-1.1402289601392113e-05,2.480764305801131e-05
-2.0423571186256595e-05,-4.27080703957472e-05,3.04070799757028e-05,2.0737350496347062e-05,-5.069392955192598e-06,3.140656917821616e-05
-8.507076563546434e-05,-2.8225098503753543e-05,3.504362393869087e-05,3.428312993492e-05,-2.1988093976688106e-06,4.042442378704436e-05
-0.00011319987970637158,-2.5161380108329467e-05,3.747226219275035e-05,4.124570841668174e-05,-7.093512977007776e-07,6.680740625597537e-05
-0.00010463346552569419,-3.970016769017093e-05,3.54356670868583e-05,3.8836686144350097e-05,-6.443983238568762e-06,9.389514161739498e-05
-7.212239142972976e-05,-5.4726293456042185e-05,3.4354747185716406e-05,2.7536692869034596e-05,-1.3064498489256948e-05,0.00011552152136573568
-3.0325118132168427e-05,-5.34402861376293e-05,3.7802579754497856e-05,1.2902011803817004e-05,-1.0771625966299325e-05,0.0001359056041110307
4.924501354253152e-06,-4.300594810047187e-05,4.0110378904500976e-05,-1.1008573608251027e-07,-1.0084675523103215e-05,0.00014660018496215343
2.1983631086186506e-05,-3.9566013583680615e-05,3.219181962776929e-05,-1.6489684639964253e-05,-1.578131559654139e-05,0.0001476143952459097
2.4065437173703685e-05,-4.542104943539016e-05,2.148538624169305e-05,-2.9425469620036893e-05,-2.081676029774826e-05,0.00014791647845413536
2.1583586203632876e-05,-5.0896473112516105e-05,1.9131024600937963e-05,-2.8032563932356425e-05,-2.0726329239550978e-05,0.00013561018567997962
2.6734309358289465e-05,-5.4795120377093554e-05,2.2241189071792178e-05,-1.3138866052031517e-05,-1.825417893996928e-05,0.00010094723984366283
5.2912400860805064e-05,-6.215657049324363e-05,2.2921336494619027e-05,-6.722486318722076e-07,-1.532975693407934e-05,7.877588359406218e-05
0.0001023516888380982,-6.770155596313998e-05,2.371198934270069e-05,3.010751470355899e-07,-1.3326828593562823e-05,8.938828977989033e-05
0.00014613692474085838,-6.812575156800449e-05,2.7160347599419765e-05,-3.9672140701441094e-06,-1.3791390301776119e-05,0.0001109722870751284
0.00016277020040433854,-7.047440885799006e-05,2.996244074893184e-05,-1.251454591510992e-06,-1.43037041198113e-05,0.00011609652574406937
0.00015994856948964298,-8.10697820270434e-05,3.0788130970904604e-05,1.4629373254138045e-05,-1.181985226139659e-05,0.00010531786392675713
0.0001479605707572773,-9.40841855481267e-05,3.077288783970289e-05,3.737798397196457e-05,-8.459981472697109e-06,8.899059321265668e-05
0.00011323294165777043,-0.00010151555034099147,3.2920590456342325e-05,5.521162165678106e-05,-6.428027518268209e-06,7.034927693894133e-05
3.4437394788255915e-05,-9.922177559928969e-05,3.8704380131093785e-05,6.367153400788084e-05,-4.928909675072646e-06,4.988172076991759e-05
-6.252161983866245e-05,-8.724717190489173e-05,4.4998763769399375e-05,6.711863534292206e-05,-3.844674210995436e-06,3.2780528272269294e-05
-0.00010937129991361871,-7.179394015111029e-05,4.071757211931981e-05,6.464261969085783e-05,-3.934215783374384e-06,2.66499919234775e-05
-8.241656905738637e-05,-5.608735227724537e-05,2.3806354874977842e-05,5.153291567694396e-05,-5.68436144021689e-06,3.1449566449737176e-05
-3.155864396831021e-05,-3.864396421704441e-05,8.76547801453853e-06,3.3117845305241644e-05,-5.842294740432408e-06,5.12239130330272e-05
-1.6331819097104017e-06,-2.2200221792445518e-05,1.0068619303638116e-05,1.573926601849962e-05,-7.60019872814155e-07,8.858731598593295e-05
6.070080871722894e-06,-1.719496322039049e-05,2.301540007465519e-05,2.268821390316589e-06,4.971004727849504e-06,0.00013010160182602704
5.520075319509488e-06,-2.2810943846707232e-05,3.2773710699984804e-05,-3.809745294347522e-06,3.899986495525809e-06,0.00015103397890925407
2.371829395997338e-06,-2.8111040592193604e-05,3.1198138458421454e-05,-5.6245826272061095e-06,-2.0647455585276475e-06,0.00013621222751680762
1.5218510043268907e-06,-2.9909071599831805e-05,2.064760701614432e-05,-9.022655831358861e-06,-9.218460945703555e-06,8.709260873729363e-05
7.743865353404544e-06,-3.016959090018645e-05,8.484172212774865e-06,-1.3462188690027688e-05,-1.142107430496253e-05,4.068137423018925e-05
4.315486512496136e-05,-4.833205821341835e-05,4.482596978050424e-06,-1.2300604794290848e-05,-3.0390986012207577e-06,2.073660471069161e-05
0.00011156820983160287,-9.762042463989928e-05,1.5945535778882913e-05,5.3089515859028324e-06,7.984661351656541e-06,2.0137225874350406e-05
0.00017031499010045081,-0.00014915912470314652,3.569933687685989e-05,3.100372487097047e-05,1.1700076356646605e-05,3.3102482120739296e-05
0.00019741131109185517,-0.0001724945759633556,4.825510040973313e-05,4.6926797949709e-05,3.670998012239579e-07,4.95844469696749e-05
0.00020063009287696332,-0.00016019371105358005,5.441022221930325e-05,4.096185875823721e-05,-1.89427246368723e-05,6.206109537743032e-05
0.00017953714996110648,-0.00012292840983718634,6.185846723383293e-05,1.4390935575647745e-05,-3.127646414213814e-05,6.800566916354e-05
0.00012348598102107644,-7.549826113972813e-05,6.672058952972293e-05,-5.034727564634522e-06,-3.415861647226848e-05,8.179547876352444e-05
2.4639117327751592e-05,-3.53768264176324e-05,6.185484380694106e-05,-1.8363747358307592e-06,-2.944398147519678e-05,0.0001013411529129371
-8.929186151362956e-05,-3.555878947736346e-06,5.1884009735658765e-05,2.0731440599774942e-05,-1.8110808014171198e-05,0.00010396505240350962
-0.00016069186676759273,3.611471765907481e-05,4.251819700584747e-05,4.761390300700441e-05,-4.8639562919561286e-06,7.797677244525403e-05
-0.0001708779891487211,7.67450183047913e-05,3.459399886196479e-05,6.225951801752672e-05,-6.935352416803653e-07,2.867087459890172e-05
-0.00014059990644454956,9.75705188466236e-05,2.9871027436456643e-05,6.309162563411519e-05,-6.003032012813492e-06,-1.9344937754794955e-05
-8.67715134518221e-05,8.75633631949313e-05,2.81340726360213e-05,5.7647110224934295e-05,-1.3816164937452413e-05,-3.745909998542629e-05
-3.0239925763453357e-05,5.8451463701203465e-05,2.5426070351386443e-05,5.2201212383806705e-05,-1.7892903997562826e-05,-3.0232688004616648e-05
4.1462112676526885e-06,2.4828714231261984e-05,1.9046394299948588e-05,4.4903408706886694e-05,-1.610619256098289e-05,-2.833542566804681e-05
3.6816581996390596e-06,-3.237043074477697e-06,1.5728110156487674e-05,3.918134098057635e-05,-9.92866262095049e-06,-2.901661537180189e-05
-2.1578105588559993e-05,-1.9894421711796895e-05,1.924506614159327e-05,4.1284987673861906e-05,-2.0906181816826575e-06,-7.302807716769166e-06
-4.896826794720255e-05,-2.3761695047141984e-05,2.6563320716377348e-05,4.4967327994527295e-05,4.198958777124062e-06,3.308577652205713e-05
-5.44930953765288e-05,-1.4829475730948616e-05,3.020305848622229e-05,4.528200952336192e-05,5.095976121083368e-06,7.295660179806873e-05
-3.108061719103716e-05,-7.52970777284645e-07,2.796472836052999e-05,4.7033277951413766e-05,1.180848698822956e-06,0.00011696284491335973
-3.0432940434366174e-07,2.0860773020103807e-06,2.440088428556919e-05,5.079116453998722e-05,-2.366502030781703e-06,0.00016298021364491433
1.512308244855376e-05,-1.5266419723047875e-05,2.39795699599199e-05,5.283851351123303e-05,-3.164318513881881e-06,0.0001872270368039608
1.6529469576198608e-05,-4.1902632801793516e-05,2.6144427465624176e-05,4.977315984433517e-05,-5.489972409122856e-06,0.0001833187125157565
1.673067527008243e-05,-6.596017919946462e-05,2.696351111808326e-05,4.268702832632698e-05,-9.535463505017105e-06,0.00016880192561075091
1.908472586364951e-05,-8.321366476593539e-05,2.4811704861349426e-05,3.491948882583529e-05,-1.1967484169872478e-05,0.00015363185957539827
2.1726786144427024e-05,-8.937075472204015e-05,2.2421772882808e-05,3.293888221378438e-05,-1.1855937373184133e-05,0.00014932334306649864
2.9383671062532812e-05,-8.423709368798882e-05,2.006109934882261e-05,3.6917004763381556e-05,-7.300893685169285e-06,0.00014974283112678677
4.1016384784597903e-05,-7.93083236203529e-05,1.7288048184127547e-05,3.755751458811574e-05,-7.400473350571701e-06,0.00012521138705778867
4.574232661980204e-05,-8.218980656238273e-05,1.8087926946463995e-05,4.392646951600909e-05,-1.1872204595420044e-05,8.361737855011597e-05
4.7104393161134794e-05,-8.526334568159655e-05,2.2981384972808883e-05,5.770631833001971e-05,-1.4301766896096524e-05,4.985868145013228e-05
5.0237536925124004e-05,-8.280285692308098e-05,2.3148604668676853e-05,6.217160989763215e-05,-1.2878207598987501e-05,2.7087440685136244e-05
5.0063397793564945e-05,-7.892416033428162e-05,1.7678228687145747e-05,6.305734859779477e-05,-1.4202560123521835e-05,3.1930164823279483e-06
4.407971937325783e-05,-7.506940164603293e-05,1.1848931535496376e-05,6.597873289138079e-05,-1.9462115233181976e-05,-3.906624624505639e-05
4.229800106259063e-05,-7.478601764887571e-05,1.0629245480231475e-05,6.330511678243056e-05,-2.4256478354800493e-05,-8.149987843353301e-05
5.36965744686313e-05,-8.043152774916962e-05,1.688184966042172e-05,4.998074291506782e-05,-2.630573362694122e-05,-7.660593837499619e-05
7.88666438893415e-05,-9.185230737784877e-05,2.3439790311385877e-05,3.9323149394476786e-05,-2.5186227503581904e-05,-1.858588439063169e-05
0.000113618079922162,-0.00010884225048357621,2.7732756279874593e-05,4.47660859208554e-05,-2.475211840646807e-05,4.388255547382869e-05
0.0001405694492859766,-0.0001244129816768691,3.083284536842257e-05,5.38642198080197e-05,-2.0070956452400424e-05,7.782848115311936e-05
0.0001412598940078169,-0.0001234394876519218,3.69170265912544e-05,4.8880858230404556e-05,-1.0893581020354759e-05,9.895404946291819e-05
0.00012559905007947236,-0.00010693539661588147,4.4345953938318416e-05,3.3597039873711765e-05,-3.4179565773229115e-06,0.0001181291663669981
0.00011165406613145024,-8.580335997976363e-05,4.9479640438221395e-05,2.0256027710274793e-05,-3.712317266035825e-06,0.00012771635374519974
9.511236567050219e-05,-5.9233789215795696e-05,4.970445661456324e-05,1.0230975931335706e-05,-1.0310443030903116e-05,0.00012362383131403476
6.361983105307445e-05,-3.140167609672062e-05,4.381579492473975e-05,1.0179787750530522e-05,-1.515542680863291e-05,0.00011215503764105961
3.2545969588682055e-05,-1.6379633962060325e-05,3.509436282911338e-05,2.4431989004369825e-05,-1.4918376109562814e-05,9.465710900258273e-05
2.6269784939358942e-05,-1.5014336895546876e-05,2.8273530915612355e-05,4.0110029658535495e-05,-1.2068037904100493e-05,6.643584492849186e-05
3.630397986853495e-05,-1.3842216503689997e-05,2.5320943677797914e-05,3.680657027871348e-05,-6.911302534717834e-06,3.414725870243274e-05
2.3688584406045265e-05,-1.2478606549848337e-05,2.5602428650017828e-05,1.4897605069563724e-05,-4.094349606020842e-06,2.011105425481219e-05
-3.2456682674819604e-05,-2.1004298105253838e-05,3.0206314477254637e-05,-4.399174940772355e-06,-1.07318564914749e-05,2.7944648536504246e-05
-0.00010367197683081031,-3.6026915040565655e-05,3.056136847590096e-05,-8.581424481235445e-06,-1.9793598767137155e-05,3.672661478049122e-05
-0.00013966354890726507,-4.2250532715115696e-05,2.6486022761673667e-05,-7.003558948781574e-06,-1.915565189847257e-05,4.305443508201279e-05
-0.0001314976834692061,-3.549015673343092e-05,3.060605740756728e-05,1.0793364424444007e-07,-9.889668945106678e-06,5.648288788506761e-05
-0.0001197711389977485,-2.082460923702456e-05,4.594074562191963e-05,1.1985431228822563e-05,-3.2203533919528127e-06,6.830912752775475e-05
-0.00011075858492404222,-1.2049950782966334e-05,5.983861046843231e-05,1.4697263395646587e-05,-3.3260282634728355e-06,6.683872197754681e-05
-7.99244298832491e-05,-1.5853440345381387e-05,5.906949081690982e-05,1.358980171062285e-05,-1.5123521279747365e-06,5.991555008222349e-05
-3.111507248831913e-05,-2.0980083718313836e-05,4.922752850688994e-05,7.016209110588534e-06,5.709923129870731e-07,5.612172753899358e-05
1.6791564121376723e-05,-2.682099693629425e-05,4.068405905854888e-05,-4.797320343641331e-06,1.5218491853374871e-06,5.4628424550173804e-05
6.664440297754481e-05,-4.6579803893109784e-05,3.5365224903216586e-05,-1.0594290870358236e-05,7.690151164752024e-07,6.487170321634039e-05
0.00010858766472665593,-7.26619255146943e-05,3.252728492952883e-05,-1.5759813322802074e-05,-3.046277470275527e-06,8.972983778221533e-05
0.00012900165165774524,-9.112078259931877e-05,2.879446947190445e-05,-2.099030461977236e-05,-5.466329184855567e-06,0.00010715934331528842
0.00012980370956938714,-9.777937520993873e-05,2.271145422128029e-05,-2.67879859165987e-05,-5.755490747105796e-06,0.00011197423737030476
0.00011466064461274073,-9.121321636484936e-05,2.2320728021441028e-05,-2.796299486362841e-05,-2.011813421631814e-06,0.00011467942385934293
9.107422374654561e-05,-7.900861237430945e-05,3.174001903971657e-05,-1.9593864635680802e-05,1.7443353499402292e-06,0.00011773238657042384
4.949938738718629e-05,-6.54572359053418e-05,3.811943679465912e-05,-8.210865416913293e-06,2.164248371627764e-06,0.00011059342068620026
-1.2161607628513593e-05,-5.540458005270921e-05,3.049582301173359e-05,-5.343387670109223e-07,-2.893484861488105e-06,8.896741201169789e-05
-6.088513327995315e-05,-5.2323412091936916e-05,1.7894990378408693e-05,1.8077648746839259e-06,-1.0452727110532578e-05,6.225818651728332e-05
-6.604057125514373e-05,-5.106504249852151e-05,8.271399565273896e-06,5.165670245332876e-06,-1.767212052072864e-05,3.511302929837257e-05
-4.0798739064484835e-05,-4.511697989073582e-05,5.570767825702205e-06,1.3296297765919007e-05,-1.9617411453509703e-05,1.5562316548312083e-05
-4.417156105773756e-06,-3.8555524952244014e-05,1.606062323844526e-05,3.0692561267642304e-05,-1.675888961472083e-05,1.785166750778444e-05
4.186308797216043e-05,-3.552797352313064e-05,3.902365642716177e-05,5.620069714495912e-05,-1.2298295587243047e-05,4.304396497900598e-05
