1.6752546798670664e-05,-5.060664261691272e-05,3.1205203413264826e-05,3.895091140293516e-05,-1.3249183211883064e-05,6.235706678126007e-05
1.6467576642753556e-05,-4.3158062908332795e-05,2.612491516629234e-05,3.520172685966827e-05,-1.1847392670460977e-05,5.8157878811471164e-05
1.836905903473962e-05,-4.158683805144392e-05,2.6310466637369245e-05,3.353422653162852e-05,-1.0125211701961234e-05,6.059317820472643e-05
1.8934853869723156e-05,-4.3576190364547074e-05,2.6400792194181122e-05,2.97300866805017e-05,-8.527191312168725e-06,7.401260518236086e-05
2.2649866878055036e-05,-4.620979598257691e-05,2.285265327373054e-05,2.42677688220283e-05,-7.9398050729651e-06,0.00010088003909913823
2.5556761102052405e-05,-5.07740696775727e-05,1.808212255127728e-05,1.75369277712889e-05,-7.164086127886549e-06,0.0001249793276656419
2.3268388758879155e-05,-5.191664968151599e-05,1.4593908417737111e-05,1.8074719264404848e-05,-9.757362931850366e-06,0.00013614246563520283
1.947619421116542e-05,-5.204409535508603e-05,1.3304636922839563e-05,2.0229515939718112e-05,-1.5135920875763986e-05,0.00013102511002216488
1.7614143871469423e-05,-5.5675391195109114e-05,1.4696595826535486e-05,2.0738469174830243e-05,-1.7252777979592793e-05,0.00011915373033843935
1.7520287656225264e-05,-6.02332002017647e-05,1.8205653759650886e-05,2.3603412046213634e-05,-1.5093532965693157e-05,0.00010424938955111429
1.794456511561293e-05,-5.991228681523353e-05,2.019032217503991e-05,2.8428254154277965e-05,-1.3927527106716298e-05,8.549017366021872e-05
1.9723376681213267e-05,-5.617627903120592e-05,2.0818080884055234e-05,3.494459087960422e-05,-1.4290159924712498e-05,6.40308135189116e-05
2.142702396668028e-05,-5.128248449182138e-05,2.3548012904939242e-05,4.2862462578341365e-05,-1.4104901310929563e-05,3.491904499242082e-05
2.3372078430838883e-05,-4.643556894734502e-05,2.724319347180426e-05,5.626292113447562e-05,-1.5406676538987085e-05,-1.160647389042424e-05
2.5635468773543835e-05,-4.3279036617605016e-05,2.8921498596901074e-05,7.224323053378612e-05,-1.9227385564590804e-05,-5.260583930066787e-05
2.544964081607759e-05,-4.4756212446372956e-05,3.1208070140564814e-05,8.056881051743403e-05,-2.2539679775945842e-05,-4.330275987740606e-05
2.150831278413534e-05,-4.824863935937174e-05,3.390353231225163e-05,7.610725879203528e-05,-2.288709583808668e-05,1.5230642929964233e-05
1.7900689272210002e-05,-4.64921940874774e-05,3.422513691475615e-05,6.403802399290726e-05,-1.8596792870084755e-05,7.243370782816783e-05
1.852488458098378e-05,-4.0807859477354214e-05,3.518444282235578e-05,5.055613291915506e-05,-1.2282854186196346e-05,9.155953739536926e-05
2.326213871128857e-05,-3.672027014545165e-05,3.856460898532532e-05,3.8863719964865595e-05,-9.034206414071377e-06,7.9590936366003e-05
2.739538649620954e-05,-3.823289443971589e-05,3.9191694668261334e-05,3.088281300733797e-05,-6.258143002924044e-06,5.8114146668231115e-05
2.7065003450843506e-05,-4.173362685833126e-05,3.758869934245013e-05,2.689387656573672e-05,-4.495320808928227e-06,3.895673216902651e-05
2.488241261744406e-05,-4.465544407139532e-05,3.512916009640321e-05,2.7831225452246144e-05,-5.905742909817491e-06,2.2569440261577256e-05
2.5792496671783738e-05,-4.76626846648287e-05,3.454153920756653e-05,3.355379885761067e-05,-7.109476882760646e-06,1.302590681007132e-05
2.735649650276173e-05,-5.161170702194795e-05,3.8053862226661295e-05,4.0503589843865484e-05,-8.754133887123317e-06,4.083201019966509e-06
2.5191942768287845e-05,-5.66702765354421e-05,3.867472696583718e-05,4.448123581823893e-05,-1.2412651813065168e-05,-7.878904398239683e-06
2.204489464929793e-05,-6.178300827741623e-05,3.698538421303965e-05,3.886985723511316e-05,-1.4600934264308307e-05,-1.9751323634409346e-05
2.0481915271375328e-05,-6.294687773333862e-05,3.458061837591231e-05,2.392492206126917e-05,-1.430439169780584e-05,-3.028361425094772e-05
2.102484359056689e-05,-5.959477857686579e-05,3.0358645744854584e-05,1.2154582691437099e-05,-1.4257931070460472e-05,-2.0401466827024706e-05
2.2029138563084416e-05,-5.372735904529691e-05,2.829825461958535e-05,1.1446098142187111e-05,-1.1065048965974711e-05,2.235254032711964e-05
2.091222813760396e-05,-4.873645229963586e-05,3.0023667932255194e-05,1.6585710909566842e-05,-4.747371349367313e-06,7.570778689114377e-05
1.8828750398824923e-05,-4.642895873985253e-05,3.318074232083745e-05,1.838481693994254e-05,-1.7430746765967342e-06,0.00011493730562506244
1.8913891835836694e-05,-4.6387551265070215e-05,3.543161801644601e-05,1.015203361021122e-05,-5.832895567436935e-06,0.00013703493459615856
1.9201879695174284e-05,-4.832974082091823e-05,3.5070173908025026e-05,3.0927942589187296e-06,-1.1911190995306242e-05,0.00015074665134306997
1.6736014003981836e-05,-4.971547969034873e-05,3.403067239560187e-05,6.2559247453464195e-06,-1.5404562873300165e-05,0.00015228186384774745
1.368112407362787e-05,-5.021586184739135e-05,3.275712879258208e-05,8.153930139087606e-06,-1.61243569891667e-05,0.00014136300887912512
1.2757843251165468e-05,-4.961133163305931e-05,2.63932397501776e-05,-3.1600711736246012e-06,-1.4942681445972994e-05,0.00011597280536079779
1.293973491556244e-05,-5.039229290559888e-05,1.939679350471124e-05,-1.971433994185645e-05,-1.3340266377781518e-05,9.129522368311882e-05
1.292451997869648e-05,-5.368868005461991e-05,1.801485450414475e-05,-2.2378144421963952e-05,-1.1891137546626851e-05,8.46368056954816e-05
1.4348715012602042e-05,-5.263041748548858e-05,1.9900808183592744e-05,-5.5133787100203335e-06,-9.324885468231514e-06,9.079192386707291e-05
1.7167007172247395e-05,-4.493697269936092e-05,1.9683393475133926e-05,2.2386357159120962e-05,-8.400009392062202e-06,8.940185216488317e-05
1.720119507808704e-05,-3.7192992749623954e-05,1.58576021931367e-05,4.949327922076918e-05,-1.2103454537282232e-05,6.979927275096998e-05
1.2821482414437924e-05,-3.3068034099414945e-05,1.3674712135980371e-05,7.396716682706028e-05,-1.6860090909176506e-05,4.79525224363897e-05
9.580669939168729e-06,-2.993521593452897e-05,1.5625661035301164e-05,8.86569541762583e-05,-1.7482569091953337e-05,4.4464442908065394e-05
1.4586980796593707e-05,-3.022743658220861e-05,1.8821619960363023e-05,8.421816164627671e-05,-1.1410010301915463e-05,5.8804154832614586e-05
2.349353235331364e-05,-3.65424930350855e-05,2.0511020920821466e-05,6.912575190654024e-05,-5.3345211199484766e-06,7.417649612762034e-05
2.7365626010578126e-05,-4.684607119997963e-05,2.1527141143451445e-05,6.02709551458247e-05,-4.648148660635343e-06,8.55258695082739e-05
2.524326009734068e-05,-5.978614717605524e-05,2.3966385924723e-05,6.137099262559786e-05,-9.079113624466117e-06,9.363140270579606e-05
2.1376004951889627e-05,-7.545347034465522e-05,2.659043821040541e-05,6.369963375618681e-05,-1.3837945516570471e-05,9.464936738368124e-05
2.0851333829341456e-05,-9.106293873628601e-05,2.79310297628399e-05,5.845605846843682e-05,-1.1038616321457084e-05,8.185467595467344e-05
2.0785841115866788e-05,-9.716239583212882e-05,3.2381027267547324e-05,4.935215110890567e-05,-3.852426743833348e-06,5.5545908253407106e-05
2.102128928527236e-05,-8.573703235015273e-05,3.88503831345588e-05,4.091452865395695e-05,-3.3394787806173554e-06,2.1299210857250728e-05
2.2654048734693788e-05,-6.151005800347775e-05,3.912337706424296e-05,3.188276241417043e-05,-1.0430114343762398e-05,-1.1433668305471656e-06
2.3921456886455417e-05,-4.297397754271515e-05,3.598287730710581e-05,2.660442260093987e-05,-1.4430421288125217e-05,-4.005848495580722e-06
2.5234114218619652e-05,-3.912867759936489e-05,3.700904926517978e-05,2.9886099582654424e-05,-1.0670906704035588e-05,-1.9491544662741944e-06
2.2927466488908976e-05,-4.3832762457896024e-05,3.499358717817813e-05,3.858220225083642e-05,-9.063523975783028e-06,3.6243781664779817e-07
2.3540802430943586e-05,-5.071863051853143e-05,3.132006895611994e-05,3.961856782552786e-05,-9.922246135829482e-06,1.1859373444167431e-05
2.7394085918786004e-05,-5.5337135563604534e-05,3.2885029213503e-05,3.0256893296609633e-05,-9.856793440121692e-06,3.235308395233005e-05
2.8340660719550215e-05,-5.765575042460114e-05,3.6492201616056263e-05,1.955501465999987e-05,-7.968702448124532e-06,6.229630525922403e-05
2.813372339005582e-05,-5.9079517086502165e-05,3.9995709812501445e-05,1.2012210390821565e-05,-6.054651294107316e-06,9.053546818904579e-05
2.730969208641909e-05,-5.8335957874078304e-05,3.7920752220088616e-05,4.461747721506981e-06,-6.4005048443505075e-06,0.00010971840674756095
2.7025815143133514e-05,-5.484758730744943e-05,3.336821828270331e-05,-5.978491117275553e-06,-7.810846000211313e-06,0.00010802716133184731
2.7001909984392114e-05,-4.8797835916047916e-05,3.164994268445298e-05,-1.201805571326986e-05,-5.231118393567158e-06,8.484828867949545e-05
2.5145249310298823e-05,-4.502313822740689e-05,3.2909058063523844e-05,-9.753882295626681e-06,-6.135813350738317e-07,5.820821752422489e-05
2.206351564382203e-05,-4.5124856114853173e-05,3.3616346627241e-05,-4.200406237941934e-06,-1.4525866163239698e-06,3.565275983419269e-05
2.122984551533591e-05,-4.490795618039556e-05,3.1792664231033996e-05,3.81787276637624e-06,-5.372577561502112e-06,1.2827508726331871e-05
2.2364178221323527e-05,-4.3730869947467e-05,3.1857998692430556e-05,1.346617045783205e-05,-8.45389240566874e-06,-1.0067214134323876e-05
2.5376803023391403e-05,-4.066725887241773e-05,3.559500692063011e-05,2.405114719294943e-05,-8.392777090193704e-06,-1.7114522051997483e-05
2.7412999770604074e-05,-3.5960652894573286e-05,3.97008698200807e-05,3.992464189650491e-05,-6.68740631226683e-06,-9.421416507393587e-06
2.7634610887616873e-05,-3.160713822580874e-05,4.0745500882621855e-05,5.841220263391733e-05,-3.613564103943645e-06,-5.980845344311092e-06
2.7547030185814947e-05,-3.0347524443641305e-05,3.8728048821212724e-05,6.866586772957817e-05,-9.834521961238352e-07,-1.9283112123957835e-05
2.8999216738156974e-05,-3.213613308616914e-05,3.6222390917828307e-05,6.33029339951463e-05,-1.3396740996540757e-06,-3.551398913259618e-05
2.9378841645666398e-05,-3.518259836710058e-05,3.616006870288402e-05,5.1233379053883255e-05,-6.49494768367731e-06,-3.621890573413111e-05
2.4052355001913384e-05,-3.834249218925834e-05,3.6994922993471846e-05,4.675773379858583e-05,-1.3224912436271552e-05,-2.6787833121488802e-05
1.7361144273309037e-05,-3.997087696916424e-05,3.7702884583268315e-05,4.813380292034708e-05,-1.660484485910274e-05,-2.864294765458908e-05
1.6103826055768877e-05,-4.0117873140843585e-05,3.7980709748808295e-05,4.3277635995764285e-05,-1.625976619834546e-05,-3.521216058288701e-05
1.7666470739641227e-05,-3.928202568204142e-05,3.259969889768399e-05,2.877882434404455e-05,-1.6770767615525983e-05,-1.0780894626805093e-05
1.585700192663353e-05,-3.926857971237041e-05,2.5229493985534646e-05,1.8200993508799e-05,-1.871667518571485e-05,5.4547053878195584e-05
1.4291040315583814e-05,-4.157370130997151e-05,2.4419447072432376e-05,1.698203595879022e-05,-1.695630453468766e-05,0.00012787138985004276
1.6520245480933227e-05,-4.394493589643389e-05,3.0251087082433514e-05,1.6618902009213343e-05,-1.1929755601158831e-05,0.00017664233746472746
1.7019041479215957e-05,-4.400176112540066e-05,3.7033139960840344e-05,1.6610714737907983e-05,-9.405952368979342e-06,0.00018931960221379995
1.1985345736320596e-05,-4.366922803455964e-05,4.062519292347133e-05,2.066992783511523e-05,-1.6577854694332927e-05,0.00017665613268036395
7.3401847657805774e-06,-4.3892265239264816e-05,4.15030553995166e-05,2.597582533780951e-05,-2.4620670956210233e-05,0.00016374205006286502
7.486306913051521e-06,-4.190876643406227e-05,3.9780643419362605e-05,2.7853617211803794e-05,-2.5584009563317522e-05,0.00015268631977960467
9.664799108577427e-06,-4.249749326845631e-05,3.9069956983439624e-05,2.6748679374577478e-05,-2.521662099752575e-05,0.0001332466781605035
1.1618015378189739e-05,-4.547378557617776e-05,3.647207631729543e-05,2.7209851396037266e-05,-2.1718164134654216e-05,0.00011426211858633906
1.5700585208833218e-05,-4.4772325054509565e-05,3.554688737494871e-05,2.764638338703662e-05,-1.570557287777774e-05,9.650676656747237e-05
2.0967252567061223e-05,-4.3598156480584294e-05,3.752216434804723e-05,3.077923247474246e-05,-1.030420207825955e-05,7.150206511141732e-05
2.3458236682927236e-05,-4.303295645513572e-05,3.549381290213205e-05,3.6788223951589316e-05,-1.2430068636604119e-05,4.416662341100164e-05
2.3803408112144098e-05,-4.343342880019918e-05,3.2518226362299174e-05,3.7791585782542825e-05,-1.6792177120805718e-05,2.773643791442737e-05
2.4439728804281913e-05,-4.3213902245042846e-05,3.3628137316554785e-05,3.6245561204850674e-05,-1.610765866644215e-05,1.3173897968954407e-05
2.6653422537492588e-05,-4.481019641389139e-05,3.5043343814322725e-05,3.323308555991389e-05,-1.479745151300449e-05,-5.554668405238772e-06
2.9979668397572823e-05,-4.874556907452643e-05,3.289599408162758e-05,2.9070895834593102e-05,-1.6063242583186366e-05,-3.872467459586915e-06
3.233113602618687e-05,-5.043339842814021e-05,3.1001956813270226e-05,2.276202940265648e-05,-1.6634825442451984e-05,3.602265496738255e-05
3.5196702810935676e-05,-4.7847614041529596e-05,3.0285738830571063e-05,1.2660688298637979e-05,-1.111755318561336e-05,9.086640056921169e-05
3.768641545320861e-05,-4.779644950758666e-05,2.867281909857411e-05,1.6638423403492197e-06,-3.770248213186278e-06,0.00013442766794469208
3.542113699950278e-05,-5.2848728955723345e-05,2.3835505999159068e-05,-9.373582543048542e-06,-1.1632006362560787e-06,0.00015885141328908503
2.9019622161285952e-05,-5.7513174397172406e-05,1.941560913110152e-05,-1.602713564352598e-05,-6.19031334281317e-06,0.00016710287309251726
2.3562219212180935e-05,-5.7336397730978206e-05,1.9918972611776553e-05,-1.1823763088614214e-05,-1.22623114293674e-05,0.00017472139734309167
2.253978709632065e-05,-5.188294380786829e-05,2.86684535240056e-05,4.99093766848091e-06,-1.244496615981916e-05,0.0002043502900050953
2.758464506769087e-05,-4.506307595875114e-05,3.751687108888291e-05,2.4603177735116333e-05,-2.239492232547491e-06,0.0002510154736228287
3.408661359571852e-05,-4.06760154874064e-05,3.861489312839694e-05,3.209484930266626e-05,8.92718799150316e-06,0.00026529913884587586
3.612255022744648e-05,-4.028262264910154e-05,3.5980719985673204e-05,2.9508042644010857e-05,1.1785234164563008e-05,0.00021207198733463883
3.721566827152856e-05,-4.2710078560048714e-05,3.5457866033539176e-05,3.564954022294842e-05,9.350425898446701e-06,9.969928214559332e-05
4.085820182808675e-05,-4.5495784434024245e-05,3.7423895264510065e-05,4.7261593863368034e-05,8.477393748762552e-06,-3.164767622365616e-05
4.028637340525165e-05,-4.633426942746155e-05,3.878991265082732e-05,5.2064377086935565e-05,5.976796273898799e-06,-0.00014145516615826637
3.3387364965165034e-05,-4.822006303584203e-05,3.580929842428304e-05,5.203921682550572e-05,-2.696929186640773e-06,-0.00020271859830245376
2.7489240892464295e-05,-5.187502029002644e-05,3.071288301725872e-05,5.640064046019688e-05,-8.289845936815254e-06,-0.00019749220518860966
2.5501671188976616e-05,-5.508512185770087e-05,3.213063973817043e-05,6.973725248826668e-05,-8.193425856006797e-06,-0.00013936968753114343
2.0545297957141884e-05,-5.420333764050156e-05,3.320516043459065e-05,7.591790927108377e-05,-6.0050156207580585e-06,-9.282460086978972e-05
1.6124591638799757e-05,-5.3947431297274306e-05,3.0503257221425883e-05,7.377843576250598e-05,-5.540404345083516e-06,-6.83304388076067e-05
1.6597516150795855e-05,-5.6178527302108705e-05,2.990262146340683e-05,7.244813605211675e-05,-6.356467565638013e-06,-4.124580300413072e-05
1.5807936506462283e-05,-5.837002754560672e-05,3.087635923293419e-05,7.013537833699957e-05,-9.016870535560884e-06,-1.5264296962413937e-05
1.5371066183433868e-05,-5.877772855455987e-05,3.271230889367871e-05,6.161520286696032e-05,-1.3224314898252487e-05,3.4171202969446313e-06
1.5688050552853383e-05,-5.424816845334135e-05,3.5768978705164045e-05,5.058582974015735e-05,-1.3886121450923383e-05,1.3889912224840373e-05
1.7727265003486536e-05,-4.951716982759535e-05,3.730157550307922e-05,3.841094803647138e-05,-1.1599263416428585e-05,2.7617750674835406e-05
1.8093518519890495e-05,-5.144024908076972e-05,3.2301268220180646e-05,1.8220145648228936e-05,-1.0671226846170612e-05,4.727962732431479e-05
1.5806310329935513e-05,-5.446712748380378e-05,2.3966331355040893e-05,-8.156922604030115e-08,-1.5234982129186392e-05,6.682671664748341e-05
1.0779700460261665e-05,-5.411846359493211e-05,1.8963457478093915e-05,-2.878119403249002e-06,-2.18748737097485e-05,7.395109423669055e-05
7.07235903973924e-06,-5.283282735035755e-05,1.9311151845613495e-05,1.0109308277606033e-05,-2.471136031090282e-05,7.324453326873481e-05
1.1132570762129035e-05,-5.335545210982673e-05,2.517651955713518e-05,2.3188469640444964e-05,-2.1926331100985408e-05,7.388752419501543e-05
1.9729730411199853e-05,-5.40559267392382e-05,3.0456951208179817e-05,2.4074208340607584e-05,-1.585117388458457e-05,7.627351442351937e-05
2.609996954561211e-05,-5.416542262537405e-05,2.95737281703623e-05,1.7537502571940422e-05,-9.458977729082108e-06,7.619973621331155e-05
2.7287014745525084e-05,-5.4280022595776245e-05,2.583535751909949e-05,1.4490609828499146e-05,-5.944115855527343e-06,7.078336057020351e-05
2.6967787562170997e-05,-5.4374464525608346e-05,2.2504986191052012e-05,1.625243567104917e-05,-5.464296464197105e-06,6.683385436190292e-05
2.7403317290009e-05,-5.5368833272950724e-05,2.1168554667383432e-05,1.8248349078930914e-05,-5.378472451411653e-06,6.922144530108199e-05
2.811593185469974e-05,-5.54354592168238e-05,2.3889426302048378e-05,1.700088796496857e-05,-7.4186445999657735e-06,8.086819434538484e-05
2.9015678592259064e-05,-5.4043190175434574e-05,2.8185551855131052e-05,1.2366879673209041e-05,-1.0672183634596877e-05,9.943709301296622e-05
2.907162343035452e-05,-5.341878568287939e-05,3.0058597985771485e-05,7.933911547297612e-06,-9.765090908331331e-06,0.00011700255709001794
2.769761522358749e-05,-5.39026441401802e-05,3.0467708711512387e-05,8.371574040211271e-06,-6.590749762835912e-06,0.0001277328556170687
2.7544812837732024e-05,-5.2762130508199334e-05,3.067243960686028e-05,1.3947736988484394e-05,-7.241385901579633e-06,0.00013376233982853591
2.8553669835673645e-05,-5.101759597891942e-05,3.045093581022229e-05,1.7051983377314173e-05,-9.233180207957048e-06,0.0001427764946129173
2.8206570277689025e-05,-4.939594873576425e-05,2.795376713038422e-05,1.6304156815749593e-05,-1.0846502846106887e-05,0.00015356711810454726
2.547708027123008e-05,-4.679937774199061e-05,2.2184523913892917e-05,1.1061650184274185e-05,-1.002363751467783e-05,0.00014513269707094878
2.366434819123242e-05,-4.342589090811089e-05,2.057223355222959e-05,2.052174977507093e-06,-6.060135547159007e-06,0.00011404389806557447
2.595085788925644e-05,-4.320110019762069e-05,2.6760981199913658e-05,-1.849491582106566e-06,3.392170810911921e-07,7.762019959045574e-05
2.9481052479241043e-05,-4.698882548836991e-05,3.5365887015359476e-05,5.93265895076911e-06,3.7834590784768807e-06,5.923432036070153e-05
3.0028162655071355e-05,-5.100862108520232e-05,3.855501563521102e-05,1.6525011233170517e-05,-1.982809152423215e-07,5.785687972093001e-05
2.749711347860284e-05,-5.292701462167315e-05,3.285923958173953e-05,2.449002022331115e-05,-2.6306136078346753e-06,4.998047006665729e-05
2.391500493104104e-05,-5.475180660141632e-05,2.697698255360592e-05,3.525148713379167e-05,-4.7455032472498715e-06,2.8768381525878794e-05
2.4738767024246044e-05,-5.811373921460472e-05,2.3437745767296292e-05,4.457255272427574e-05,-1.0757776180980727e-05,1.274126702810463e-06
2.5038512831088156e-05,-6.21710714767687e-05,2.0254808987374417e-05,4.169069143244997e-05,-1.7289567040279508e-05,-9.813999895413872e-06
2.2815094780526124e-05,-6.353158096317202e-05,1.971904384845402e-05,3.0450069971266203e-05,-2.1465357349370606e-05,1.2134369171690196e-05
1.955024345079437e-05,-6.199286144692451e-05,1.774283555278089e-05,2.455246249155607e-05,-2.205660530307796e-05,4.90782294946257e-05
1.8754379198071547e-05,-5.7555644161766395e-05,1.80885963345645e-05,2.6756148145068437e-05,-2.204268821515143e-05,6.485147605417296e-05
2.4530138034606352e-05,-5.079703623778187e-05,2.3053071345202625e-05,3.354336877237074e-05,-2.0846491679549217e-05,5.9471825807122514e-05
3.215708056814037e-05,-4.210991392028518e-05,2.9300173991941847e-05,3.9181548345368356e-05,-1.589933344803285e-05,5.476002115756273e-05
3.453930185060017e-05,-3.596202077460475e-05,3.33954012603499e-05,4.322061795392074e-05,-8.123989573505241e-06,5.8871602959698066e-05
3.0174867788446136e-05,-3.769899922190234e-05,3.512785769999027e-05,4.756481939693913e-05,-6.355910045385826e-06,6.592886347789317e-05
2.4427450625807978e-05,-4.5329750719247386e-05,3.72039430658333e-05,4.933851596433669e-05,-1.1843317224702332e-05,7.356007699854672e-05
2.0101560949115083e-05,-4.992972390027717e-05,3.8467107515316457e-05,4.3882158934138715e-05,-1.5734340195194818e-05,7.941263174870983e-05
1.821115438360721e-05,-4.776092464453541e-05,3.7812988011864945e-05,3.361960261827335e-05,-1.3137330824974924e-05,8.18839471321553e-05
1.793359115254134e-05,-4.393262497615069e-05,3.930885941372253e-05,2.672927439562045e-05,-9.800323823583312e-06,7.938285125419497e-05
2.0066088836756535e-05,-4.329784860601649e-05,4.508472920861095e-05,2.7828429665532894e-05,-9.306018910137936e-06,7.41647818358615e-05
2.317493999726139e-05,-4.7094497858779505e-05,4.860828994424082e-05,3.421255314606242e-05,-7.646664016647264e-06,7.107814599294215e-05
2.6593286747811362e-05,-4.9151578423334286e-05,4.8516820243094116e-05,3.848786582238972e-05,-5.323968707671156e-06,7.122908573364839e-05
2.96447760774754e-05,-4.83392650494352e-05,4.7366844228236005e-05,3.894613837474026e-05,-5.782982498203637e-06,6.826403114246204e-05
3.104808274656534e-05,-4.850282130064443e-05,4.628304304787889e-05,3.565760198398493e-05,-6.616994141950272e-06,5.56542472622823e-05
2.9759397875750437e-05,-5.158963176654652e-05,4.742368764709681e-05,2.9644639653270133e-05,-3.930465481971623e-06,4.5905202568974346e-05
2.8068503524991684e-05,-5.5391035857610404e-05,5.1462757255649194e-05,2.1089492292958312e-05,-1.5523293086516787e-06,5.07584773004055e-05
2.561695691838395e-05,-5.742851135437377e-05,4.963140963809565e-05,1.3141286217432935e-05,-2.7525559289642842e-06,5.960003181826323e-05
1.980551860469859e-05,-5.862460602656938e-05,4.068735506734811e-05,1.3045180821791291e-05,-6.99987367624999e-06,6.269582809181884e-05
9.954970664693974e-06,-5.943190262769349e-05,3.500827369862236e-05,2.1223266230663285e-05,-1.1154193998663686e-05,7.064010424073786e-05
4.430453373061027e-06,-5.8020003052661195e-05,3.732030381797813e-05,3.0409122700802982e-05,-1.357501150778262e-05,8.385373075725511e-05
8.468848136544693e-06,-5.7303223002236336e-05,4.0468661609338596e-05,3.450807344052009e-05,-1.2770264220307581e-05,8.736462768865749e-05
1.4412014024856035e-05,-5.623294782708399e-05,3.851300789392553e-05,2.8342543373582885e-05,-9.93038065644214e-06,6.982911872910336e-05
1.8588836610433646e-05,-5.132970181875862e-05,3.406569885555655e-05,1.5786037693032995e-05,-6.097591722209472e-06,5.135522587806918e-05
1.962323767656926e-05,-4.6931669203331694e-05,3.194999590050429e-05,1.3185997886466794e-05,-5.4826618907100055e-06,5.1008941227337345e-05
1.644275471335277e-05,-4.48206155851949e-05,3.3584317861823365e-05,2.0838251657551154e-05,-9.674700777395628e-06,5.9075115132145584e-05
1.2377963685139548e-05,-4.2332419980084524e-05,3.6413006455404684e-05,2.7551182938623242e-05,-1.2017356311844196e-05,5.918295937590301e-05
1.263237663806649e-05,-3.997647945652716e-05,3.8542264519492164e-05,2.51958190347068e-05,-9.783828318177257e-06,5.442402834887616e-05
1.6032761777751148e-05,-3.965381984016858e-05,3.716869105119258e-05,1.4509737411572132e-05,-5.2033674364793114e-06,5.7330944400746375e-05
1.9076860553468578e-05,-4.0702067053643987e-05,3.440751970629208e-05,4.914224518870469e-06,-9.86286863735586e-07,7.382865442195907e-05
2.0377377950353548e-05,-4.299561624065973e-05,3.255051342421211e-05,2.662242877704557e-06,7.447982852681889e-07,8.991245704237372e-05
1.8013486624113284e-05,-4.724598693428561e-05,3.187004040228203e-05,7.265366093633929e-06,-3.876829396176618e-06,8.807908307062462e-05
1.4309176549431868e-05,-4.9553920689504594e-05,3.310470128781162e-05,1.0603312148305122e-05,-1.016738769976655e-05,7.931003347039223e-05
1.1463624105090275e-05,-4.806894503417425e-05,3.3984830224653706e-05,8.586589501646813e-06,-1.2677865015575662e-05,7.474356243619695e-05
8.04874889581697e-06,-4.744165198644623e-05,3.0486206014757045e-05,8.825167242321186e-06,-1.450860781915253e-05,6.95266280672513e-05
4.829888894164469e-06,-4.931502917315811e-05,2.3879276341176592e-05,1.4213167560228612e-05,-1.760851409926545e-05,6.16815741523169e-05
7.025361355772475e-06,-4.918331978842616e-05,2.0651939848903567e-05,1.7335467418888584e-05,-1.7349550034850836e-05,6.0295980802038684e-05
1.5336836440837942e-05,-4.440345583134331e-05,2.4543072868254967e-05,1.772564064594917e-05,-9.895775292534381e-06,6.887558993184939e-05
2.4700779249542393e-05,-3.840759745799005e-05,3.326878504594788e-05,2.2397131033358164e-05,-1.0223986919299932e-06,7.650087354704738e-05
2.9373606594162993e-05,-3.423498128540814e-05,4.103226092411205e-05,3.582497811294161e-05,1.5833938959985971e-06,7.077980262693018e-05
2.6591929781716317e-05,-3.306183498352766e-05,4.3434054532554e-05,5.252071423456073e-05,-2.2593972062168177e-06,5.4648389777867123e-05
2.0584009689628147e-05,-3.344251308590174e-05,4.070760405738838e-05,6.529450911330059e-05,-7.438344255206175e-06,4.098427598364651e-05
2.026330548687838e-05,-3.535845462465659e-05,3.785441003856249e-05,7.594368071295321e-05,-9.615045200916938e-06,4.691770300269127e-05
2.653207593539264e-05,-3.67806751455646e-05,3.6686364182969555e-05,8.834610343910754e-05,-8.555513886676636e-06,6.394179945345968e-05
3.014785579580348e-05,-3.6586694477591664e-05,3.67919092241209e-05,0.00010007659147959203,-9.071387466974556e-06,6.298707012319937e-05
2.7146110369358212e-05,-3.8768477679695934e-05,3.641729199443944e-05,9.500888700131327e-05,-1.1552659998415038e-05,4.138588337809779e-05
1.9100678400718607e-05,-4.512745363172144e-05,3.1237865186994895e-05,6.2036000599619e-05,-1.3926443898526486e-05,1.7956492229131982e-05
1.736371632432565e-05,-5.2242317906348035e-05,2.332714393560309e-05,2.131922337866854e-05,-1.6182726540137082e-05,5.763654826296261e-06
1.6319752830895595e-05,-5.658839290845208e-05,1.5163574971666094e-05,-1.6573092580074444e-05,-1.4461292266787495e-05,3.7696056551794754e-06
1.2577103916555643e-05,-5.926685480517335e-05,8.11460085969884e-06,-4.612388147506863e-05,-1.0054501217382494e-05,3.983851456723642e-06
1.4080361324886326e-05,-5.9343907196307555e-05,9.327081897936296e-06,-4.6524688514182344e-05,-7.1175127231981605e-06,-2.0883830984530505e-06
1.866073944256641e-05,-5.782520383945666e-05,1.9721795979421586e-05,-2.295998638146557e-05,-2.92617778541171e-06,-2.002884866669774e-05
2.4023782316362485e-05,-5.754897210863419e-05,2.8202683097333647e-05,-1.9831431927741505e-06,-3.602523861445661e-07,-3.6670051485998556e-05
2.4708511773496866e-05,-5.9129088185727596e-05,3.0036888347240165e-05,5.292976766213542e-06,-7.075502708175918e-07,-2.9653534511453472e-05
2.1260308130877092e-05,-5.853422044310719e-05,2.764200144156348e-05,6.664450665994082e-06,-2.6137556687899632e-06,-2.9614211598527618e-06
1.7969170585274696e-05,-5.8250032452633604e-05,2.2557307602255605e-05,6.444191967602819e-06,-7.650640327483416e-06,1.7125163140008226e-05
2.0270997993065976e-05,-6.008666969137266e-05,2.15645668504294e-05,9.343143574369606e-06,-1.2507696737884544e-05,2.6646233891369775e-05
2.4582457626820542e-05,-5.99108352616895e-05,2.4588249289081432e-05,1.8437780454405583e-05,-1.273669386137044e-05,4.2484778532525524e-05
2.5403378458577208e-05,-5.5194130254676566e-05,2.779769965854939e-05,3.408140764804557e-05,-9.937979484675452e-06,6.585552910109982e-05
2.4624165234854445e-05,-5.0629743782337755e-05,2.952205431938637e-05,5.062297350377776e-05,-9.310980203736108e-06,8.150075154844671e-05
2.7636719096335582e-05,-5.07841759826988e-05,2.874388883356005e-05,6.319219392025843e-05,-1.0783426660054829e-05,8.262503979494795e-05
3.1291954655898735e-05,-5.335265086614527e-05,2.675478026503697e-05,6.928340008016676e-05,-1.0286322321917396e-05,8.015803177841008e-05
3.0763210816076025e-05,-5.548667468247004e-05,2.6280667952960357e-05,6.979791942285374e-05,-8.800004252407234e-06,8.30085773486644e-05
2.8641468816203997e-05,-5.669619349646382e-05,2.7712412702385336e-05,6.996057345531881e-05,-1.1231617463636212e-05,8.978677942650393e-05
2.6825771783478558e-05,-5.709335528081283e-05,2.8892914997413754e-05,7.228530739666894e-05,-1.571225766383577e-05,0.00010830239625647664
2.5238650778192095e-05,-5.6978351494763047e-05,2.9509847081499174e-05,7.483764784410596e-05,-1.6017589587136172e-05,0.00014320325863081962
2.2152675228426233e-05,-5.822659295517951e-05,3.1217550713336095e-05,7.39015158615075e-05,-1.1907678526767995e-05,0.00017287097580265254
1.7340638805762865e-05,-5.9007114032283425e-05,3.554179784259759e-05,6.885083712404594e-05,-9.758738997334149e-06,0.0001666508469497785
1.2486635569075588e-05,-6.071091047488153e-05,3.745081994566135e-05,5.8984147472074255e-05,-1.2934818187204655e-05,0.00012505480844993144
1.1451072168711107e-05,-6.249392026802525e-05,3.318261951790191e-05,4.923214510199614e-05,-1.8163846107199788e-05,8.944368164520711e-05
1.238532058778219e-05,-6.153056165203452e-05,2.8771932193194516e-05,4.394137431518175e-05,-2.2061609342927113e-05,7.964688120409846e-05
1.2521115422714502e-05,-5.6787153880577534e-05,2.7655680241878144e-05,3.968898090533912e-05,-2.1092233509989455e-05,8.503081335220486e-05
1.326595611317316e-05,-5.200900704949163e-05,2.7419546313467436e-05,3.3618856832617894e-05,-1.4339981134980917e-05,9.044919715961441e-05
1.3569448128691874e-05,-5.1145401812391356e-05,2.7616009901976213e-05,3.1759267585584894e-05,-1.0972190466418397e-05,8.84675100678578e-05
1.0817348083946854e-05,-5.209589653532021e-05,3.077396468142979e-05,3.117158485110849e-05,-1.5869676644797437e-05,7.872394053265452e-05
1.2297421562834643e-05,-5.06311007484328e-05,3.4989017876796424e-05,3.014892354258336e-05,-1.9476232409942895e-05,5.97874095547013e-05
1.7138288967544213e-05,-4.691985668614507e-05,3.5207573091611266e-05,3.720341555890627e-05,-1.4681566426588688e-05,3.977928645326756e-05
1.710158358037006e-05,-4.299968350096606e-05,3.3559561416041106e-05,4.223910582368262e-05,-8.13128372101346e-06,3.4953540307469666e-05
1.5957084542606026e-05,-4.457609247765504e-05,3.152566569042392e-05,3.067993020522408e-05,-6.73796148475958e-06,6.0111884522484615e-05
1.849467480496969e-05,-4.90873608214315e-05,3.259488585172221e-05,1.7510730685899034e-05,-1.037080892274389e-05,0.00010233816283289343
2.3854310711612925e-05,-4.804788113688119e-05,3.419665517867543e-05,1.866987076937221e-05,-8.913264537113719e-06,0.00013373039837460965
2.9223761885077693e-05,-4.199985778541304e-05,3.474350887699984e-05,2.697654053918086e-05,-5.0569929044286255e-06,0.00014084592112340033
3.056433706660755e-05,-3.64494881068822e-05,3.4395328839309514e-05,3.355296212248504e-05,-6.289487828325946e-06,0.00013609604502562433
2.757517358986661e-05,-3.599737829063088e-05,3.417384868953377e-05,4.507366247707978e-05,-8.219375558837783e-06,0.00013091173605062068
2.4497780032106675e-05,-3.903987817466259e-05,3.6042612919118255e-05,5.7434182963334024e-05,-8.141598300426267e-06,0.00011413098400225863
2.264408249175176e-05,-4.316504782764241e-05,3.592658322304487e-05,5.332182263373397e-05,-8.536137102055363e-06,7.907068356871605e-05
2.23291262955172e-05,-4.8984547902364284e-05,3.015965012309607e-05,3.24904867738951e-05,-1.3781889720121399e-05,4.029212868772447e-05
2.1783671400044113e-05,-5.266291191219352e-05,2.1337027646950446e-05,8.112043360597454e-06,-2.126483741449192e-05,-5.080218912212331e-08
1.9317929400131106e-05,-5.1199927838752046e-05,1.805028114176821e-05,-5.041467375122011e-06,-2.5202540200552903e-05,-4.726282350020483e-05
1.6745949324104004e-05,-4.806515426025726e-05,2.1494166503543966e-05,-1.6956621493591229e-06,-1.826607513066847e-05,-8.107015310088173e-05
1.6389030861319043e-05,-4.856074883718975e-05,2.5572422600816935e-05,1.1648452527879272e-05,-7.5254506555211265e-06,-8.896068902686238e-05
1.631365557841491e-05,-5.446011709864251e-05,2.5717055905261077e-05,2.7280268113827333e-05,-3.881317752529867e-06,-7.975291373440996e-05
1.7635673430049792e-05,-5.914689972996712e-05,2.4613409550511278e-05,3.951379767386243e-05,-3.3565597732376773e-06,-5.235147909843363e-05
2.425711318210233e-05,-5.74567420699168e-05,2.7585041607380845e-05,4.404500577948056e-05,6.22000413841306e-07,-1.6951248653640505e-06
2.9759883545921184e-05,-5.43019559700042e-05,3.435404505580664e-05,3.887389539158903e-05,6.239706067390216e-07,4.632848140317947e-05
2.8371374355629086e-05,-5.566400068346411e-05,3.7118752516107634e-05,2.7716045224224217e-05,-7.120550435502082e-06,6.815479719080031e-05
2.5877632651827298e-05,-5.937449532211758e-05,3.297497096355073e-05,2.0193730961182155e-05,-1.4073292732064147e-05,7.987072604009882e-05
2.6144807634409517e-05,-5.923482240177691e-05,2.7270962164038792e-05,1.9688286556629464e-05,-1.3713372027268633e-05,0.00010828347149072215
2.8986796678509563e-05,-5.391825834522024e-05,2.631049937917851e-05,1.9416469513089396e-05,-6.841796675871592e-06,0.00015177714521996677
3.1575247703585774e-05,-4.7295841795857996e-05,3.263385224272497e-05,2.1089874280733056e-05,-6.152476572651722e-08,0.00019411409448366612
3.297691000625491e-05,-3.865865073748864e-05,4.4120493839727715e-05,3.793339783442207e-05,4.126151452510385e-06,0.00021076005941722542
3.3449257898610085e-05,-3.233897587051615e-05,5.015078204451129e-05,5.4665724746882915e-05,6.2197768784244545e-06,0.00018088067008648068
2.9600938432849944e-05,-3.253031900385395e-05,4.527380588115193e-05,5.684325151378289e-05,2.7227379177929834e-06,0.0001411499542882666
2.2694312065141276e-05,-4.104753679712303e-05,3.492922041914426e-05,4.584862836054526e-05,-6.267250682867598e-06,0.00011187347263330594
1.6047626559156924e-05,-4.994383198209107e-05,2.920726728916634e-05,2.9720687962253578e-05,-1.1191285921086092e-05,5.9360645536798984e-05
1.4148651644063648e-05,-5.208711445447989e-05,2.7674890588968992e-05,1.2596044143720064e-05,-7.940941941342317e-06,-2.3627912014489993e-05
1.731430893414654e-05,-5.3088951972313225e-05,2.6130364858545363e-05,-1.0146814020117745e-05,-3.134043481622939e-06,-0.00011589880159590393
2.1779573216917925e-05,-5.3401516197482124e-05,2.569651769590564e-05,-2.9845168683095835e-05,-3.940391707146773e-06,-0.00017993398068938404
2.403129474259913e-05,-5.254289862932637e-05,2.8068167011952028e-05,-4.0596394683234394e-05,-8.823391908663325e-06,-0.00018658941553439945
2.603720349725336e-05,-5.2190516726113856e-05,3.4339747799094766e-05,-3.905965786543675e-05,-9.299867997469846e-06,-0.0001417055755155161
2.982065052492544e-05,-5.186311682336964e-05,4.019234984298237e-05,-2.7259022317593917e-05,-4.965152129443595e-06,-7.963170355651528e-05
3.259385994169861e-05,-5.029029125580564e-05,4.1708404751261696e-05,-8.457266631012317e-06,-4.795871518581407e-06,-2.4749771910137497e-05
3.292325709480792e-05,-4.967736822436564e-05,3.764319626498036e-05,9.721113201521803e-06,-8.281540431198664e-06,2.7474408852867782e-05
3.195054887328297e-05,-5.090927515993826e-05,3.285073398728855e-05,2.277436215081252e-05,-9.68311451288173e-06,8.622783934697509e-05
3.0280987630249e-05,-5.215897544985637e-05,3.163087967550382e-05,2.360586768190842e-05,-7.483140507247299e-06,0.00012766956933774054
2.7472826332086697e-05,-5.135711035109125e-05,3.320509858895093e-05,9.523227163299453e-06,-7.024283604550874e-06,0.0001225337473442778
2.4102642782963812e-05,-4.868930409429595e-05,3.4202501410618424e-05,-9.858624707703711e-07,-1.1053555681428406e-05,7.876981544541195e-05
2.2385413103620522e-05,-4.576488572638482e-05,3.632008520071395e-05,1.1689732673403341e-05,-1.4345365343615413e-05,2.9235638066893443e-05
2.397181378910318e-05,-4.324646943132393e-05,3.677990025607869e-05,4.105134212295525e-05,-1.2722934116027318e-05,3.989793640357675e-06
2.539899833209347e-05,-4.2666033550631255e-05,3.453186945989728e-05,6.626300455536693e-05,-1.211418020830024e-05,5.11352163812262e-06
2.4558117729611695e-05,-4.5492317440221086e-05,3.511396425892599e-05,7.859282777644694e-05,-1.5593113857903518e-05,1.6890515325940214e-05
2.2145924958749674e-05,-4.8844431148609146e-05,3.890530933858827e-05,7.875099254306406e-05,-1.66676654771436e-05,3.3089061616919935e-05
2.1083387764520012e-05,-4.7490433644270524e-05,3.7031251849839464e-05,7.461439236067235e-05,-1.5205948329821695e-05,6.423942977562547e-05
2.0860741642536595e-05,-4.54052715213038e-05,2.8945025405846536e-05,6.128070526756346e-05,-1.8037524569081143e-05,0.00011279507452854887
1.8162947526434436e-05,-5.036060974816792e-05,2.3786777092027478e-05,4.0581631765235215e-05,-2.135044996975921e-05,0.0001653039362281561
1.3395070709520951e-05,-5.677209628629498e-05,2.1258012566249818e-05,3.09937349811662e-05,-1.892555519589223e-05,0.00018978053412865847
1.5023270862002391e-05,-5.638723814627156e-05,2.0745508663821965e-05,3.579246549634263e-05,-1.3386676982918289e-05,0.00017149082850664854
2.3303087800741196e-05,-5.119099296280183e-05,2.3166217943071388e-05,4.8457604862051085e-05,-9.925498488883022e-06,0.00012378086103126407
2.678398959687911e-05,-4.8053014324977994e-05,2.7929960197070614e-05,5.626484562526457e-05,-1.101827911043074e-05,6.991598638705909e-05
2.919283724622801e-05,-4.5932887587696314e-05,3.205265966244042e-05,5.4399934015236795e-05,-7.376219400612172e-06,2.6639963834895752e-05
3.508900408633053e-05,-4.1427367250435054e-05,3.2956402719719335e-05,4.983811595593579e-05,-1.2779648841387825e-06,2.3809291178622516e-06
3.580591510399245e-05,-3.775542427320033e-05,3.0855313525535166e-05,3.8010155549272895e-05,1.0186773806708516e-06,-4.570965757011436e-07
3.258914512116462e-05,-3.7474394048331305e-05,3.0296758268377744e-05,2.2974410967435688e-05,1.8418759282212704e-06,1.1297557648504153e-05
3.0569044611183926e-05,-4.237394023220986e-05,3.159189873258583e-05,1.8042290321318433e-05,1.8108304402630893e-06,2.6715009880717844e-05
2.718963150982745e-05,-4.838618770008907e-05,3.163944711559452e-05,2.4799981474643573e-05,-5.801717506415116e-08,3.578734686016105e-05
2.2709458789904602e-05,-5.2686100389109924e-05,3.0557788704754785e-05,2.7281079383101314e-05,-3.548697577571147e-06,5.906966543989256e-05
1.9735554815270007e-05,-5.565515675698407e-05,2.9413939046207815e-05,1.6851709006004967e-05,-7.980953341757413e-06,0.00010486055543879047
2.0618317648768425e-05,-5.693309140042402e-05,2.707754356379155e-05,2.9274635835463414e-06,-1.4157796613289975e-05,0.00014151117647998035
2.288102768943645e-05,-5.247339868219569e-05,2.6073106710100546e-05,-4.49486060460913e-06,-1.940869515237864e-05,0.00014801794895902276
2.3184577003121376e-05,-4.404709761729464e-05,3.17836384056136e-05,-1.0244743862131145e-06,-1.890303428808693e-05,0.00012690549192484468
2.2354573957272805e-05,-4.240941416355781e-05,3.682799433590844e-05,3.4220954603370046e-06,-1.420609260094352e-05,9.690392471384257e-05
2.158828647225164e-05,-4.798004010808654e-05,3.454053512541577e-05,-2.129655968019506e-06,-1.0761626981548034e-05,7.784517219988629e-05
2.0215567928971723e-05,-5.380712900660001e-05,2.9476632334990427e-05,-1.0050736818811856e-05,-9.726106327434536e-06,7.220626866910607e-05
1.9254708604421467e-05,-5.708841126761399e-05,2.8467189622460864e-05,-8.049433745327406e-06,-9.159564797300845e-06,7.424821524182335e-05
2.14813589991536e-05,-5.6212651543319225e-05,3.150242264382541e-05,3.5434738947515143e-06,-7.044350240903441e-06,8.111813804134727e-05
2.7858230168931186e-05,-5.092454011901282e-05,3.406807445571758e-05,1.4336593267216813e-05,-3.470378260317375e-06,8.928914030548185e-05
3.319718598504551e-05,-4.756769703817554e-05,3.2997821108438075e-05,1.9088010958512314e-05,6.85136569700262e-07,9.29148736759089e-05
3.0106044505373575e-05,-4.835111030843109e-05,3.15733122988604e-05,2.2067821191740222e-05,2.9058846848784015e-06,9.179920016322285e-05
2.1800020476803184e-05,-5.033667548559606e-05,3.2683845347492024e-05,2.7318001230014488e-05,5.974744681225275e-07,9.530523675493896e-05
1.646526470722165e-05,-5.218269507167861e-05,3.5603534342953935e-05,3.696585918078199e-05,-5.9056119425804354e-06,0.00010621338151395321
1.5780944522703066e-05,-5.335351306712255e-05,3.624188684625551e-05,5.094266452942975e-05,-1.2926338058605324e-05,0.00012137745216023177
1.6014717402867973e-05,-5.1916096708737314e-05,3.391219797777012e-05,5.631179374177009e-05,-1.54139688675059e-05,0.00014176029071677476
1.5183586583589204e-05,-5.356982001103461e-05,3.396015745238401e-05,4.845650619245134e-05,-1.6786792912171222e-05,0.0001593991182744503
1.4416507838177495e-05,-5.569740824284963e-05,3.479843871900812e-05,4.044211164000444e-05,-2.1457739421748556e-05,0.00017697966541163623
1.502462419011863e-05,-5.398825669544749e-05,3.701544846990146e-05,4.4123684347141534e-05,-2.0984396542189643e-05,0.00019234867068007588
1.4070412362343632e-05,-4.9664347898215055e-05,4.079468999407254e-05,5.185698682907969e-05,-1.39633348226198e-05,0.00017474862397648394
1.2223748854012229e-05,-4.432463538250886e-05,4.368700319901109e-05,4.557027932605706e-05,-8.901745786715765e-06,0.00013453440624289215
1.0557722816884052e-05,-4.222373172524385e-05,4.147822255617939e-05,3.1973180739441887e-05,-7.53748736315174e-06,0.00011638149589998648
1.1839239050459582e-05,-4.40868352598045e-05,3.4875847632065415e-05,1.969110053323675e-05,-8.592319318267982e-06,0.0001158110098913312
1.5474288375116885e-05,-5.1416387577774e-05,2.965461135318037e-05,1.155556947196601e-05,-1.1553956937859766e-05,9.22346516745165e-05
1.8056916815112345e-05,-5.626061829389073e-05,2.5316061510238796e-05,1.179278660856653e-05,-1.5222581168927718e-05,3.063205076614395e-05
2.1925920009380206e-05,-5.533853254746646e-05,2.4045066311373375e-05,2.5562963855918497e-05,-1.872523353085853e-05,-4.8586120101390406e-05
2.4399254471063614e-05,-5.26264775544405e-05,2.4311553715961054e-05,4.953774987370707e-05,-1.9661394617287442e-05,-0.00011293827992631122
2.3320722903008573e-05,-5.286366285872646e-05,2.1915704564889893e-05,7.275842654053122e-05,-1.9213246559957042e-05,-0.0001448883122066036
1.7693058907752857e-05,-5.320924537954852e-05,2.1046304027549922e-05,8.618782158009708e-05,-1.9000473912456073e-05,-0.00014592314255423844
1.2502697245508898e-05,-5.197727296035737e-05,2.4867924366844818e-05,8.975286618806422e-05,-1.772943141986616e-05,-0.00012779033568222076
1.2666494512814097e-05,-5.073650027043186e-05,3.055807974305935e-05,8.507776510668918e-05,-1.7278109226026572e-05,-9.417493856744841e-05
1.5659858036087826e-05,-5.2688312280224636e-05,3.071589526371099e-05,7.202169945230708e-05,-1.778156183718238e-05,-3.7795976822962984e-05
1.5268455172190443e-05,-5.741243148804642e-05,2.7765634513343684e-05,5.715282168239355e-05,-1.7526695955893956e-05,2.4900755306589417e-05
1.1477632142486982e-05,-5.952443461865187e-05,2.7534488253877498e-05,4.643993452191353e-05,-1.5843645087443292e-05,5.891485125175677e-05
9.74815156951081e-06,-5.812564995721914e-05,2.9595788873848505e-05,4.2621326429070905e-05,-1.1513307072164025e-05,6.137169839348644e-05
1.3362348909140565e-05,-5.3087536798557267e-05,3.100663889199495e-05,4.30694708484225e-05,-5.5099062592489645e-06,6.464902253355831e-05
1.9226785298087634e-05,-4.621523476089351e-05,3.2459396607009694e-05,4.5981982111698017e-05,-1.1160607300553238e-06,8.362060179933906e-05
2.304697409272194e-05,-4.024016743642278e-05,3.4634773328434676e-05,4.732697561848909e-05,7.195425837380753e-07,0.00010507391561986879
2.4520253646187484e-05,-3.878037750837393e-05,3.642227966338396e-05,4.1590061300667e-05,-2.4984012725326465e-07,0.00011708442616509274
2.2358102796715684e-05,-3.932543404516764e-05,3.810890484601259e-05,3.0339453587657772e-05,-5.743268957303371e-06,0.00011585901665966958
2.0815450625377707e-05,-4.0334980440093204e-05,3.610677958931774e-05,2.2642334442934953e-05,-1.2549337043310516e-05,0.00010406509682070464
2.3093822164810263e-05,-4.205861841910519e-05,3.144570655422285e-05,1.6620020687696524e-05,-1.4807596016908064e-05,8.991853246698156e-05
2.653338378877379e-05,-4.243959847372025e-05,2.700291406654287e-05,9.45181727729505e-06,-1.2717171557596885e-05,6.726828723913059e-05
2.8794707759516314e-05,-4.208323662169278e-05,2.790393409668468e-05,6.086261237214785e-06,-9.787638191482984e-06,3.479500446701422e-05
2.92516215267824e-05,-4.934349999530241e-05,3.499014565022662e-05,9.748096090334002e-06,-8.441297723038588e-06,1.3255098565423395e-06
2.9449540306814015e-05,-5.753283767262474e-05,3.925829514628276e-05,2.360054713790305e-05,-5.1937786338385195e-06,-2.8303638828219846e-05
2.8793374440283515e-05,-5.432433681562543e-05,4.0667830035090446e-05,3.3151020033983514e-05,-1.7916021306518815e-06,-3.433203528402373e-05
2.5691160772112198e-05,-4.8213241825578734e-05,4.140912278671749e-05,3.03615270240698e-05,-6.476472663052846e-06,-1.6244865037151612e-05
2.345746361243073e-05,-4.73654581583105e-05,3.912066313205287e-05,2.510606645955704e-05,-1.5735242413938977e-05,9.806112757360097e-06
2.460168434481602e-05,-4.832809645449743e-05,3.4797667467501014e-05,2.147838858945761e-05,-1.809007881092839e-05,2.9789924155920744e-05
2.5369647119077854e-05,-5.063889329903759e-05,3.5372682759771124e-05,1.867419450718444e-05,-1.3982327800476924e-05,3.041454874619376e-05
2.4123526600305922e-05,-5.461578257381916e-05,4.175573121756315e-05,1.7120530173997395e-05,-1.1522200111357961e-05,2.7056990802520886e-05
2.3881530069047585e-05,-5.879616946913302e-05,4.560649176710285e-05,2.175985173380468e-05,-1.1286143489996903e-05,3.772942000068724e-05
2.3799466362106614e-05,-6.0564460000023246e-05,4.2731870053103194e-05,2.9431888833642006e-05,-1.26456170619349e-05,6.093196861911565e-05
2.232764927612152e-05,-5.900006362935528e-05,3.3638469176366925e-05,3.870198270305991e-05,-1.4458259101957083e-05,7.805224595358595e-05
2.2129182980279438e-05,-5.424493792816065e-05,2.6060139134642668e-05,4.421838457346894e-05,-1.3834226592734922e-05,7.872884452808648e-05
2.7033926016883925e-05,-5.0742139137582853e-05,2.2553069356945343e-05,3.946020297007635e-05,-1.1177093256264925e-05,7.440725312335417e-05
3.055247725569643e-05,-5.219371450948529e-05,2.1732132154284045e-05,2.1071011360618286e-05,-9.731477803143207e-06,7.754772377666086e-05
2.5625435227993876e-05,-5.398477878770791e-05,1.9626348148449324e-05,-4.03344665755867e-06,-1.3015297554375138e-05,8.653946133563295e-05
1.6927040633163415e-05,-5.4107396863400936e-05,1.7409316569683142e-05,-1.8681606889003888e-05,-1.76229041244369e-05,9.236820187652484e-05
1.3620791833091062e-05,-5.016206705477089e-05,1.7810030840337276e-05,-1.3876923731004354e-05,-1.6321449948009104e-05,9.005892934510484e-05
1.661645364947617e-05,-3.8442303775809705e-05,2.113622394972481e-05,2.1560106233664555e-06,-1.1589886526053306e-05,8.452737529296428e-05
2.2313006411422975e-05,-2.464504723320715e-05,2.4949484213721007e-05,1.3510365533875301e-05,-8.882871043169871e-06,8.37861662148498e-05
2.5451245164731517e-05,-1.8457069018040784e-05,2.588222014310304e-05,1.9278233594377525e-05,-8.488096682413016e-06,8.772806904744357e-05
2.3501528630731627e-05,-1.9745721147046424e-05,2.5430554160266183e-05,2.5339570129290223e-05,-9.393379514222033e-06,9.084580233320594e-05
2.2478354367194697e-05,-2.450505235174205e-05,2.631614188430831e-05,3.262050813646056e-05,-1.1173456186952535e-05,9.085387137020007e-05
2.5700586775201373e-05,-3.0515599064528942e-05,2.9218879717518575e-05,3.9084465242922306e-05,-1.0226696758763865e-05,8.734822040423751e-05
3.084669151576236e-05,-3.586212915251963e-05,3.238399949623272e-05,4.343641921877861e-05,-5.912878805247601e-06,7.284953608177602e-05
3.374471634742804e-05,-4.144198101130314e-05,3.2487041607964784e-05,3.687738353619352e-05,-5.259563749859808e-06,4.7875422751531005e-05
3.100349931628443e-05,-5.567093103309162e-05,2.6010551664512604e-05,2.0407795091159642e-05,-8.43135694594821e-06,3.8867274270160124e-05
2.4680193746462464e-05,-8.022143447306007e-05,2.1242529328446835e-05,1.5604130112478742e-06,-1.0738916898844764e-05,7.342040771618485e-05
2.093078728648834e-05,-0.00010081980872200802,2.199539630964864e-05,-1.4746797205589246e-05,-1.230200632562628e-05,0.00014440565428230911
2.0134171791141853e-05,-9.789261821424589e-05,2.373671486566309e-05,-1.7232587197213434e-05,-1.711879849608522e-05,0.00021415144146885723
1.9322875232319348e-05,-7.208321039797738e-05,2.7781718017649837e-05,-1.0534969987929799e-05,-2.0848245185334235e-05,0.00022719975095242262
1.741399319143966e-05,-4.3582705984590575e-05,3.671595550258644e-05,-9.636543836677447e-06,-1.8288033970748074e-05,0.00019190050079487264
1.4979964362282772e-05,-3.1722651328891516e-05,4.473916123970412e-05,-1.3169856174499728e-05,-9.67261894402327e-06,0.00014883220137562603
1.4267060578276869e-05,-3.944846321246587e-05,4.571847966872156e-05,-1.7332888091914356e-05,2.4667048137416714e-07,0.00010967494017677382
1.5980829630279914e-05,-5.1695162255782634e-05,4.3204632675042376e-05,-1.4477601325779688e-05,2.614584445836954e-06,6.032903183950111e-05
1.692467776592821e-05,-5.61211199965328e-05,4.19737261836417e-05,-2.0020602278236765e-06,-1.633615511309472e-06,-1.665433774178382e-05
1.777521538315341e-05,-5.39222928637173e-05,4.368117151898332e-05,1.5371653717011213e-05,-3.5932121136283968e-06,-8.887484000297263e-05
1.8371534679317847e-05,-5.039903408032842e-05,4.865710070589557e-05,3.066192948608659e-05,5.056446070739185e-07,-0.00012107741349609569
1.844101097958628e-05,-4.662398714572191e-05,5.074133150628768e-05,4.623474887921475e-05,3.885664682456991e-06,-0.00011246588110225275
1.9207311197533272e-05,-4.402075137477368e-05,4.7751796955708414e-05,7.06604914739728e-05,2.7533269530977122e-06,-8.604013419244438e-05
1.9137802155455574e-05,-4.467525286599994e-05,4.1491501178825274e-05,9.559022873872891e-05,-3.723135705513414e-06,-5.8632369473343715e-05
1.7321068298770115e-05,-4.825368887395598e-05,3.709998418344185e-05,0.00011193635145900771,-9.494076948612928e-06,-4.0139213524525985e-05
1.761122257448733e-05,-4.934403841616586e-05,3.881353768520057e-05,0.00011719630856532604,-1.1394936336728279e-05,-2.0925413991790265e-05
2.179539114877116e-05,-4.520679067354649e-05,4.217700188746676e-05,0.00010962212400045246,-1.1033724149456248e-05,7.304103291971842e-06
2.472361666150391e-05,-4.233565414324403e-05,4.038562474306673e-05,8.843952673487365e-05,-1.0630898941599298e-05,3.619635754148476e-05
2.3208251150208525e-05,-4.542410169960931e-05,3.588102481444366e-05,6.048874638509005e-05,-1.1804676432802808e-05,5.566165054915473e-05
2.1175887013669126e-05,-5.1350689318496734e-05,3.519328674883582e-05,3.903007382177748e-05,-1.1814908248197753e-05,6.395269883796573e-05
2.084125480905641e-05,-5.6783614127198234e-05,3.520932295941748e-05,2.7957697966485284e-05,-9.195179700327571e-06,6.605189992114902e-05
2.012792174355127e-05,-6.151534034870565e-05,2.7728176064556465e-05,1.6897916793823242e-05,-8.078754035523161e-06,6.140495679574087e-05
1.9844601411023177e-05,-6.422074511647224e-05,1.6321608200087212e-05,6.6302941377216484e-06,-9.593583854439203e-06,4.5396998757496476e-05
2.0335673980298452e-05,-6.333016790449619e-05,1.0574039151833858e-05,3.53526888829947e-06,-9.356836017104797e-06,1.7824148017098196e-05
2.085165397147648e-05,-6.0917052906006575e-05,1.0898423170146998e-05,4.064399490744108e-06,-1.1010200978489593e-05,5.9153885558771435e-06
1.9407229046919383e-05,-6.0882128309458494e-05,1.4646308045485057e-05,1.0029231816588435e-05,-1.4986250789661426e-05,4.9477213906357065e-05
1.4990589988883585e-05,-6.245579425012693e-05,1.849862383096479e-05,2.183190554205794e-05,-1.6864558347151615e-05,0.00013456349552143365
1.0491091416042764e-05,-6.045885675121099e-05,2.3922613763716072e-05,3.0194782084436156e-05,-1.6072359358076937e-05,0.00019679847173392773
7.842975719540846e-06,-5.57211933482904e-05,3.248887514928356e-05,3.428430500207469e-05,-1.2091626558685675e-05,0.00020787252287846059
9.049173968378454e-06,-4.9363592552253976e-05,3.8752539694542065e-05,3.913199179805815e-05,-7.10796575731365e-06,0.0001739609579090029
1.2464209248719271e-05,-4.698946577263996e-05,3.6612575058825314e-05,4.112704118597321e-05,-5.333801254892023e-06,0.00013983352982904762
1.6337291526724584e-05,-4.7135050408542156e-05,3.358428875799291e-05,3.9167902286862954e-05,-3.8010232401575195e-06,0.00013109238352626562
1.771945971995592e-05,-4.274845196050592e-05,3.3213411370525137e-05,3.8636855606455356e-05,-4.199969225737732e-06,0.0001295786933042109
1.622164563741535e-05,-4.106644701096229e-05,3.0511939257849008e-05,3.837521580862813e-05,-6.396192475222051e-06,0.0001183928397949785
1.97224180737976e-05,-4.265826282789931e-05,2.907219823100604e-05,3.6587520298780873e-05,-1.0474086593603715e-05,9.15222626645118e-05
2.5012579499161802e-05,-4.4973621697863564e-05,3.09012430079747e-05,3.243974788347259e-05,-1.2648625670408364e-05,6.70447334414348e-05
2.9162973078200594e-05,-4.445052400114946e-05,3.524705607560463e-05,2.939458681794349e-05,-7.08724610376521e-06,6.12060830462724e-05
3.2106127036968246e-05,-4.164379424764775e-05,3.8681075238855556e-05,2.9551856641774066e-05,-1.0632004432409303e-06,6.517168367281556e-05
3.153665238642134e-05,-3.9690316043561324e-05,3.7308836908778176e-05,2.6217578124487773e-05,-2.809470970532857e-06,6.167332321638241e-05
2.8322352591203526e-05,-3.975689833168872e-05,3.2027022825786844e-05,1.6256490198429674e-05,-9.498136023466941e-06,5.434818012872711e-05
2.782969386316836e-05,-4.210095721646212e-05,2.914903416240122e-05,1.0253478649246972e-05,-1.0614580787660088e-05,5.346274338080548e-05
3.3754877222236246e-05,-4.3555388401728123e-05,3.165209272992797e-05,1.4203696082404349e-05,-2.6761867957247887e-06,6.452971138060093e-05
4.035744132124819e-05,-4.4636890379479155e-05,3.6294495657784864e-05,2.4155400751624256e-05,3.7279683056112844e-06,8.058432285906747e-05
4.04316779167857e-05,-4.5668271923204884e-05,3.8807465898571536e-05,3.712619582074694e-05,2.3589598185935756e-06,9.458418207941577e-05
3.516840297379531e-05,-4.662362698582001e-05,3.6561435990734026e-05,4.2680818296503276e-05,-1.4206749483491876e-06,0.00010295367974322289
3.1171017326414585e-05,-4.717789852293208e-05,3.1038420274853706e-05,3.460725201875903e-05,-3.5832472349284217e-06,0.00010393279808340594
2.9655904654646292e-05,-4.9073722038883716e-05,2.5570130674168468e-05,2.1627211026498117e-05,-5.944005351921078e-06,9.766132279764861e-05
2.767664955172222e-05,-5.315568341757171e-05,2.3699505618424155e-05,1.574821726535447e-05,-7.640842341061216e-06,8.767685358179733e-05
2.5618575818953104e-05,-5.648640944855288e-05,2.5377583369845524e-05,1.540821722301189e-05,-8.78306855156552e-06,7.608723535668105e-05
2.709055297600571e-05,-5.5354958021780476e-05,2.6954976419801824e-05,1.583900120749604e-05,-1.0147204193344805e-05,5.7399018260184675e-05
2.9771661502309144e-05,-5.1974948291899636e-05,2.5143106540781446e-05,1.729650466586463e-05,-1.1446760254330002e-05,3.5555724025471136e-05
2.943697472801432e-05,-4.8816025810083374e-05,2.4558743461966515e-05,1.8294645997229964e-05,-1.3968745406600647e-05,2.8839491278631613e-05
2.625061279104557e-05,-4.577889558277093e-05,2.883462184399832e-05,1.5880223145359196e-05,-1.3517887055058964e-05,4.054377131978981e-05
2.2264088329393417e-05,-4.678874392993748e-05,3.237715645809658e-05,1.46732108987635e-05,-1.093217360903509e-05,5.003991464036517e-05
1.7932055925484747e-05,-5.1693135901587084e-05,3.618984192144126e-05,2.1081654267618433e-05,-7.398861271212809e-06,3.815988384303637e-05
1.4555350389855448e-05,-5.170667645870708e-05,3.942291368730366e-05,3.0870600312482566e-05,-3.944938725908287e-06,-3.1194972507364582e-06
1.5191579223028384e-05,-4.8766491090646014e-05,3.801218554144725e-05,4.5638949814019725e-05,-1.753831952555629e-06,-4.288538184482604e-05
2.008006958931219e-05,-4.6667737478856e-05,3.8688041968271136e-05,6.36969052720815e-05,5.976319812361908e-07,-4.311809243517928e-05
2.5491068299743347e-05,-4.744903708342463e-05,3.753140481421724e-05,7.055975584080443e-05,1.520671503385529e-06,-2.2241705664782785e-05
2.867842158593703e-05,-5.0906066462630406e-05,2.992046211147681e-05,5.790038630948402e-05,-8.706654170964612e-07,-7.711285434197634e-06
3.0051698558963835e-05,-5.162490197108127e-05,2.452523222018499e-05,3.649689824669622e-05,-3.409302280488191e-06,1.9932936083932873e-06
3.4181972296210006e-05,-4.983644976164214e-05,2.856084938684944e-05,2.04608168132836e-05,-2.749546183622442e-06,2.4454695449094288e-05
4.036002792418003e-05,-4.947898560203612e-05,3.458056744420901e-05,1.0315691724827047e-05,-3.108597638856736e-06,6.783587014069781e-05
4.242211434757337e-05,-5.1312861614860594e-05,3.416695471969433e-05,1.1659594747470692e-06,-7.117527275113389e-06,0.00010028174438048154
4.101726881344803e-05,-5.220597086008638e-05,3.212738374713808e-05,-9.028033673530445e-06,-1.1598425771808252e-05,9.72730849753134e-05
3.754143472178839e-05,-5.282267011352815e-05,3.2899635698413476e-05,-7.2912193900265265e-06,-1.5536319551756606e-05,6.860834400868043e-05
3.460346852079965e-05,-5.044537829235196e-05,3.651582665042952e-05,1.2366436749289278e-05,-1.5450024875462987e-05,4.8341018555220217e-05
3.118153108516708e-05,-4.6945038775447756e-05,4.0008042560657486e-05,4.050846473546699e-05,-1.4963090507080778e-05,4.718423224403523e-05
2.5453999114688486e-05,-4.6104683860903606e-05,4.097823693882674e-05,6.107103399699554e-05,-1.5429457562277094e-05,4.6445842599496245e-05
2.081146158161573e-05,-4.92371509608347e-05,4.0906441427068785e-05,6.788728933315724e-05,-1.6056892491178587e-05,3.315755384392105e-05
2.0555122318910435e-05,-5.33911406819243e-05,4.074512980878353e-05,6.504457996925339e-05,-1.7031807146850042e-05,1.0976498742820695e-05
2.2391817765310407e-05,-5.5604465160286054e-05,3.830313653452322e-05,5.4469808674184605e-05,-1.7473390471423045e-05,-7.2847710725909565e-06
2.247232259833254e-05,-5.5270036682486534e-05,3.4398941352264956e-05,4.14052301493939e-05,-1.744249493640382e-05,-9.370355655846652e-06
2.1650972485076636e-05,-5.3657713579013944e-05,3.278569784015417e-05,3.3313961466774344e-05,-1.7464828488300554e-05,9.881484402285423e-06
2.152218257833738e-05,-5.3354156989371404e-05,3.460828520474024e-05,3.153271973133087e-05,-1.7167429177789018e-05,4.0847662603482604e-05
2.2428017473430373e-05,-5.2366358431754634e-05,3.44120453519281e-05,3.174213270540349e-05,-1.5988889572327025e-05,6.786194717278704e-05
2.239511741208844e-05,-4.931146031594835e-05,3.074574487982318e-05,3.217394987586886e-05,-1.3714254237129353e-05,8.130128844641149e-05
2.1254645616863854e-05,-4.84507399960421e-05,2.6746714866021648e-05,3.3159536542370915e-05,-1.0671474228729494e-05,8.305958181153983e-05
1.835587499954272e-05,-5.093534127809107e-05,2.385033258178737e-05,3.724447378772311e-05,-9.20865022635553e-06,8.123846055241302e-05
1.4471736903942656e-05,-5.07685290358495e-05,2.3036911443341523e-05,4.2171341192442924e-05,-8.67201106302673e-06,7.976112101459876e-05
1.3181587746657897e-05,-4.622965570888482e-05,2.227853656222578e-05,4.596947837853804e-05,-9.48342767514987e-06,6.888564530527219e-05
1.4293661479314324e-05,-4.36373520642519e-05,1.9346245608176105e-05,4.402710692374967e-05,-9.86450777418213e-06,5.0791360990842804e-05
1.4241766621125862e-05,-4.9570993724046275e-05,1.77071888174396e-05,3.488626316539012e-05,-1.2743443221552297e-05,3.907178688677959e-05
1.0822223885043059e-05,-5.6475968449376523e-05,1.9872644770657644e-05,2.30240748351207e-05,-1.3676425623998512e-05,4.5998534915270284e-05
8.946022717282176e-06,-5.446651630336419e-05,2.2583562895306386e-05,1.975488521566149e-05,-1.072987106454093e-05,6.395714444806799e-05
1.2402197171468288e-05,-4.494025051826611e-05,2.612661410239525e-05,2.639265039761085e-05,-9.975722605304327e-06,7.41978146834299e-05
1.465943660150515e-05,-4.0639024518895894e-05,2.9474784241756424e-05,2.871455035347026e-05,-8.134225026878994e-06,6.764707359252498e-05
1.1011747119482607e-05,-4.431975685292855e-05,2.719808617257513e-05,2.2402928152587265e-05,-7.782889042573515e-06,4.9712947657098994e-05
7.287485459528398e-06,-4.875630111200735e-05,2.2356291083269753e-05,1.3474767911247909e-05,-1.109374534280505e-05,3.25261898979079e-05
9.682426025392488e-06,-4.932937736157328e-05,2.2166886992636137e-05,1.077364413504256e-05,-9.465936273045372e-06,2.6146115487790667e-05
1.3216214028943796e-05,-4.438398900674656e-05,2.62058965745382e-05,1.7285861758864485e-05,-7.787037247908302e-06,3.224650208721869e-05
1.2453960152924992e-05,-4.0546045056544244e-05,2.939015394076705e-05,2.4813234631437808e-05,-1.0270471648254897e-05,4.6447617933154106e-05
9.217357728630304e-06,-4.210394763504155e-05,3.0601120670326054e-05,2.608298927953001e-05,-1.3342482816369738e-05,6.304473936324939e-05
8.213566616177559e-06,-4.6645185648230836e-05,3.144650690956041e-05,2.0923269403283484e-05,-1.3578470316133462e-05,8.143820014083758e-05
1.185779274237575e-05,-4.8679299652576447e-05,3.291766552138142e-05,1.5477058695978485e-05,-1.0797202776302584e-05,0.00010028660472016782
1.7189500795211643e-05,-4.7551027819281444e-05,3.5206674510845914e-05,1.7634727555559948e-05,-8.774962225288618e-06,0.000113251808215864
2.099789708154276e-05,-4.5883974962634966e-05,3.717498839250766e-05,2.7170477551408112e-05,-8.653974873595871e-06,0.00011623850878095254
2.3027325369184837e-05,-4.6144450607243925e-05,3.835253301076591e-05,3.38483732775785e-05,-7.991725397005212e-06,0.00010761457087937742
2.3957636585691944e-05,-4.833163620787673e-05,3.815470336121507e-05,2.9997099773027003e-05,-5.74829027755186e-06,9.111059625865892e-05
2.311142088728957e-05,-5.043234705226496e-05,3.699830995174125e-05,1.963547219929751e-05,-5.79352081331308e-06,7.448704855050892e-05
2.0838429918512702e-05,-5.1046579756075516e-05,3.697003921843134e-05,1.154230358224595e-05,-7.573089078505291e-06,6.476137787103653e-05
1.9958986740675755e-05,-4.943646490573883e-05,3.653681415016763e-05,1.1813768651336432e-05,-7.66090761317173e-06,5.988461634842679e-05
2.0899487935821526e-05,-4.706981417257339e-05,3.2819705666042864e-05,1.6093135855044238e-05,-7.822315637895372e-06,5.4400647059082985e-05
2.1899772036704235e-05,-4.669535337598063e-05,2.6610328859533183e-05,1.768114816513844e-05,-1.0404316526546609e-05,4.340789746493101e-05
2.15634900087025e-05,-4.7638677642680705e-05,2.289006624778267e-05,1.6754152966313995e-05,-1.096361484087538e-05,2.8194053811603226e-05
2.126946856151335e-05,-4.8837380745681e-05,2.3612326913280413e-05,1.5478413843084127e-05,-1.046564557327656e-05,1.9296274331281893e-05
2.2525815438712016e-05,-5.054803114035167e-05,2.6817122488864698e-05,1.6950452845776454e-05,-1.2473456990846898e-05,3.6289267882239074e-05
2.3138345568440855e-05,-4.972488386556506e-05,3.3223281207028776e-05,2.2910633560968563e-05,-1.4669944903289434e-05,8.226763020502403e-05
2.3288632291951217e-05,-4.611722397385165e-05,3.8455036701634526e-05,3.060969174839556e-05,-1.4016854038345627e-05,0.00013205266441218555
2.4618142560939305e-05,-4.619905666913837e-05,3.9044949517119676e-05,3.2361498597310856e-05,-1.136267019319348e-05,0.0001595776848262176
2.4167164156096987e-05,-5.107017932459712e-05,3.626979378168471e-05,2.7765388949774206e-05,-1.1123785043309908e-05,0.00016840218449942768
2.1898504201089963e-05,-5.2722753025591373e-05,3.396259489818476e-05,2.8699259928544052e-05,-1.2762822734657675e-05,0.00016426203364972025
2.182084608648438e-05,-5.2368744945852086e-05,3.366401870152913e-05,3.915100751328282e-05,-1.1909502973139752e-05,0.00013815292913932353
1.8764467313303612e-05,-5.3674873925046995e-05,3.3516254916321486e-05,4.578494917950593e-05,-1.2192585927550681e-05,8.245997742051259e-05
1.3736515938944649e-05,-5.686381337000057e-05,3.0433311621891335e-05,4.0280629036715254e-05,-1.5235811588354409e-05,1.2654179954552092e-05
1.3838516679243185e-05,-6.051965829101391e-05,2.764042619674001e-05,3.427717456361279e-05,-1.584240271768067e-05,-4.2182437027804554e-05
2.0434154066606425e-05,-6.063125329092145e-05,2.9964920031488873e-05,3.100403773714788e-05,-1.2776946277881507e-05,-7.907062536105514e-05
2.7385842258809134e-05,-5.780621722806245e-05,3.369768455740996e-05,2.8205970011185855e-05,-9.556619261275046e-06,-9.473640966461971e-05
3.0608676752308384e-05,-5.465909271151759e-05,3.5633554944070056e-05,2.3484655685024336e-05,-7.873180948081426e-06,-7.657691458007321e-05
3.243423634557985e-05,-5.1558701670728624e-05,3.373235449544154e-05,1.7103888239944354e-05,-7.0135470195964444e-06,-3.425215254537761e-05
3.375273445271887e-05,-5.1952934882137924e-05,3.002708763233386e-05,1.6210951798711903e-05,-6.475517693615984e-06,4.653446126212657e-07
3.244535037083551e-05,-5.756137034040876e-05,2.7597312509897165e-05,2.2139442080515437e-05,-1.001348027784843e-05,1.4393423043657094e-05
2.7217067327001132e-05,-6.193192530190572e-05,2.90246225631563e-05,2.5755965907592326e-05,-1.3773586942988914e-05,1.8680219000088982e-05
2.2608113795286044e-05,-5.945681550656445e-05,3.111797559540719e-05,2.497365312592592e-05,-1.3204205970396288e-05,2.472524829499889e-05
1.961097768798936e-05,-5.382901872508228e-05,3.064814882236533e-05,2.5450231987633742e-05,-1.263758895220235e-05,2.7236994355916977e-05
1.7498978195362724e-05,-5.273067290545441e-05,2.7527392376214266e-05,2.6492494725971483e-05,-1.4820668184256647e-05,2.0896070054732263e-05
1.5221153262245934e-05,-5.687052907887846e-05,2.4387785742874257e-05,2.9106580768711865e-05,-1.737874117679894e-05,1.390281249769032e-05
1.2957415492564905e-05,-5.984960080240853e-05,2.2685866497340612e-05,3.307368388050236e-05,-1.764440276019741e-05,2.551172838138882e-05
9.31480826693587e-06,-5.75553385715466e-05,2.3549839170300402e-05,3.433900928939693e-05,-1.533426075184252e-05,7.958752394188195e-05
5.892105036764406e-06,-5.1676634029718116e-05,2.840420711436309e-05,3.311998807475902e-05,-1.2019819223496597e-05,0.00016272705397568643
5.316155693435576e-06,-4.769533552462235e-05,3.249118890380487e-05,3.380985799594782e-05,-9.763527486938983e-06,0.00022683784482069314
6.922811280674068e-06,-4.877643004874699e-05,3.149634358123876e-05,3.0197930755093694e-05,-9.470350050833076e-06,0.0002518031687941402
1.0066931281471625e-05,-4.9716461944626644e-05,2.871194556064438e-05,2.2089086996857077e-05,-1.1717076631612144e-05,0.0002599589352030307
1.3277181096782442e-05,-4.746132981381379e-05,2.9640188586199656e-05,2.5460851247771643e-05,-1.1708354577422142e-05,0.0002707049425225705
1.630456608836539e-05,-4.226506280247122e-05,3.3301839721389115e-05,4.752897802973166e-05,-6.171915174491005e-06,0.00028303201543167233
2.26220963668311e-05,-3.7378464185167104e-05,3.469057992333546e-05,7.159559027059004e-05,1.78603158929036e-06,0.0002711600682232529
3.017946073669009e-05,-3.591365020838566e-05,3.323107011965476e-05,7.921807991806418e-05,5.641277311951853e-06,0.0002055029763141647
3.31581431964878e-05,-3.879772702930495e-05,3.0939689168008044e-05,6.913931429153308e-05,1.7422214568796335e-06,8.48762720124796e-05
3.4130949643440545e-05,-4.078686106367968e-05,3.132419442408718e-05,5.174864054424688e-05,3.4278280054422794e-06,-2.9318245651666075e-05
3.7220212107058614e-05,-3.7509431422222406e-05,3.391248901607469e-05,3.2378349715145305e-05,1.2810702173737809e-05,-9.501308522885665e-05
3.57167846232187e-05,-3.593211658881046e-05,3.299606032669544e-05,1.0915112397924531e-05,1.3157955436327029e-05,-0.0001349841186311096
2.6156871172133833e-05,-3.871467924909666e-05,3.0469016564893536e-05,-2.932399411292863e-06,4.194951543468051e-06,-0.000172928674146533
1.735401019686833e-05,-4.42725868197158e-05,2.9027545679127797e-05,4.025199814350344e-06,-5.464510650199372e-06,-0.0002009865565923974
1.1235579222557135e-05,-4.9406498874304816e-05,2.9401879146462306e-05,2.4928149287006818e-05,-9.890243745758198e-06,-0.00017767901590559632
9.001573744171765e-06,-5.13797058374621e-05,3.13980744977016e-05,3.913783439202234e-05,-1.2950291420565918e-05,-9.794760262593627e-05
1.1388291568437126e-05,-5.0699967687251046e-05,3.481553721940145e-05,2.957544529635925e-05,-1.3786371710011736e-05,2.7084167868451914e-06
1.611808875168208e-05,-5.031688488088548e-05,3.527969238348305e-05,5.2942632464692e-06,-1.238156073668506e-05,7.318927237065509e-05
2.0163781300652772e-05,-5.3677238611271605e-05,3.386116441106424e-05,-7.315170932997717e-06,-1.0127499990630895e-05,0.00010108535207109526
2.288112409587484e-05,-5.849221633980051e-05,2.941230559372343e-05,-4.978784090781119e-06,-1.1044901839341037e-05,0.00011164187162648886
2.4316355847986415e-05,-6.094552009017207e-05,2.457013397361152e-05,3.4034728741971776e-06,-1.4495315554086119e-05,0.00012382505519781262
2.5281255148001947e-05,-6.0334994486765936e-05,2.253029015264474e-05,1.3522824701794889e-05,-1.432429507985944e-05,0.00013381379540078342
2.654849595273845e-05,-5.861248428118415e-05,2.298718027304858e-05,2.430278436804656e-05,-1.2610939847945701e-05,0.00013388798106461763
2.8633989131776616e-05,-5.614198016701266e-05,2.490657425369136e-05,3.0034174415050074e-05,-1.1075535439886153e-05,0.00013249517360236496
3.156684397254139e-05,-5.236552897258662e-05,2.8257441954337992e-05,3.247865242883563e-05,-8.270674697996583e-06,0.00013226049486547709
3.327202284708619e-05,-4.817449735128321e-05,3.3748485293472186e-05,3.855753311654553e-05,-5.46970113646239e-06,0.00012436513497959822
3.147749521303922e-05,-4.5927758037578315e-05,3.8933634641580284e-05,4.657944737118669e-05,-7.466000170097686e-06,0.00010347543866373599
2.678984310477972e-05,-4.539233123068698e-05,4.279152926756069e-05,5.256874646875076e-05,-1.107820116885705e-05,7.661135896341875e-05
2.3465221602236852e-05,-4.4494725443655625e-05,4.31387270509731e-05,5.717487874790095e-05,-1.4298900168796536e-05,4.814091153093614e-05
2.1709298380301334e-05,-4.35953879787121e-05,3.83685328415595e-05,5.8772395277628675e-05,-1.6357340427930467e-05,1.5515690392930992e-05
2.0463467080844566e-05,-4.358124715508893e-05,3.0265722671174444e-05,5.457800943986513e-05,-1.758407597662881e-05,-2.6839452402782626e-05
1.849290492828004e-05,-4.494524182518944e-05,2.7288235287414864e-05,5.045382567914203e-05,-2.055477125395555e-05,-5.783197048003785e-05
1.7160615243483335e-05,-4.618264938471839e-05,3.153235957142897e-05,4.59151815448422e-05,-2.0565885279211216e-05,-3.9465667214244604e-05
1.7814309103414416e-05,-4.768656799569726e-05,3.4842338209273294e-05,3.45401895174291e-05,-1.6172061805264093e-05,3.038575050595682e-05
1.9025959772989154e-05,-5.108019104227424e-05,3.0919585697120056e-05,2.6807152607943863e-05,-1.5742629329906777e-05,9.680731454864144e-05
2.2380858354154043e-05,-5.246770160738379e-05,2.678514829312917e-05,3.637569898273796e-05,-1.8114109479938634e-05,0.00013155133638065308
2.7911200959351845e-05,-5.062303171143867e-05,2.850928831321653e-05,5.086342207505368e-05,-1.930243888637051e-05,0.00014663201000075787
2.9914976039435714e-05,-4.7279445425374433e-05,3.075545828323811e-05,5.11924154125154e-05,-1.6056923413998447e-05,0.00015686239930801094
2.5411800379515626e-05,-4.742774763144553e-05,2.875432255677879e-05,3.852929876302369e-05,-1.0328282769478392e-05,0.0001608801248949021
2.0318608221714385e-05,-4.8101359425345436e-05,2.7088191927759908e-05,3.0317771233967505e-05,-6.996202500886284e-06,0.00014941400149837136
2.2951357095735148e-05,-4.103923129150644e-05,2.7285805117571726e-05,2.8353639208944514e-05,-8.206414349842817e-06,0.00013240546104498208
2.9810566047672182e-05,-3.440520595177077e-05,3.07673544739373e-05,2.1852356439922005e-05,-7.254771844600327e-06,0.00010742559243226424
3.203153391950764e-05,-3.288026346126571e-05,3.1550880521535873e-05,1.6871159459697083e-05,-4.223257292323979e-06,6.81822348269634e-05
3.076120628975332e-05,-3.6346395063446835e-05,2.80627155007096e-05,1.338865240541054e-05,-6.039912932465086e-06,2.808488716254942e-05
3.0241288186516613e-05,-3.922685937141068e-05,2.5516546884318814e-05,8.469520253129303e-06,-1.1677392649289686e-05,9.751381185196806e-06
3.1454510462936014e-05,-3.783416832447983e-05,2.917967503890395e-05,9.668593747846899e-07,-1.4206151718099136e-05,2.657897857716307e-05
3.621078940341249e-05,-3.667702912935056e-05,3.681939051602967e-05,-3.4391698591207387e-06,-8.179044925782364e-06,7.663832366233692e-05
4.283854286768474e-05,-4.0480495954398066e-05,4.3120999180246145e-05,3.448579263931606e-06,8.25910547064268e-07,0.0001330424565821886
4.349380833446048e-05,-5.643502663588151e-05,4.66676865471527e-05,1.3608085282612592e-05,2.832199470503838e-06,0.00015310732123907655
3.446386836003512e-05,-7.878478209022433e-05,4.516893022810109e-05,1.8179753169533797e-05,-4.704443199443631e-06,0.00010765589831862599
2.362666964472737e-05,-8.996287942864001e-05,4.0044196794042364e-05,1.6070542187662795e-05,-1.288076691707829e-05,1.0016899068432394e-05
1.8411175915389322e-05,-8.037468796828762e-05,3.5223874874645844e-05,1.9201850591343828e-05,-1.560498094477225e-05,-8.60793370520696e-05
1.7016243873513304e-05,-6.104745989432558e-05,3.461969390627928e-05,3.5395896702539176e-05,-1.4327386452350765e-05,-0.0001315836125286296
1.3629433851747308e-05,-4.7346253268187866e-05,3.7476656871149316e-05,5.8321122196502984e-05,-1.3281594874570146e-05,-0.00012643449008464813
9.648124432715122e-06,-4.50442785222549e-05,4.228599209454842e-05,7.328766514547169e-05,-1.50047053466551e-05,-0.00010466015373822302
8.265268661489245e-06,-5.110071651870385e-05,4.30306899943389e-05,7.430131518049166e-05,-1.812816844903864e-05,-7.690507482038811e-05
9.07037883735029e-06,-5.9591511671897024e-05,3.8142261473694816e-05,6.771078187739477e-05,-1.647830504225567e-05,-3.02469761663815e-05
1.096894993679598e-05,-6.478473369497806e-05,3.052728789043613e-05,6.062910324544646e-05,-1.1519289728312287e-05,2.5821422241278924e-05
1.0701155588321853e-05,-6.216868496267125e-05,2.9105493013048545e-05,5.4236290452536196e-05,-1.0768853826448321e-05,6.488170038210228e-05
7.539085345342755e-06,-5.6699089327594265e-05,3.316671427455731e-05,5.228795271250419e-05,-1.898086156870704e-05,8.174634422175586e-05
5.865118509973399e-06,-5.407500430010259e-05,3.459587605902925e-05,5.350406718207523e-05,-2.6166269890381955e-05,9.001842408906668e-05
9.002957085613161e-06,-5.2783183491555974e-05,3.4555305319372565e-05,5.4507610911969095e-05,-2.339357706659939e-05,0.00010115592158399522
1.8062923118122853e-05,-5.062126729171723e-05,3.431291042943485e-05,5.203294495004229e-05,-1.6890566257643513e-05,0.00011118418478872627
2.363908242841717e-05,-4.571109457174316e-05,3.334712528157979e-05,4.0835304389474913e-05,-1.2754430827044416e-05,0.00011445393465692177
2.110043351422064e-05,-4.003738649771549e-05,3.211473813280463e-05,2.8828299036831595e-05,-1.2817745300708339e-05,0.00011657334107439965
2.1523090254049748e-05,-3.9820370147936046e-05,3.0777133360970765e-05,1.7752205167198554e-05,-1.3784052498522215e-05,0.00011868311412399635
2.4171744371415116e-05,-4.422860365593806e-05,2.683508864720352e-05,6.954875516385073e-06,-1.1475048268039245e-05,0.00011883069964824244
2.5191538952640258e-05,-4.5043434511171654e-05,2.5600273147574626e-05,-5.549169941332366e-07,-9.39094115892658e-06,0.0001136530700023286
2.24333143705735e-05,-4.309169526095502e-05,2.8114374799770303e-05,-3.464851261014701e-06,-1.0437720447953325e-05,9.490185766480863e-05
2.0088444216526113e-05,-4.418037860887125e-05,2.7743479222408496e-05,-1.6834236475915532e-06,-1.1598781384236645e-05,6.569693505298346e-05
2.1535088308155537e-05,-4.6068333176663145e-05,2.6986368538928218e-05,1.841736889218737e-06,-8.072246600931976e-06,4.1814371797954664e-05
2.614452751004137e-05,-4.51433370471932e-05,2.7198228053748608e-05,4.025072030344745e-06,-2.7942253382207127e-06,2.7978279831586406e-05
3.070360980927944e-05,-4.224726581014693e-05,2.796908847813029e-05,-1.9321237232361455e-07,-1.4085946986597264e-06,3.5349938116269186e-05
3.2297142752213404e-05,-4.0459119190927595e-05,2.642688741616439e-05,-6.243427833396709e-06,-3.019755922650802e-06,6.167902756715193e-05
3.220451981178485e-05,-4.183630517218262e-05,2.3274007617146708e-05,-7.007227395661175e-06,-5.376835815695813e-06,7.590398308821023e-05
3.053102409467101e-05,-4.579915548674762e-05,2.0841478544753045e-05,-2.0951772512489697e-06,-5.445455826702528e-06,6.118571036495268e-05
2.9685037588933483e-05,-4.740094664157368e-05,2.116398354701232e-05,7.452791578543838e-06,-3.0282949410320725e-06,2.892158408940304e-05
2.91482028842438e-05,-4.468267798074521e-05,2.304321424162481e-05,1.8439364794176072e-05,3.841556122097245e-07,-3.5919524634664413e-06
3.018596544279717e-05,-4.091159280505963e-05,2.4669026970514096e-05,2.902784945035819e-05,5.40866540177376e-06,-3.163587098242715e-05
3.1549854611512274e-05,-4.076616824022494e-05,2.5229519451386295e-05,3.2319432648364455e-05,1.0420126272947527e-05,-5.6018849136307836e-05
2.9058503059786744e-05,-4.464869562070817e-05,2.4352881155209616e-05,2.888930612243712e-05,6.684100753773237e-06,-7.268733315868303e-05
2.1544799892581068e-05,-5.095819506095722e-05,2.2279235054156743e-05,3.163818473694846e-05,-6.166877483337885e-06,-7.244043081300333e-05
1.5354187780758366e-05,-5.434683043858968e-05,2.1846160962013528e-05,4.527672354015522e-05,-1.6934154700720683e-05,-3.815101445070468e-05
1.4473287592409179e-05,-5.120635250932537e-05,2.7145599233335815e-05,6.0554368246812373e-05,-1.889416489575524e-05,3.32849049300421e-05
1.6942454749369062e-05,-4.617092781700194e-05,3.573793583200313e-05,6.719892553519458e-05,-1.6214451534324326e-05,9.77609888650477e-05
2.0308958482928574e-05,-4.362024264992215e-05,4.682569851865992e-05,6.120184116298333e-05,-1.08431240732898e-05,0.0001237656397279352
2.0905514247715473e-05,-4.3228137656114995e-05,5.350617357180454e-05,4.7574343625456095e-05,-5.0931207624671515e-06,0.00011917253868887201
1.7260290405829437e-05,-4.252328290021978e-05,4.962330422131345e-05,3.272469621151686e-05,-4.3017421376134735e-06,9.39745586947538e-05
1.3875881450076122e-05,-4.3979944166494533e-05,3.974686114815995e-05,1.7441912859794684e-05,-1.2222311852383427e-05,6.750658940291032e-05
1.2237971532158554e-05,-4.6600791392847896e-05,3.108370947302319e-05,2.0729678453790257e-06,-2.277272506034933e-05,6.237412162590772e-05
9.461468835070264e-06,-5.0867012760136276e-05,2.8426993594621308e-05,2.853604655683739e-06,-2.1294894395396113e-05,8.447232539765537e-05
9.37423828872852e-06,-5.2476574637694284e-05,2.896909609262366e-05,2.0945937649230473e-05,-1.296247046411736e-05,0.00012197357864351943
1.1516252016008366e-05,-4.9857524572871625e-05,2.7483727535582148e-05,2.945047162938863e-05,-7.282609658432193e-06,0.00015478710702154785
1.075581803888781e-05,-4.9290767492493615e-05,2.3949320166138932e-05,1.783883635653183e-05,-7.175048267527018e-06,0.00017758886679075658
1.1703333257173654e-05,-5.0527669372968376e-05,2.3688378860242665e-05,2.6115869786735857e-06,-6.1188625295471866e-06,0.00020365515956655145
1.4452065443038009e-05,-5.2513289119815454e-05,2.8458474844228476e-05,5.320101763572893e-07,-2.3770842290105065e-06,0.00022426346549764276
1.634149521123618e-05,-4.897493636235595e-05,3.245711559429765e-05,1.1583934792724904e-05,-2.460120185787673e-06,0.00022105223615653813
1.908471131173428e-05,-4.3941639887634665e-05,3.5098521038889885e-05,3.3110438380390406e-05,-3.835136794805294e-06,0.00022726741735823452
2.1871363060199656e-05,-4.096210250281729e-05,3.723712143255398e-05,5.833683826494962e-05,-4.260215973772574e-06,0.00026948010781779885
2.488769678166136e-05,-3.9126258343458176e-05,3.7306312151486054e-05,7.624288991792127e-05,-3.553260057742591e-06,0.00031066618976183236
2.753511580522172e-05,-4.071319563081488e-05,3.319567986181937e-05,7.388390804408118e-05,-5.331694410415366e-06,0.0002933631185442209
2.9713713956880383e-05,-4.5809549192199484e-05,2.9186663596192375e-05,4.698327029473148e-05,-7.95182950241724e-06,0.00020624343596864492
3.1560011848341674e-05,-5.0740261940518394e-05,2.5657862352090888e-05,9.023236088978592e-06,-9.28284862311557e-06,9.432451770408079e-05
3.429107164265588e-05,-5.381706796470098e-05,2.359650534344837e-05,-1.5881731087574735e-05,-7.945113793539349e-06,7.458561412931886e-07
3.7217396311461926e-05,-5.786074325442314e-05,2.3670050723012537e-05,-1.4700629435537849e-05,-6.547056727868039e-06,-7.787387585267425e-05
3.833461960311979e-05,-6.038837454980239e-05,2.5157552954624407e-05,9.025548934005201e-06,-7.500234914914472e-06,-0.00016502212383784354
3.5643290175357834e-05,-5.960212365607731e-05,2.8211028620717116e-05,4.297852865420282e-05,-1.0166181709792e-05,-0.00024511743686161935
3.0339766453835182e-05,-5.765130845247768e-05,3.3360731322318316e-05,7.200065010692924e-05,-1.3039689292781986e-05,-0.00026915856869891286
2.502062125131488e-05,-5.633616092381999e-05,3.783116699196398e-05,8.552671351935714e-05,-1.3844456589140464e-05,-0.0002161778975278139
2.176653651986271e-05,-5.423050242825411e-05,3.607205508160405e-05,8.118113328237087e-05,-1.3763914466835558e-05,-0.00012442113074939698
2.0547453459585086e-05,-5.22000300406944e-05,2.860287349903956e-05,6.436301191570237e-05,-1.671284917392768e-05,-4.510111466515809e-05
1.7819977074395865e-05,-5.022700133849867e-05,2.3158499971032143e-05,4.603205161402002e-05,-2.2335376343107782e-05,-1.1761806035792688e-06
1.4895369531586766e-05,-4.819786408916116e-05,2.511592538212426e-05,4.001571505796164e-05,-2.522283830330707e-05,1.0101673069584649e-05
1.6889929611352272e-05,-4.9943322665058076e-05,2.8111748179071583e-05,4.270243152859621e-05,-2.58838408626616e-05,1.9951050944655435e-06
1.8750632079900242e-05,-5.675995635101572e-05,2.7019948902307078e-05,4.3882158934138715e-05,-2.62898720393423e-05,-1.3284974556881934e-05
1.6032325220294297e-05,-5.983352457405999e-05,2.702654637687374e-05,4.404714491101913e-05,-2.42279602389317e-05,-3.226517219445668e-05
1.1542650099727325e-05,-5.79595252929721e-05,3.3408014132874086e-05,4.852072743233293e-05,-2.0911194951622747e-05,-4.736027040053159e-05
7.364530574704986e-06,-5.672954284818843e-05,3.7648482248187065e-05,5.1972798246424645e-05,-1.8244092643726617e-05,-4.606965012499131e-05
7.460794677172089e-06,-5.889311069040559e-05,4.0420505683869123e-05,4.661015191231854e-05,-1.220039848703891e-05,-3.5666118492372334e-05
1.3763014976575505e-05,-6.018400745233521e-05,4.0932485717348754e-05,4.399392128107138e-05,-4.49448634753935e-06,-2.3096403310773894e-05
2.115072675223928e-05,-6.0910559113835916e-05,3.916916830348782e-05,4.3183066736673936e-05,-4.5601973397424445e-07,-8.433956281805877e-06
2.306610440427903e-05,-6.659388600382954e-05,3.875788388540968e-05,3.486627610982396e-05,-2.3958061774465023e-06,7.46763316783472e-06
1.9545128452591598e-05,-7.213690696517006e-05,3.5860030038747936e-05,2.4207582100643776e-05,-2.886089077946963e-06,2.406005296506919e-05
1.4942446796339937e-05,-7.230717164929956e-05,3.1823397875996307e-05,2.197228604927659e-05,-2.1189864582993323e-06,3.2623574952594936e-05
1.6823205442051403e-05,-6.770119944121689e-05,3.0098974093561992e-05,3.0606785003328696e-05,-5.572586815105751e-06,3.5471577575663105e-05
2.18715395021718e-05,-6.189455598359928e-05,2.873787161661312e-05,3.9734710298944265e-05,-7.829187779861968e-06,3.707098585437052e-05
2.4914455934776925e-05,-5.6422053603455424e-05,2.5617955543566495e-05,4.103463652427308e-05,-5.6752296586637385e-06,4.684073428506963e-05
2.6245952540193684e-05,-5.400948793976568e-05,2.2441558030550368e-05,3.474385084700771e-05,-2.7676296667777933e-06,6.495663546957076e-05
2.631810275488533e-05,-5.455438804347068e-05,2.1775516870548017e-05,2.5553055820637383e-05,-5.080278697278118e-06,7.51243278500624e-05
2.488272548362147e-05,-5.3698291594628245e-05,2.4293625756399706e-05,1.7480515452916734e-05,-1.1367973456799518e-05,7.19025410944596e-05
2.231682083220221e-05,-5.137108018971048e-05,2.7588863304117694e-05,1.0231095075141639e-05,-1.4652840945927892e-05,6.513985135825351e-05
2.081342063320335e-05,-5.0996546633541584e-05,2.881379441532772e-05,1.7973324020204018e-06,-1.1472005098767113e-05,6.489424413302913e-05
2.0126422896282747e-05,-5.1984043238917366e-05,2.6711171813076362e-05,-4.117512617085595e-06,-5.780786523246206e-06,6.898555875523016e-05
1.9411056200624444e-05,-5.0163958803750575e-05,2.2899695977685042e-05,-5.984536073810887e-06,-4.007388724858174e-06,7.199690298875794e-05
1.7887810827232897e-05,-4.354640987003222e-05,2.195499837398529e-05,-7.4747790677065495e-06,-5.877953299204819e-06,7.677740359213203e-05
1.8560576791060157e-05,-3.470175579423085e-05,2.817576205416117e-05,-8.910643373383209e-06,-6.269822733884212e-06,9.020017023431137e-05
2.114787457685452e-05,-2.770992614387069e-05,3.7505014915950596e-05,-6.412185484805377e-06,-6.160405519040069e-06,0.00010612077312543988
2.2344958779285662e-05,-2.5304292648797855e-05,3.9903981814859435e-05,2.247261591037386e-06,-5.295652044878807e-06,0.00010955256584566087
2.502070856280625e-05,-2.3939699531183578e-05,3.6063403968000785e-05,1.3890977243136149e-05,-6.11194650446123e-07,9.882624726742506e-05
3.158210529363714e-05,-2.5237608497263864e-05,3.569376713130623e-05,2.5228258891729638e-05,5.094031166663626e-06,9.006056643556803e-05
3.743753404705785e-05,-3.315452704555355e-05,3.977264350396581e-05,3.6242232454242185e-05,8.25383722258266e-06,8.93647302291356e-05
3.88186817872338e-05,-4.137722498853691e-05,4.174573768978007e-05,4.204760261927731e-05,7.350709893216845e-06,8.453850750811398e-05
3.592888970160857e-05,-4.1520470404066145e-05,3.778201062232256e-05,4.156953582423739e-05,4.604225523507921e-06,7.342875323956832e-05
3.2130406907526776e-05,-4.077018820680678e-05,3.107768498011865e-05,3.70420420949813e-05,-1.0048781859950395e-06,6.659621431026608e-05
2.671213587746024e-05,-4.3379433918744326e-05,2.8439566449378617e-05,3.343504431541078e-05,-6.124461378931301e-06,6.602669600397348e-05
2.4008350010262802e-05,-4.0525203075958416e-05,3.2408057450084016e-05,3.3990396332228556e-05,-7.2194720814877655e-06,6.601765198865905e-05
2.5703076971694827e-05,-3.9689628465566784e-05,3.588947220123373e-05,3.66705353371799e-05,-8.472197805531323e-06,5.9212314226897433e-05
2.3347480237134732e-05,-4.40935546066612e-05,3.500976526993327e-05,3.5726377973333e-05,-1.1978146176261362e-05,5.3408046369440854e-05
2.0382320144562982e-05,-4.953517054673284e-05,3.0713625164935365e-05,2.7778720323112793e-05,-1.3861787010682747e-05,6.048402428859845e-05
1.7804593881010078e-05,-4.991440800949931e-05,2.7127127395942807e-05,1.4936900697648525e-05,-1.1775574421335477e-05,8.802179945632815e-05
1.5945577615639195e-05,-4.719383650808595e-05,2.829639197443612e-05,3.4365755254839314e-06,-8.945337867771741e-06,0.00012035186227876693
1.8319698938285e-05,-4.661815182771534e-05,3.0500714274239726e-05,-2.5334959445899585e-06,-8.563683877582662e-06,0.00014398264465853572
1.9881945263477974e-05,-4.713200905825943e-05,3.0087690902291797e-05,-6.639872935920721e-06,-1.0562089300947264e-05,0.00016181862156372517
1.7213114915648475e-05,-4.945556429447606e-05,2.8403686883393675e-05,-8.220165909733623e-06,-1.0610815479594748e-05,0.0001698718115221709
1.4705547073390335e-05,-5.09363817400299e-05,2.9255477784317918e-05,-7.392436145892134e-06,-1.0127617315447424e-05,0.0001659656991250813
1.6231086192419752e-05,-5.211604729993269e-05,3.3114505640696734e-05,-3.1449740163225215e-06,-1.1920138604182284e-05,0.0001515249168733135
1.8851798813557252e-05,-5.259005047264509e-05,3.622429721872322e-05,6.4328114603995346e-06,-1.5671133951400407e-05,0.000128201165352948
2.009092531807255e-05,-5.364839671528898e-05,3.603361619752832e-05,2.0656863853218965e-05,-1.70829298440367e-05,9.849982598097995e-05
2.1480875147972256e-05,-5.368407437345013e-05,3.4630782465683296e-05,3.424098395043984e-05,-1.764784065017011e-05,7.374150300165638e-05
2.322561340406537e-05,-5.1856975915143266e-05,3.266411295044236e-05,3.975629806518555e-05,-1.819545832404401e-05,6.140511686680838e-05
2.2790189177612774e-05,-5.02602088090498e-05,3.0843770218780264e-05,3.475915582384914e-05,-1.8043645468424074e-05,6.877349369460717e-05
1.969389086298179e-05,-5.273224815027788e-05,2.907554153352976e-05,2.75561887974618e-05,-1.984879418159835e-05,0.0001007848622975871
1.422497552994173e-05,-5.942983989370987e-05,2.4544986445107497e-05,2.424638114462141e-05,-2.4524702894268557e-05,0.00014184681640472263
8.542981959180906e-06,-6.478743307525292e-05,1.9506289390847087e-05,2.325326386198867e-05,-2.8282236598897725e-05,0.0001619001996004954
6.833790394011885e-06,-6.510310777230188e-05,1.4853652828605846e-05,2.384596155025065e-05,-2.7991038223262876e-05,0.00015745178097859025
8.279762369056698e-06,-6.22702282271348e-05,9.22505569178611e-06,2.5315635866718367e-05,-2.765828321571462e-05,0.0001471142895752564
1.1809444913524203e-05,-5.649012018693611e-05,6.910972842888441e-06,2.5249912141589448e-05,-2.6392292056698352e-05,0.00012266270641703159
1.7339601981802844e-05,-4.811686812900007e-05,1.1564060514501762e-05,2.4760011001490057e-05,-1.9041663108509965e-05,6.665394903393462e-05
2.2960326532484032e-05,-3.7974117731209844e-05,2.675591895240359e-05,2.785160904750228e-05,-4.558757609629538e-06,-5.039651568949921e-06
3.019670839421451e-05,-2.604301153041888e-05,4.4094060285715386e-05,3.254985495004803e-05,1.4195790754456539e-05,-6.926637433934957e-05
3.60655139957089e-05,-2.214791311416775e-05,5.177292405278422e-05,3.92262008972466e-05,2.746889367699623e-05,-0.00011419287329772487
3.5587734600994736e-05,-2.9964105124236085e-05,4.8660214815754443e-05,3.890030347974971e-05,2.100711026287172e-05,-0.000122645782539621
3.313765046186745e-05,-3.994899816461839e-05,4.140894816373475e-05,3.879166615661234e-05,5.644103111990262e-06,-0.00010439399193273857
3.209945498383604e-05,-5.1639759476529434e-05,3.943874980905093e-05,5.250522735877894e-05,-6.705099622195121e-07,-8.170122600859031e-05
3.256264244555496e-05,-6.872294034110382e-05,3.7826735933776945e-05,6.202518852660432e-05,-1.256200192756296e-07,-3.8033111195545644e-05
3.3733136660885066e-05,-8.579721907153726e-05,3.473406468401663e-05,6.18174162809737e-05,9.385558996655163e-07,2.5496865418972448e-05
3.409513010410592e-05,-8.823943790048361e-05,3.404845483601093e-05,5.7582914450904354e-05,-1.6444769812551385e-07,7.862402708269656e-05
3.343500793562271e-05,-7.104063843144104e-05,3.517463483149186e-05,5.3314513934310526e-05,-3.5059542824456003e-06,0.00010216913506155834
3.2997144444379956e-05,-5.115077146911062e-05,3.478494181763381e-05,4.532797902356833e-05,-6.008689069858519e-06,0.000100304139778018
3.2563133572693914e-05,-3.883627141476609e-05,3.28283931594342e-05,3.4942331694765016e-05,-7.073695542203495e-06,9.176805906463414e-05
2.9243708922876976e-05,-3.7037203583167866e-05,3.242254024371505e-05,3.056550121982582e-05,-1.0164888408326078e-05,9.33273695409298e-05
2.5127730623353273e-05,-4.1398681787541136e-05,3.428594209253788e-05,3.0120758310658857e-05,-1.1609902685449924e-05,0.00010623100388329476
2.2017427909304388e-05,-4.576722130877897e-05,3.6882203858112916e-05,3.11228541249875e-05,-9.111941835726611e-06,0.0001265074679395184
2.0670575395342894e-05,-4.823262497666292e-05,3.8106485590105876e-05,3.3708882256178185e-05,-8.276241715066135e-06,0.0001457962061977014
2.006768772844225e-05,-5.028922896599397e-05,3.601970456657e-05,3.9118480344768614e-05,-1.1477547559479717e-05,0.00015178181638475507
1.8581362382974476e-05,-5.1564427849370986e-05,3.149799522361718e-05,4.493098094826564e-05,-1.3957291230326518e-05,0.0001534514594823122
1.7652915630606003e-05,-5.160105865797959e-05,2.8149301215307787e-05,5.059256000095047e-05,-1.2492540008679498e-05,0.00016657638479955494
2.016080543398857e-05,-5.16935542691499e-05,2.907735324697569e-05,5.3809082601219416e-05,-9.237432095687836e-06,0.0001819924364099279
2.4393251806031913e-05,-5.0603863201104105e-05,3.394369559828192e-05,5.148089985596016e-05,-6.790129191358574e-06,0.00018055726832244545
2.446422331559006e-05,-4.8549420171184465e-05,3.5421540815150365e-05,3.8719026633771136e-05,-6.6735833570419345e-06,0.00016573199536651373
2.020061219809577e-05,-4.5637374569196254e-05,3.181361171300523e-05,1.7126794773503207e-05,-9.098889677261468e-06,0.00014748744433745742
1.6162037354661152e-05,-4.412835914990865e-05,3.116860534646548e-05,-8.412456509176991e-07,-1.3107647646393161e-05,0.00012793099449481815
1.7548645701026544e-05,-4.58542890555691e-05,3.612978252931498e-05,8.966487143879931e-07,-1.6480877093272284e-05,9.269730799132958e-05
2.310140735062305e-05,-4.689628985943273e-05,3.92381043639034e-05,2.0151823264313862e-05,-1.6141904779942706e-05,2.860508902813308e-05
2.5658526283223182e-05,-4.725951293949038e-05,3.6890611227136105e-05,3.7661902752006426e-05,-1.1794716556323692e-05,-5.112701910547912e-05
2.3329594114329666e-05,-4.873823854723014e-05,3.349515100126155e-05,4.351390089141205e-05,-6.9441543928405736e-06,-9.026219049701467e-05
2.1776260837214068e-05,-4.924658787786029e-05,3.457210186752491e-05,4.125195846427232e-05,-7.772046046738978e-06,-5.5721975513733923e-05
2.2428966985899024e-05,-5.058213719166815e-05,3.72098438674584e-05,2.807130840665195e-05,-1.4366988580150064e-05,7.906774953880813e-06
2.088903056574054e-05,-5.133602098794654e-05,3.399283377802931e-05,6.611167918890715e-06,-1.8165905203204602e-05,3.8385951484087855e-05
1.5947316569508985e-05,-5.322002471075393e-05,2.6887892090599053e-05,-7.916430149634834e-06,-2.3091051843948662e-05,4.118753713555634e-05
1.3001240404264536e-05,-5.650815728586167e-05,2.295637568749953e-05,-8.963203072198667e-06,-2.8503065550467e-05,5.00621426908765e-05
1.5740859453217126e-05,-5.5708100262563676e-05,2.6135832740692422e-05,8.90649880602723e-06,-2.5328512492706068e-05,6.043967368896119e-05
1.918509769893717e-05,-5.31592704646755e-05,3.381499118404463e-05,3.173477671225555e-05,-2.1024525267421268e-05,6.176023453008384e-05
2.0226116248522885e-05,-5.364114622352645e-05,3.9739861676935107e-05,3.9321399526670575e-05,-2.2852460460853763e-05,5.762320142821409e-05
1.9264674847363494e-05,-5.197196878725663e-05,4.0994455048348755e-05,3.4454518754500896e-05,-2.4789431336103007e-05,5.6844644859666005e-05
1.7497486624051817e-05,-4.622267442755401e-05,4.047905167681165e-05,2.9475964765879326e-05,-2.393856630078517e-05,6.00948951614555e-05
1.9104565581073985e-05,-4.2567487980704755e-05,3.939209636882879e-05,2.7629626856651157e-05,-2.0045512428623624e-05,6.46417320240289e-05
2.3610118660144508e-05,-4.5797653001500294e-05,3.647646735771559e-05,2.8957945687579922e-05,-1.3670483895111829e-05,6.623432273045182e-05
2.9157507015042938e-05,-5.136005347594619e-05,3.751914482563734e-05,3.3217340387636796e-05,-6.788496648368891e-06,7.18261580914259e-05
3.206848123227246e-05,-5.316302122082561e-05,4.04293168685399e-05,3.17263366014231e-05,-2.96889697892766e-06,9.480858716415241e-05
3.072029721806757e-05,-5.427554060588591e-05,4.097638156963512e-05,2.2908538085175678e-05,-4.384864041639958e-06,0.00014151308278087527
2.683648381207604e-05,-5.7607692724559456e-05,4.119845834793523e-05,1.3585642591351643e-05,-7.680865564907435e-06,0.0001891807041829452
2.413035872450564e-05,-6.0524693253682926e-05,4.10177162848413e-05,4.781625193572836e-06,-8.98981397767784e-06,0.0002104802697431296
2.5158869902952574e-05,-5.902427437831648e-05,3.89060951420106e-05,-1.87431714948616e-06,-6.115190444688778e-06,0.00019710976630449295
2.6486828573979437e-05,-5.56773848074954e-05,3.7242727557895705e-05,8.001397588941472e-08,-3.2706448109820485e-06,0.0001394419523421675
2.5786730475374497e-05,-5.513639916898683e-05,3.747694427147508e-05,1.253787377208937e-05,-4.652421921491623e-06,3.911719613824971e-05
2.3017253624857403e-05,-5.4674881539540365e-05,3.659518915810622e-05,2.7840871553053148e-05,-8.573617378715426e-06,-5.5993645219132304e-05
2.0508896341198124e-05,-5.003969636163674e-05,3.2244664907921106e-05,3.5349978134036064e-05,-9.336872608400881e-06,-8.077680831775069e-05
2.209570084232837e-05,-4.355122655397281e-05,2.9175007512094453e-05,3.693485996336676e-05,-7.130263384169666e-06,-3.071488390560262e-05
2.7115969714941457e-05,-3.844513776130043e-05,3.364016811246984e-05,4.22161647293251e-05,-3.9295196074817795e-06,4.922368316329084e-05
2.836173189280089e-05,-3.6508659832179546e-05,3.868358180625364e-05,5.077162859379314e-05,-2.2732672277925303e-06,0.00012922546011395752
2.3299638996832073e-05,-3.797966201091185e-05,3.9747181290294975e-05,5.864348349859938e-05,-4.323315351939527e-06,0.0001985308190342039
1.4134177035884932e-05,-4.0571900171926245e-05,3.508677764330059e-05,5.737387255067006e-05,-9.071395652426872e-06,0.00022807912318967283
7.213833669084124e-06,-4.1910352592822164e-05,2.3851484002079815e-05,4.2150448280153796e-05,-1.1238442311878316e-05,0.00020817767654079944
1.0636527804308571e-05,-4.2865678551606834e-05,1.3625191968458239e-05,1.8927779819932766e-05,-1.151823926193174e-05,0.0001376046857330948
1.954229264811147e-05,-4.1677045373944566e-05,1.2640382010431495e-05,7.225213721540058e-06,-1.1112672837043647e-05,2.6489260562811978e-05
2.4128918084898032e-05,-4.15562026319094e-05,1.559779775561765e-05,1.3433619642455596e-05,-9.407296602148563e-06,-6.742743426002562e-05
2.606406997074373e-05,-4.251012796885334e-05,2.186632809753064e-05,2.4484043024131097e-05,-7.697261025896296e-06,-0.00010525093239266425
2.717122515605297e-05,-4.282049849280156e-05,2.80299354926683e-05,3.5645152820507064e-05,-4.811854523723014e-06,-0.00011271292896708474
2.8050404580426402e-05,-4.426175291882828e-05,2.735255657171365e-05,3.6112814996158704e-05,-4.8358228923461866e-06,-0.00011299359175609425
3.047933387279045e-05,-4.3733976781368256e-05,2.6390011043986306e-05,2.8001615646644495e-05,-6.431925157812657e-06,-7.790498057147488e-05
3.104936331510544e-05,-4.072032243129797e-05,2.527981087041553e-05,1.8735259800450876e-05,-7.757304047117941e-06,-5.5343589338008314e-06
2.9007091143284924e-05,-3.8048681744839996e-05,2.5646910216892138e-05,1.234459978149971e-05,-7.860249752411619e-06,6.474740075645968e-05
2.60631823039148e-05,-3.792393545154482e-05,2.6800049454323016e-05,1.1129302038170863e-05,-7.308899512281641e-06,9.986347140511498e-05
2.4618970201117918e-05,-3.8717600546078756e-05,3.082282637478784e-05,1.5785684809088707e-05,-7.965323675307445e-06,0.0001011926942737773
2.5218139853677712e-05,-4.28293424192816e-05,3.6760116927325726e-05,2.625819979584776e-05,-9.9395947472658e-06,8.667872316436842e-05
2.631538336572703e-05,-4.655723023461178e-05,4.052889926242642e-05,3.8527727156179026e-05,-1.0464722436154261e-05,6.716996722389013e-05
2.5831555831246078e-05,-4.594306301441975e-05,4.06440049118828e-05,4.959124271408655e-05,-8.510369298164733e-06,4.913872908218764e-05
2.353473064431455e-05,-4.1953975596698e-05,3.798155012191273e-05,5.9486861573532224e-05,-6.824518550274661e-06,3.8356454751919955e-05
2.2835747586213984e-05,-4.020654159830883e-05,3.6997102142777294e-05,6.866351031931117e-05,-6.083155767555581e-06,3.222009399905801e-05
2.4221724743256345e-05,-4.179019742878154e-05,3.7907157093286514e-05,7.628506136825308e-05,-5.178956598683726e-06,2.269411379529629e-05
2.456191214150749e-05,-4.681339123635553e-05,3.722105248016305e-05,7.800684397807345e-05,-4.992116373614408e-06,1.7628342902753502e-05
2.1321258827811107e-05,-5.576590774580836e-05,3.43468964274507e-05,6.879482680233195e-05,-9.302149919676594e-06,2.6457069907337427e-05
1.531447924207896e-05,-6.3335093727801e-05,3.3582993637537584e-05,5.49333963135723e-05,-1.6623800547677092e-05,4.6655757614644244e-05
1.0701110113586765e-05,-6.602992652915418e-05,3.318095696158707e-05,4.645784792955965e-05,-2.1465255485964008e-05,7.506843394367024e-05
1.0602117981761694e-05,-6.501137977465987e-05,3.127094896626659e-05,4.313399767852388e-05,-2.1427778847282752e-05,9.817746467888355e-05
1.3351165762287565e-05,-6.284889241214842e-05,2.6909614462056197e-05,3.554019349394366e-05,-1.9466398953227326e-05,9.1928755864501e-05
1.6138877981575206e-05,-6.009703429299407e-05,2.061562190647237e-05,2.3317914383369498e-05,-1.8511394955567084e-05,5.97670950810425e-05
1.726423761283513e-05,-5.9164929552935064e-05,1.7775730157154612e-05,1.547080319141969e-05,-1.8999371604877524e-05,1.320466344623128e-05
1.863849684013985e-05,-5.6670058256713673e-05,2.2061671188566834e-05,2.0413786842254922e-05,-1.8108325093635358e-05,-3.614397792262025e-05
1.9249617253080942e-05,-5.149363278178498e-05,2.7228925318922848e-05,2.7078080165665597e-05,-1.564848753332626e-05,-7.970303704496473e-05
1.9323650121805258e-05,-5.148223863216117e-05,2.8066348022548482e-05,2.4133345505106263e-05,-1.2683300155913457e-05,-0.0001103485919884406
1.9871426047757268e-05,-5.554557719733566e-05,2.7694672098732553e-05,1.6600013623246923e-05,-9.98456835077377e-06,-0.00010333929094485939
2.080336162180174e-05,-5.76056118006818e-05,3.039212606381625e-05,1.4563795957656112e-05,-7.495844329241663e-06,-6.364686851156875e-05
2.0830582798225805e-05,-5.8554589486448094e-05,2.9555483706644736e-05,1.8337543224333785e-05,-5.846794465469429e-06,-9.961222531273961e-06
1.8544744307291694e-05,-5.532371505978517e-05,2.5326309696538374e-05,2.006502472795546e-05,-5.735694685427006e-06,5.593878813670017e-05
1.7879232473205775e-05,-5.27671400050167e-05,2.585799120424781e-05,1.5380996046587825e-05,-6.6189027165819425e-06,0.00011190436634933576
1.5105679267435335e-05,-5.307669562171213e-05,2.7377347578294575e-05,2.5083886612264905e-06,-8.953740689321421e-06,0.00015119292947929353
1.3509130440070294e-05,-5.382717790780589e-05,2.8076879971195012e-05,-1.2774518836522475e-05,-1.0658235623850487e-05,0.00017946958541870117
1.8223925508209504e-05,-5.4876589274499565e-05,3.0272094591055065e-05,-2.2525326130562462e-05,-1.270444226975087e-05,0.00018964217451866716
2.3041202439344488e-05,-5.35094877704978e-05,3.162544089718722e-05,-2.525320087443106e-05,-1.636094384593889e-05,0.00017714379646349698
2.3264008632395416e-05,-4.9370075430488214e-05,2.917515485023614e-05,-2.1863637812202796e-05,-1.981005880224984e-05,0.00014591493527404964
1.9527196855051443e-05,-5.0045622629113495e-05,2.2665410142508335e-05,-1.5464373063878156e-05,-2.1855090380995534e-05,0.00011151124635944143
1.5839879779377952e-05,-5.343368320609443e-05,1.6694117221049964e-05,-5.213239091972355e-06,-2.2648924641544e-05,9.010465146275237e-05
1.6213305571000092e-05,-5.15884421474766e-05,1.8024958990281448e-05,1.6692065401002765e-05,-2.3575090381200425e-05,8.538539987057447e-05
1.9551825971575454e-05,-4.767351856571622e-05,2.5736821044120006e-05,4.844235809287056e-05,-2.4769873562036082e-05,8.416667697019875e-05
2.0612997104763053e-05,-4.798037116415799e-05,3.0367489671334624e-05,7.550416194135323e-05,-2.492269231879618e-05,7.878576434450224e-05
1.9744786186493002e-05,-5.2441635489230976e-05,2.9439865102176555e-05,8.978129335446283e-05,-2.288512587256264e-05,7.848108361940831e-05
2.039309765677899e-05,-5.467322262120433e-05,2.8235461286385544e-05,9.606451203580946e-05,-1.9002944100066088e-05,8.958407852333039e-05
2.3721620891592465e-05,-5.418718501459807e-05,2.8673750421148725e-05,9.976505680242553e-05,-1.602491465746425e-05,9.689454600447789e-05
2.7366651920601726e-05,-5.277724994812161e-05,2.881721593439579e-05,0.0001002732606139034,-1.245665771421045e-05,8.5039297118783e-05
2.8362905140966177e-05,-5.2049654186703265e-05,2.99521088891197e-05,8.827769488561898e-05,-6.272546215768671e-06,6.54887335258536e-05
2.762519579846412e-05,-4.931232979288325e-05,3.331633342895657e-05,6.33854215266183e-05,-1.847914859354205e-06,6.124323408585042e-05
2.769625098153483e-05,-4.525637632468715e-05,3.5084209230262786e-05,4.429339969647117e-05,-7.624847171427973e-07,7.017185998847708e-05
2.7224141376791522e-05,-4.543636168818921e-05,3.792913776123896e-05,4.1866205719998106e-05,-1.5387545317935292e-06,7.329555228352547e-05
2.6488980438443832e-05,-4.781912502949126e-05,4.261590220266953e-05,4.3486561480676755e-05,-5.362345291359816e-06,6.127828964963555e-05
2.6738965971162543e-05,-4.678518234868534e-05,4.480200368561782e-05,3.81579520762898e-05,-6.525902790599503e-06,4.9507900257594883e-05
2.9140426704543643e-05,-4.125483246752992e-05,3.920591188943945e-05,3.1814419344300404e-05,-3.2811186656545033e-07,4.79591908515431e-05
3.131710036541335e-05,-4.0078932215692475e-05,3.2599346013739705e-05,2.4444903829135e-05,4.348395123088267e-06,4.4313706894172356e-05
2.7546322598936968e-05,-4.356235876912251e-05,2.8649217711063102e-05,1.6060630514402874e-05,2.719131316553103e-06,3.781570558203384e-05
2.057865640381351e-05,-4.440220436663367e-05,2.6849138521356508e-05,1.6004874851205386e-05,2.6424545467307325e-06,4.1278071876149625e-05
1.65217188623501e-05,-4.477313632378355e-05,2.8280455808271654e-05,2.2370819351635873e-05,5.332385626388714e-06,6.329668394755572e-05
1.9313167285872623e-05,-4.3818537960760295e-05,2.6814488592208363e-05,2.474819848430343e-05,4.99931957165245e-06,9.385125304106623e-05
2.50376633630367e-05,-4.198888564133085e-05,2.696545016078744e-05,2.280587432323955e-05,2.0162776763754664e-06,0.0001226720487466082
2.8453365302993916e-05,-4.292946687201038e-05,2.727859464357607e-05,1.789526140782982e-05,-1.8464611457602587e-06,0.0001429700496373698
2.691394547582604e-05,-4.5533619413618e-05,2.5399205696885474e-05,6.63442460790975e-06,-2.283280082338024e-06,0.00014912226470187306
2.3456757844542153e-05,-4.5069489715388045e-05,2.384947038081009e-05,-2.376765451117535e-06,3.0981519216766173e-07,0.00014489069872070104
2.179343209718354e-05,-4.6198761992855e-05,2.6735577193903737e-05,-4.723485290014651e-06,1.7122745248343563e-06,0.0001259627752006054
1.9603361579356715e-05,-4.995522249373607e-05,3.1957421015249565e-05,-3.7541615256486693e-06,1.1455656476755394e-06,9.436488471692428e-05
1.8309920051251538e-05,-5.273269198369235e-05,3.467096030362882e-05,-1.332787064711738e-06,-1.4359521856022184e-06,6.316536746453494e-05
2.0026254787808284e-05,-5.2598337788367644e-05,3.600832133088261e-05,3.756797696041758e-06,-3.008711701113498e-06,4.1998915548902005e-05
2.232989209005609e-05,-5.121172944200225e-05,3.4970555134350434e-05,3.769853719859384e-06,-2.437200237181969e-06,2.7565240088733844e-05
2.2336807887768373e-05,-5.1296985475346446e-05,3.159794505336322e-05,-6.3829656937741674e-06,-2.2295159851637436e-06,1.2383787179715e-05
2.2296961105894297e-05,-5.2718260121764615e-05,2.877824954339303e-05,-1.4380908396560699e-05,-3.0008309295226354e-06,-6.832309736637399e-06
2.247801239718683e-05,-5.314114241627976e-05,3.1421772291650996e-05,-6.627752554777544e-06,-2.4551982278353535e-06,-2.2348385755321942e-05
2.2922937205294147e-05,-4.929525312036276e-05,3.695626583066769e-05,1.545467966934666e-05,-1.9173905911884503e-06,-2.3212625819724053e-05
2.4539896912756376e-05,-4.395536961965263e-05,3.962348273489624e-05,3.896141788573004e-05,-3.7700413031416247e-06,-8.908635209081694e-06
2.7522795789991505e-05,-4.192274354863912e-05,3.603829463827424e-05,5.544133091461845e-05,-6.565338026121026e-06,6.790096904296661e-06
3.091576581937261e-05,-4.481660289457068e-05,3.158871186315082e-05,6.620636122534052e-05,-8.972514478955418e-06,1.4226684470486362e-05
3.19739556289278e-05,-4.8306093958672136e-05,3.1227922590915114e-05,7.23518751328811e-05,-1.1643951438600197e-05,2.1503190509974957e-05
3.1827126804273576e-05,-4.945971159031615e-05,3.3384010748704895e-05,6.626889080507681e-05,-1.3653934729518369e-05,3.905475387000479e-05
3.125888906652108e-05,-4.980217636330053e-05,3.4643067920114845e-05,5.07682234456297e-05,-1.5490059013245627e-05,5.9051897551398724e-05
2.641229184519034e-05,-5.375327600631863e-05,3.339123213663697e-05,4.205844015814364e-05,-1.8948001525131986e-05,5.1126949983881786e-05
2.0143128494964913e-05,-5.778386184829287e-05,3.28400383295957e-05,4.37381022493355e-05,-2.00791528186528e-05,2.8705975637421943e-05
1.9834449631161988e-05,-5.676714499713853e-05,3.7933601561235264e-05,4.29351712227799e-05,-1.3334828508959617e-05,2.463230339344591e-05
2.757643051154446e-05,-5.2637751650763676e-05,4.234045263729058e-05,4.007826646557078e-05,-6.4745072450023144e-06,3.254253533668816e-05
3.322257907711901e-05,-4.937357880407944e-05,4.115392584935762e-05,3.9838909287936985e-05,-8.781409633229487e-06,3.6577712307916954e-05
2.9617714972118847e-05,-5.1222959882579744e-05,4.1369974496774375e-05,4.535541665973142e-05,-1.4600457689084578e-05,2.9047083444311284e-05
2.3193517336039804e-05,-5.5301159591181204e-05,4.102543243789114e-05,4.5236873120302334e-05,-1.5712388631072827e-05,1.7365984604111873e-05
1.898926893773023e-05,-5.5688222346361727e-05,4.0392245864495635e-05,3.391427526366897e-05,-1.423715912096668e-05,1.2173198228992987e-05
1.8037006157101132e-05,-5.36426596227102e-05,4.127172360313125e-05,2.378179124207236e-05,-1.5579022146994248e-05,1.4866434867144562e-05
1.749076727719512e-05,-5.09121164213866e-05,3.717404615599662e-05,2.1889931304031052e-05,-1.5978002920746803e-05,2.602432869025506e-05
1.6855585272423923e-05,-5.059954128228128e-05,2.898300954257138e-05,2.40910940192407e-05,-1.4402630768017843e-05,4.498070848057978e-05
1.556369534227997e-05,-5.231111208559014e-05,2.359599238843657e-05,2.1281332010403275e-05,-1.212619918078417e-05,6.438010314013809e-05
1.5104515114217065e-05,-5.270964538794942e-05,2.521143323974684e-05,1.905573117255699e-05,-7.530547463829862e-06,7.213069329736754e-05
1.5839848856558092e-05,-5.011228859075345e-05,3.238729914301075e-05,2.3302703993977048e-05,-4.011033638562367e-07,7.531568553531542e-05
1.5782919945195317e-05,-4.833511411561631e-05,3.839431155938655e-05,3.3204356441274285e-05,3.972891590819927e-06,8.281725604319945e-05
1.3171245882404037e-05,-4.833112325286493e-05,3.736790313269012e-05,4.015742888441309e-05,-1.7724416068176652e-07,8.761428034631535e-05
1.1665911188174505e-05,-5.074134605820291e-05,3.337917587487027e-05,3.993631253251806e-05,-8.283673196274322e-06,8.345717651536688e-05
1.4362031834025402e-05,-5.420862362370826e-05,3.178155020577833e-05,3.1570205464959145e-05,-1.198865629703505e-05,7.687955803703517e-05
1.5757879737066105e-05,-5.5853943194961175e-05,3.0380851967493072e-05,1.710140895738732e-05,-1.0296474101778585e-05,7.947156700538471e-05
1.2529190826171543e-05,-5.67503047932405e-05,2.5834071493591182e-05,-1.1962659982600599e-06,-8.911462828109507e-06,8.790194988250732e-05
1.0790087799250614e-05,-5.5856897233752534e-05,2.1518799258046784e-05,-1.5531188182649203e-05,-1.0068200026580598e-05,8.813747263047844e-05
1.5248820091073867e-05,-5.2861774747725576e-05,2.565678551036399e-05,-1.3522237168217544e-05,-1.0808959814312402e-05,8.11516001704149e-05
2.149665124306921e-05,-4.8532281653024256e-05,3.361456765560433e-05,1.3720089100388577e-06,-9.516513273410965e-06,7.717435801168904e-05
2.2459635147242807e-05,-4.580133463605307e-05,3.700357410707511e-05,1.5218486623780336e-05,-7.3925662036344875e-06,7.384419586742297e-05
1.663362854742445e-05,-4.667151370085776e-05,3.786990055232309e-05,2.2835882191429846e-05,-5.950024842604762e-06,6.546963413711637e-05
1.3062808648101054e-05,-5.167223571334034e-05,4.0468588849762455e-05,3.196029138052836e-05,-6.4762975853227545e-06,5.823837636853568e-05
1.630454971746076e-05,-5.368960773921572e-05,4.084772808710113e-05,4.109103247174062e-05,-6.176566330395872e-06,6.072759424569085e-05
2.0985458832001314e-05,-5.03687588206958e-05,3.6385361454449594e-05,3.863508754875511e-05,-5.847542979608988e-06,7.006252417340875e-05
2.3972703274921514e-05,-4.741876182379201e-05,3.064958582399413e-05,2.7940466679865494e-05,-8.34958609630121e-06,7.78890389483422e-05
2.527401375118643e-05,-4.726480256067589e-05,2.6410723876324482e-05,1.9693043213919736e-05,-1.0925544302153867e-05,8.474343485431746e-05
2.5384395485161804e-05,-4.738794086733833e-05,2.541452158766333e-05,1.2912034435430542e-05,-1.178105412691366e-05,8.86254565557465e-05
2.7554702683119103e-05,-4.7014626034069806e-05,2.7810299798147753e-05,1.3112965461914428e-05,-1.3106912774674129e-05,8.358983905054629e-05
2.7510059226187877e-05,-4.646045999834314e-05,3.454324905760586e-05,1.9576831618906e-05,-1.0977312740578782e-05,8.067145972745493e-05
2.3395698008243926e-05,-4.652053758036345e-05,3.805194137385115e-05,2.2799156795372255e-05,-6.747174211341189e-06,9.036000119522214e-05
2.028767812589649e-05,-4.771996827912517e-05,3.517133882269263e-05,1.7299378669122234e-05,-8.419146979576908e-06,0.00011129725317005068
2.072507777484134e-05,-5.039231837145053e-05,3.221867882530205e-05,6.718331860611215e-06,-1.2033292478008661e-05,0.0001259238488273695
2.3497806978411973e-05,-5.402041279012337e-05,2.787193989206571e-05,6.441107416321756e-07,-1.3911031601310242e-05,0.0001113940161303617
2.440554089844227e-05,-5.5334494390990585e-05,2.6399864509585313e-05,1.810197545637493e-06,-1.1708034435287118e-05,6.173936708364636e-05
2.2647243895335123e-05,-5.1711249398067594e-05,2.622638930915855e-05,1.2714411241177004e-05,-7.818497579137329e-06,1.688919724074367e-06
2.1996440409566276e-05,-4.5295284508029e-05,2.41875368374167e-05,3.230621223337948e-05,-6.732468591508223e-06,-3.159199332003482e-05
2.146157930837944e-05,-4.114569674129598e-05,2.3369970222120173e-05,5.321852586348541e-05,-1.034124034049455e-05,-2.791166480164975e-05
1.939230423886329e-05,-4.077376797795296e-05,2.7051204597228207e-05,6.786361336708069e-05,-1.5934932889649644e-05,-1.2771544788847677e-05
1.7346696040476672e-05,-4.246414755471051e-05,3.2583233405603096e-05,6.985774962231517e-05,-1.970618723134976e-05,-8.950132723839488e-06
1.672267353569623e-05,-4.41761985712219e-05,3.3595762943150476e-05,5.865050115971826e-05,-2.1194739019847475e-05,-1.3076027244096622e-05
1.548061118228361e-05,-4.559807348414324e-05,2.9334132705116645e-05,4.877747778664343e-05,-2.0967227101209573e-05,-1.3815570127917454e-05
1.0841970834007952e-05,-4.7004221414681524e-05,2.328058508282993e-05,4.976595664629713e-05,-2.137002957169898e-05,-1.038905065797735e-05
6.697973276459379e-06,-4.88422519993037e-05,2.1658055629814044e-05,5.047749436926097e-05,-2.2429583623306826e-05,-2.398931655989145e-06
8.631523087387905e-06,-4.779173104907386e-05,2.400483936071396e-05,4.218344110995531e-05,-2.3515131033491343e-05,1.582575532665942e-05
1.6349469660781324e-05,-4.393059134599753e-05,2.8418759029591456e-05,3.2602660212432966e-05,-2.2754571546101943e-05,4.7192719648592174e-05
1.9463739590719342e-05,-4.33543355029542e-05,3.081463000853546e-05,2.6960686227539554e-05,-1.971266647160519e-05,8.505052392138168e-05
1.4073791135160718e-05,-4.75312044727616e-05,3.016818482137751e-05,2.3086293367668986e-05,-1.9696111849043518e-05,0.00011220604210393503
7.30660076442291e-06,-5.210699964663945e-05,2.9932049073977396e-05,2.0597259208443575e-05,-2.2638529117102735e-05,0.00011334599548717961
4.576741503115045e-06,-5.4493124480359256e-05,2.7689831767929718e-05,1.789674388419371e-05,-2.1366067812778056e-05,9.508129005553201e-05
7.55214341552346e-06,-5.3705141908722e-05,2.2839994926471263e-05,1.6580552255618386e-05,-1.6125786714837886e-05,8.180233999155462e-05
1.43115530590876e-05,-5.0010985432891175e-05,2.131856672349386e-05,1.389270164509071e-05,-1.0191260116698686e-05,8.145866013364866e-05
2.3408754714182578e-05,-4.715099203167483e-05,2.3231916202348657e-05,1.0542820746195503e-05,-5.464403784571914e-06,8.308811084134504e-05
2.9809034458594397e-05,-4.74895496154204e-05,2.715335722314194e-05,1.2156133379903622e-05,-1.5557588994852267e-06,8.839469228405505e-05
2.9940803869976662e-05,-4.495072062127292e-05,3.1296418455895036e-05,1.4947628187655937e-05,2.8157654696769896e-07,0.00011134679516544566
2.9264916520332918e-05,-3.464821929810569e-05,3.094190469710156e-05,2.1321056919987313e-05,-2.390113877481781e-06,0.00012032012455165386
3.237563214497641e-05,-2.3663487809244543e-05,2.919513644883409e-05,3.4647746360860765e-05,-3.4250604130647844e-06,9.567732195137069e-05
3.774352808250114e-05,-2.0415413018781692e-05,2.8793745514121838e-05,4.8009856982389465e-05,3.71450056491085e-07,7.730667130090296e-05
3.997649037046358e-05,-2.4379636670346372e-05,2.83987756120041e-05,5.747108662035316e-05,1.6059764220699435e-06,8.306102245114744e-05
3.795009615714662e-05,-3.252478563808836e-05,3.0275406970758922e-05,6.137573654996231e-05,9.260361935048422e-07,9.447207412449643e-05
3.489847222226672e-05,-4.2239938920829445e-05,3.1874034903012216e-05,5.7653189287520945e-05,-1.803074155759532e-06,9.964589116862044e-05
3.511552858981304e-05,-5.049081664765254e-05,3.328306775074452e-05,5.2018982387380674e-05,-4.528330009634374e-06,9.969146776711568e-05
3.827324690064415e-05,-6.193973240442574e-05,3.562825804692693e-05,5.214281191001646e-05,-2.513366553102969e-06,9.813361248234287e-05
4.045742389280349e-05,-7.784884655848145e-05,3.603459117584862e-05,5.429803059087135e-05,2.713338744797511e-06,9.288449655286968e-05
4.036693280795589e-05,-9.188298281515017e-05,3.265247505623847e-05,4.649899710784666e-05,5.705362127628177e-06,7.730975630693138e-05
3.845193350571208e-05,-9.332062472822145e-05,2.619566112116445e-05,2.8605794796021655e-05,1.4955476217437536e-06,5.164412141311914e-05
3.253216345910914e-05,-7.943387754494324e-05,1.976835119421594e-05,1.1869235095218755e-05,-5.697382221114822e-06,3.107492011622526e-05
2.4489565475960262e-05,-6.183005461934954e-05,1.6614243577350862e-05,6.624716206715675e-06,-1.2116555808461271e-05,2.441290780552663e-05
1.6262247299891897e-05,-5.272313501336612e-05,1.6199051970033906e-05,1.1806120710389223e-05,-1.6614618289167993e-05,2.729999141592998e-05
9.50135199673241e-06,-5.52690944459755e-05,1.4484793609881308e-05,1.4676166756544262e-05,-1.784394589776639e-05,4.610703399521299e-05
7.3510591391823255e-06,-6.330638279905543e-05,1.4632199963671155e-05,1.357781275146408e-05,-1.4586716133635491e-05,8.507476013619453e-05
1.0403801752545405e-05,-6.662451050942764e-05,2.400092125753872e-05,1.724869798636064e-05,-9.127517841989174e-06,0.00011825657566078007
1.6535357644897886e-05,-6.0528185713337734e-05,3.9128950447775424e-05,2.5204224584740587e-05,-5.165155016584322e-06,0.0001126858260249719
2.1423087673611008e-05,-5.082687857793644e-05,4.7206376621033996e-05,2.7452202630229294e-05,-3.9476194615417626e-06,6.940277671674266e-05
2.3927299480419606e-05,-4.3901647586608306e-05,4.9873298848979175e-05,2.5192044631694444e-05,-4.321751475799829e-06,1.6452902855235152e-05
2.347534245927818e-05,-4.060816718265414e-05,5.3389892855193466e-05,2.5667639420134947e-05,-4.454342160897795e-06,-2.149516330973711e-05
1.8438124243402854e-05,-3.911747990059666e-05,5.369630889617838e-05,2.5892697522067465e-05,-3.848078449664172e-06,-3.850782013614662e-05
1.195952336274786e-05,-3.702941830852069e-05,4.728087878902443e-05,2.524633237044327e-05,-8.3070544860675e-06,-3.8724483601981774e-05
1.09953789433348e-05,-3.550847395672463e-05,4.006722883787006e-05,2.6792342396220192e-05,-1.648608667892404e-05,-3.317277878522873e-05
1.2159726793470327e-05,-3.903683682437986e-05,3.8025329558877274e-05,3.3014406653819606e-05,-2.1542387912631966e-05,-4.0930008253781125e-05
1.264993625227362e-05,-4.5412023609969765e-05,3.9728791307425126e-05,4.1209797927876934e-05,-2.112307629431598e-05,-6.530099926749244e-05
1.3991274499858264e-05,-5.021205288358033e-05,4.1855837480397895e-05,3.423867019591853e-05,-1.940155379998032e-05,-8.770568092586473e-05
1.7789827325032093e-05,-4.9929138185689226e-05,4.0119262848747894e-05,1.648200850468129e-05,-1.5932695532683283e-05,-9.5004950708244e-05
2.2592392269871198e-05,-4.869701660936698e-05,3.581237615435384e-05,1.2904450159112457e-05,-9.252118616132066e-06,-9.584787767380476e-05
2.4074171960819513e-05,-4.9501868488732725e-05,2.8962685973965563e-05,2.4432316422462463e-05,-4.57653368357569e-06,-9.819176921155304e-05
2.3646887711947784e-05,-5.094596781418659e-05,2.4135033527272753e-05,4.147132858633995e-05,-2.488272457412677e-06,-8.43489688122645e-05
2.4178161766030826e-05,-4.959948273608461e-05,2.7807198421214707e-05,5.65496739000082e-05,-3.358180265422561e-06,-4.071951116202399e-05
2.4594553906354122e-05,-4.838560562347993e-05,3.2764903153292835e-05,6.312583718681708e-05,-5.7472211665299255e-06,2.909776048909407e-05
2.2096282918937504e-05,-5.126024552737363e-05,3.245983680244535e-05,5.9391491959104314e-05,-1.2390013580443338e-05,0.00010332080273656175
2.0873103494523093e-05,-5.418137880042195e-05,2.7724920073524117e-05,4.870356133324094e-05,-1.8418668332742527e-05,0.00015737889043521136
2.5114235540968366e-05,-5.456618237076327e-05,2.7354448320693336e-05,3.41425729857292e-05,-1.6634594430797733e-05,0.00018103244656231254
3.2672200177330524e-05,-5.33680577063933e-05,2.9019658541074023e-05,2.1067005945951678e-05,-9.2879427029402e-06,0.0001818670134525746
3.8069560105213895e-05,-5.383797179092653e-05,2.7576006687013432e-05,1.477133082516957e-05,-1.9881151729350677e-06,0.00017522345297038555
3.586670936783776e-05,-5.268696622806601e-05,2.6713829356594943e-05,1.2871908438683022e-05,-4.969678570887481e-07,0.00016720141866244376
2.7336620405549183e-05,-5.215782221057452e-05,2.9226923288661055e-05,1.2650417374970857e-05,-5.811036317027174e-06,0.0001570339809404686
1.953662467713002e-05,-5.396261622081511e-05,3.454040415817872e-05,1.211767357744975e-05,-1.3541445696318988e-05,0.00013102882076054811
