1.1046020517824218e-05,-7.160986569942906e-05,3.7626567063853145e-05,6.745899008819833e-05,-1.109362756324117e-06,5.2140956540824845e-05
-2.8538552214740776e-06,-5.9944701206404716e-05,4.3798947444884107e-05,8.627845818409696e-05,-4.7897860895318445e-06,4.718654599855654e-05
-1.8549777450971305e-05,-4.5864311687182635e-05,4.4522581447381526e-05,8.372328738914803e-05,-1.2692741620412562e-05,4.053803422721103e-05
-2.1496260160347447e-05,-3.237589407945052e-05,4.209710459690541e-05,7.128250581445172e-05,-1.6890850019990467e-05,2.855495040421374e-05
-1.4907390323060099e-05,-2.388992470514495e-05,3.735928112291731e-05,5.661560862790793e-05,-1.5082358004292473e-05,1.939209869306069e-05
-8.527582394890487e-06,-2.0986602976336144e-05,3.086505239480175e-05,4.515734690357931e-05,-1.212343431689078e-05,2.9429636924760416e-05
-1.1368431842129212e-05,-1.8853241272154264e-05,2.5450026441831142e-05,3.47347668139264e-05,-1.3645912986248732e-05,5.388337012846023e-05
-1.7930835383594967e-05,-1.739141771395225e-05,2.110430614266079e-05,2.5718296456034295e-05,-1.3452937309921253e-05,7.869064575061202e-05
-6.3804905039432924e-06,-1.5129753592191264e-05,1.852022069215309e-05,1.53290693560848e-05,-5.927653546677902e-06,0.00010047508112620562
2.3871121811680496e-05,-1.2826932106690947e-05,1.566891478432808e-05,1.996588935071486e-06,6.130364909040509e-06,0.00011730069672921672
5.0178030505776405e-05,-1.7037980796885677e-05,1.5428782717208378e-05,-9.14498832571553e-06,1.5365458239102736e-05,0.000125477381516248
5.7038909289985895e-05,-2.8587717679329216e-05,2.0525143554550596e-05,-7.829449714336079e-06,1.6796540876384825e-05,0.0001177219019155018
4.9289490561932325e-05,-4.161290780757554e-05,2.5542611183482222e-05,9.745366696733981e-06,1.0249589649902191e-05,9.155342559097335e-05
3.904233381035738e-05,-4.911542418994941e-05,2.758557820925489e-05,3.832978109130636e-05,2.6697518933360698e-06,6.142057100078091e-05
3.297781222499907e-05,-5.062786294729449e-05,2.7891090212506242e-05,6.648358976235613e-05,-1.5613962887073285e-06,4.065418761456385e-05
2.596805279608816e-05,-4.976747732143849e-05,2.8817310521844774e-05,8.480522956233472e-05,-3.965092673752224e-06,3.599731280701235e-05
1.1977916074101813e-05,-5.029593739891425e-05,2.9867385819670744e-05,9.431888611288741e-05,-4.548849119601073e-06,4.7408135287696496e-05
-4.289275238988921e-06,-5.341668293112889e-05,3.2669995562173426e-05,9.394386142957956e-05,-2.481968294887338e-06,6.694215699099004e-05
-1.0398455742688384e-05,-5.756459358963184e-05,3.7271398468874395e-05,8.393113239435479e-05,7.828900834283559e-07,8.371472358703613e-05
1.4624376944993855e-06,-5.9842292102985084e-05,4.148456355324015e-05,7.022903446340933e-05,2.17620413422992e-06,9.254898759536445e-05
2.7809812308987603e-05,-5.8188150433124974e-05,4.252507642377168e-05,5.955688902758993e-05,2.173012944695074e-06,9.11179231479764e-05
5.2211282309144735e-05,-5.2144336223136634e-05,4.101933882338926e-05,5.128697739564814e-05,3.8822131500637624e-06,8.327761315740645e-05
5.9581379900919273e-05,-4.432509740581736e-05,3.633604501374066e-05,4.6997141907922924e-05,5.1678798627108335e-06,7.760841981507838e-05
4.988648652215488e-05,-3.79254634026438e-05,3.096731234109029e-05,4.664469452109188e-05,1.7412683064321755e-06,7.757500134175643e-05
3.213907257304527e-05,-3.332048072479665e-05,3.1729632610222325e-05,4.417228410602547e-05,-4.953405550622847e-06,7.781579915899783e-05
1.572574910824187e-05,-3.13856071443297e-05,3.399358320166357e-05,3.964496499975212e-05,-9.53281323745614e-06,7.434621511492878e-05
5.530752332560951e-06,-3.3572330721654e-05,3.4146924008382484e-05,3.61449274350889e-05,-1.240795427293051e-05,6.938336446182802e-05
-8.021237590583041e-06,-3.3902222639881074e-05,3.2019204809330404e-05,2.8799577194149606e-05,-1.6207644875976257e-05,6.780265539418906e-05
-2.7776812203228474e-05,-2.748330734902993e-05,3.0063054509810172e-05,1.5234454622259364e-05,-1.4447196008404717e-05,6.810133345425129e-05
-4.183067358098924e-05,-2.54278438660549e-05,3.3835323847597465e-05,2.0049433260282967e-06,-1.3546365153160878e-05,6.763452984159812e-05
-3.2929594453889877e-05,-3.13568307319656e-05,3.6682413337985054e-05,6.866841317787475e-07,-1.83689971890999e-05,6.79075819789432e-05
5.689915383300104e-07,-3.8231588405324146e-05,3.4176744520664215e-05,1.0800327800097875e-05,-1.9724622688954696e-05,6.924552144482732e-05
3.270801971666515e-05,-4.2654050048440695e-05,3.088022276642732e-05,2.5246241420973092e-05,-1.743200482451357e-05,6.880676664877683e-05
4.531559534370899e-05,-4.19078060076572e-05,3.041512354684528e-05,3.3052623621188104e-05,-1.646177588554565e-05,6.704372935928404e-05
4.084417741978541e-05,-4.205586446914822e-05,3.187321635778062e-05,3.0334796974784695e-05,-2.0166764443274587e-05,6.62199963699095e-05
3.409387863939628e-05,-4.541013186099008e-05,3.504488631733693e-05,2.1862028006580658e-05,-2.3148779291659594e-05,6.492366810562089e-05
2.891108306357637e-05,-5.069375765742734e-05,3.806671156780794e-05,1.448861166863935e-05,-2.343380947422702e-05,6.0017027863068506e-05
2.6791256459546275e-05,-5.679928290192038e-05,3.835610186797567e-05,9.865013453236315e-06,-2.2440366592491046e-05,5.580730066867545e-05
2.4517237761756405e-05,-6.0267761000432074e-05,3.8803802453912795e-05,1.0732772352639586e-05,-2.075981865345966e-05,5.856437564943917e-05
2.0149413103354163e-05,-5.905150464968756e-05,3.9771788578946143e-05,1.3695032066607382e-05,-1.918074667628389e-05,6.208429113030434e-05
1.8032766092801467e-05,-5.4606196499662474e-05,3.8765963836340234e-05,1.2042490197927691e-05,-1.8142523913411424e-05,6.319793465081602e-05
2.1070893126307055e-05,-5.306476668920368e-05,3.602040669647977e-05,9.054007932718378e-06,-1.7683569240034558e-05,6.478035356849432e-05
2.9961262043798342e-05,-5.671471080859192e-05,3.339920658618212e-05,9.65032904787222e-06,-1.717519626254216e-05,6.848282646387815e-05
3.9770198782207444e-05,-6.079386002966203e-05,3.166894384776242e-05,1.4467703294940293e-05,-1.5776706277392805e-05,7.51087354728952e-05
4.487540718400851e-05,-6.0308400861686096e-05,3.123802525806241e-05,1.7308619135292247e-05,-1.2446527762222104e-05,7.981809903867543e-05
4.270510908099823e-05,-5.733161378884688e-05,3.09137103613466e-05,2.0023069737362675e-05,-7.919526979094371e-06,7.69912003306672e-05
3.855135219055228e-05,-5.3528179705608636e-05,3.07136942865327e-05,2.7054680685978383e-05,-3.0296862405521097e-06,6.763819692423567e-05
3.526685759425163e-05,-4.9954771384363994e-05,3.245887637604028e-05,3.727325383806601e-05,-1.0008010775663934e-07,5.8461097069084644e-05
3.328817547298968e-05,-4.750474545289762e-05,3.4637039789231494e-05,4.204094875603914e-05,9.622661991670611e-07,4.99550806125626e-05
2.9866729164496064e-05,-4.501768125919625e-05,3.239911166019738e-05,3.864597965730354e-05,3.512388104809361e-07,3.7112495192559436e-05
2.6841840735869482e-05,-4.433385038282722e-05,2.9561915653175674e-05,2.701851371966768e-05,-3.479312454146566e-06,2.3812968720449135e-05
2.7972222596872598e-05,-4.703629019786604e-05,2.9681063097086735e-05,1.3856219084118493e-05,-7.708958037255798e-06,1.2709512702713255e-05
3.206618930562399e-05,-4.748189894598909e-05,3.0918323318473995e-05,4.176023594482103e-06,-1.1602223821682855e-05,8.764797030380578e-07
3.766865484067239e-05,-4.56484776805155e-05,2.9603128496091813e-05,-6.07869696978014e-06,-1.5927424101391807e-05,-3.5502530408848543e-06
3.734298297786154e-05,-4.766854544868693e-05,2.5426395950489677e-05,-1.7063490304281004e-05,-2.0008075807709247e-05,1.1201203051314224e-05
3.1536543247057125e-05,-5.326852260623127e-05,2.3301774490391836e-05,-2.5603452741052024e-05,-2.4190192561945878e-05,2.521226997487247e-05
2.8477372325141914e-05,-6.0600963479373604e-05,2.365488762734458e-05,-2.77733379334677e-05,-2.3037375285639428e-05,3.0709434213349596e-05
2.683623279153835e-05,-6.346985173877329e-05,2.6996600354323164e-05,-1.9338765923748724e-05,-2.0130344637436792e-05,3.8825994124636054e-05
2.525501258787699e-05,-6.1776940128766e-05,2.962465259770397e-05,-9.775902981346007e-06,-1.6894558939384297e-05,4.451642598723993e-05
2.7276297259959392e-05,-5.9328020142856985e-05,3.0730712751392275e-05,-6.294751074165106e-06,-1.2614199476956856e-05,4.629357863450423e-05
4.569970042211935e-05,-5.975691965431906e-05,3.1387186027131975e-05,-6.083459084038623e-06,-1.086123756977031e-05,4.869489202974364e-05
7.747533527435735e-05,-6.640492210863158e-05,2.8741624191752635e-05,-4.355648798082257e-06,-1.0744227438408416e-05,5.6699464039411396e-05
9.787065209820867e-05,-7.378028385573998e-05,2.6433477614773437e-05,1.8945110014101374e-06,-1.3004032552998979e-05,6.96790375513956e-05
8.882190013537183e-05,-7.80401605879888e-05,2.8720529371639714e-05,1.0934786587313283e-05,-1.395170056639472e-05,7.824368367437273e-05
5.731646160711534e-05,-7.775722770020366e-05,3.448380084591918e-05,2.3846409021643922e-05,-1.2990168215765152e-05,7.28521408746019e-05
2.0940942704328336e-05,-7.515622564824298e-05,3.7280980905052274e-05,3.6807399737881497e-05,-1.2433148185664322e-05,5.74754667468369e-05
-7.2607108450029045e-06,-7.269751222338527e-05,3.4690539905568585e-05,4.013764555566013e-05,-1.208950561704114e-05,4.0839306166162714e-05
-2.8371112421154976e-05,-7.228873437270522e-05,2.995642353198491e-05,3.064747579628602e-05,-1.086573684005998e-05,3.5515633499016985e-05
-4.867161260335706e-05,-7.174128404585645e-05,2.7131329261464998e-05,2.2076481400290504e-05,-1.0152327376999892e-05,4.691865251515992e-05
-6.32380906608887e-05,-6.713253242196515e-05,2.6780271582538262e-05,2.4114944608299993e-05,-1.2128457456128672e-05,6.639689672738314e-05
-6.056155689293519e-05,-5.8313002227805555e-05,2.7632640922092833e-05,3.5980494430987164e-05,-1.4939254469936714e-05,8.019978849915788e-05
-4.191469633951783e-05,-4.603934212354943e-05,2.91526139335474e-05,5.745468661189079e-05,-1.559194970468525e-05,8.381001680390909e-05
-2.053512798738666e-05,-3.19249156746082e-05,3.085161006310955e-05,8.019812958082184e-05,-1.3737167137151118e-05,8.477061783196405e-05
-2.622312194944243e-06,-2.093706098094117e-05,3.2570274925092235e-05,8.845283446135e-05,-1.116020848712651e-05,8.820567018119618e-05
1.216173404827714e-05,-1.783907282515429e-05,3.469622606644407e-05,8.418672223342583e-05,-9.310256245953497e-06,8.860523666953668e-05
2.4039993149926886e-05,-2.101641621266026e-05,3.6101944715483114e-05,7.956734771141782e-05,-9.601309102436062e-06,7.655763329239562e-05
3.163044311804697e-05,-2.728878826019354e-05,3.616611866164021e-05,7.560841186204925e-05,-9.31701379158767e-06,5.487911039381288e-05
3.9126432966440916e-05,-3.572029163478874e-05,3.430731885600835e-05,7.027685933280736e-05,-6.43270141154062e-06,3.549013490555808e-05
4.801368049811572e-05,-4.6293032937683165e-05,2.9951856049592607e-05,6.367696914821863e-05,-5.175126261747209e-06,2.1059413484181277e-05
5.805880209663883e-05,-5.55884325876832e-05,2.556987055868376e-05,5.520427293959074e-05,-7.202675533335423e-06,5.433794740383746e-06
5.901994154555723e-05,-5.8336780057288706e-05,2.484515425749123e-05,5.1185204938519746e-05,-1.190898365166504e-05,9.607664424038376e-07
4.899857594864443e-05,-5.441139001050033e-05,3.292048495495692e-05,6.184670201037079e-05,-1.8885733879869804e-05,1.5199862900772132e-05
3.775515506276861e-05,-4.87577126477845e-05,4.138195072300732e-05,7.641757110832259e-05,-1.7479607777204365e-05,3.390009078430012e-05
2.7780768505181186e-05,-4.227385943522677e-05,4.1628147300798446e-05,7.799543527653441e-05,-1.1968666512984782e-05,4.570207238430157e-05
1.717115446808748e-05,-3.915860361303203e-05,3.799259502557106e-05,6.746175495209172e-05,-1.9299721316201612e-05,5.1629776862682775e-05
6.746995950379642e-06,-3.265836130594835e-05,3.3171345421578735e-05,5.9531994338613003e-05,-3.425919931032695e-05,5.567172047449276e-05
-5.229329076428257e-07,-2.0532028429443017e-05,3.1597548513673246e-05,5.942515781498514e-05,-4.7517740313196555e-05,5.694555875379592e-05
-7.471449407603359e-06,-1.29427407955518e-05,3.39212165272329e-05,6.0420356021495536e-05,-5.685404175892472e-05,6.017026680638082e-05
-1.2832685570174363e-05,-1.430941392754903e-05,3.391050631762482e-05,5.915847941651009e-05,-6.115045835031196e-05,6.443134770961478e-05
-7.148355052777333e-06,-2.334039527340792e-05,3.211832881788723e-05,5.4388699936680496e-05,-6.23049127170816e-05,6.295930506894365e-05
6.51776554150274e-06,-3.343460411997512e-05,3.0007868190295994e-05,4.929036003886722e-05,-5.9422036429168656e-05,5.9409816458355635e-05
1.9115019313176163e-05,-4.216460365569219e-05,2.8099015253246762e-05,4.2476145608816296e-05,-4.597931547323242e-05,5.588337080553174e-05
2.5942959837266244e-05,-4.716440162155777e-05,2.631929783092346e-05,4.095647454960272e-05,-2.391209636698477e-05,5.2611572755267844e-05
2.8969765480724163e-05,-5.051036714576185e-05,2.5021367036970332e-05,4.527001874521375e-05,3.4002414395217784e-06,5.3618459787685424e-05
3.0240935302572325e-05,-5.200429222895764e-05,2.4967239369289018e-05,4.883075598627329e-05,3.3633605198701844e-05,6.082531399442814e-05
3.170072159264237e-05,-5.467375012813136e-05,2.921975465142168e-05,4.897644612356089e-05,6.138043681858107e-05,7.116428605513647e-05
3.9753311284584925e-05,-6.379569094860926e-05,3.7013589462731034e-05,4.526516568148509e-05,8.200213051168248e-05,7.909177656983957e-05
5.551085632760078e-05,-7.653032662346959e-05,4.156389331910759e-05,3.851050860248506e-05,9.138756286120042e-05,8.306575182359666e-05
7.547322456957772e-05,-8.517842798028141e-05,4.307863491703756e-05,2.7618489184533246e-05,8.548573532607406e-05,8.611716475570574e-05
9.818986291065812e-05,-8.767643885221332e-05,4.641928899218328e-05,1.6306876204907894e-05,6.636757461819798e-05,8.651996904518455e-05
0.00011496910155983642,-8.814399188850075e-05,5.119956404087134e-05,7.74090312916087e-06,4.4450567656895146e-05,7.921882206574082e-05
0.00010808246588567272,-8.83318716660142e-05,5.12142178195063e-05,3.2687307793821674e-07,2.8857468350906856e-05,6.595280137844384e-05
7.491528958780691e-05,-8.58446946949698e-05,4.811093822354451e-05,-9.490101547271479e-06,2.120516001014039e-05,5.233875708654523e-05
3.1159670470515266e-05,-7.647132588317618e-05,4.511344013735652e-05,-1.664867886574939e-05,1.8493152310838923e-05,4.450108826858923e-05
-2.7613718884822447e-06,-6.562226917594671e-05,4.257931504980661e-05,-1.684751441644039e-05,1.4089057003729977e-05,4.474306115298532e-05
-2.2494275981443934e-05,-5.7954730436904356e-05,4.118622018722817e-05,-9.490079719398636e-06,6.543549261550652e-06,4.920300852973014e-05
-3.795751035795547e-05,-4.9392503569833934e-05,3.6738176277140155e-05,-5.307845185598126e-06,2.121655825249036e-06,5.50184995518066e-05
-5.4757696489105e-05,-3.963570634368807e-05,3.053771433769725e-05,-7.912398359621875e-06,-8.778574169809872e-07,6.41353617538698e-05
-6.20510327280499e-05,-3.3472824725322425e-05,2.4194403522415087e-05,-1.249434171768371e-05,-3.9960905269254e-06,8.319105108967051e-05
-4.605214417097159e-05,-3.3578315196791664e-05,2.0143494111835025e-05,-1.5527304640272632e-05,-7.70968745200662e-06,0.00010307122283848003
-1.5518231521127746e-05,-3.868179555865936e-05,1.7866062989924103e-05,-1.875141060736496e-05,-1.32773648147122e-05,0.00011315344454487786
9.32362672756426e-06,-4.2787596612470224e-05,1.8249298591399565e-05,-2.1131887478986755e-05,-1.902111944218632e-05,0.00012329735909588635
2.3543208953924477e-05,-4.2607916839187965e-05,2.4298464268213138e-05,-1.4336167623696383e-05,-1.7693251720629632e-05,0.00014165487664286047
4.807673394680023e-05,-4.288168565835804e-05,3.053534965147264e-05,-3.1198801480059046e-06,-1.1532902135513723e-05,0.00016377773135900497
9.117180161410943e-05,-4.616047954186797e-05,3.7883011827943847e-05,1.127746486417891e-06,-7.060343705234118e-06,0.0001706657203612849
0.00012300637899897993,-4.977936259820126e-05,4.349409937276505e-05,-5.720230547012761e-06,-7.682334398850799e-06,0.00015157702728174627
0.00011834038014058024,-5.2346516895340756e-05,4.768917278852314e-05,-6.6639904616749845e-06,-1.2773994058079552e-05,0.00010988859867211431
7.81137787271291e-05,-5.361187140806578e-05,4.830264879274182e-05,3.8942330320423935e-06,-1.7113683497882448e-05,5.5812750360928476e-05
3.106635995209217e-05,-5.552890070248395e-05,4.33997847721912e-05,1.3004312677367125e-05,-2.0316596419434063e-05,-2.052700892818393e-06
4.4061403059458826e-07,-6.0682057664962485e-05,3.494281554594636e-05,1.2510227861639578e-05,-2.236201544292271e-05,-6.039464642526582e-05
-1.6688263713149354e-05,-6.724063860019669e-05,2.7088004571851343e-05,8.103323125396855e-06,-2.234767634945456e-05,-0.00010368642688263208
-3.738991654245183e-05,-6.744531856384128e-05,2.375535223109182e-05,8.62123033584794e-06,-2.150951149815228e-05,-0.00011186708434252068
-6.427341577364132e-05,-5.782343214377761e-05,2.3839766072342172e-05,1.4143701264401898e-05,-2.3109028916223906e-05,-8.249298116425052e-05
-7.269367051776499e-05,-4.338149665272795e-05,2.2015399736119434e-05,1.639195943425875e-05,-2.7019601475331e-05,-2.9592014470836148e-05
-4.777357753482647e-05,-3.31562951032538e-05,1.602900192665402e-05,1.2071201126673259e-05,-2.875115751521662e-05,3.683432441903278e-05
-7.75649823481217e-06,-3.167954855598509e-05,1.3593005860457197e-05,5.9862868511117995e-06,-2.8104737793910317e-05,0.00011033290502382442
1.6977488485281356e-05,-3.438883868511766e-05,1.7818185369833373e-05,8.900252623789129e-07,-2.886830952775199e-05,0.0001754300610627979
1.632543353480287e-05,-3.497573561617173e-05,2.455054891470354e-05,3.919379196304362e-06,-3.119933535344899e-05,0.00020587189646903425
4.603156867233338e-06,-3.363457653904334e-05,2.664812382136006e-05,1.8672650185180828e-05,-3.657347406260669e-05,0.00019007010268978775
-2.9714424272242468e-06,-3.283546175225638e-05,2.3277854779735208e-05,3.352469502715394e-05,-4.3039915908593684e-05,0.00014698515587951988
-7.3593823799456e-06,-3.4103090001735836e-05,1.9084385712631047e-05,3.647091580205597e-05,-4.621649350156076e-05,0.00010871954873437062
-1.014096869766945e-05,-3.791020571952686e-05,1.8133085177396424e-05,3.235646363464184e-05,-4.542883107205853e-05,9.26195498323068e-05
-1.1917079973500222e-05,-3.96532668673899e-05,1.8088912838720717e-05,3.1556872272631153e-05,-4.0849226934369653e-05,8.64796238602139e-05
-1.345282271358883e-05,-3.661937444121577e-05,1.8050790458801202e-05,3.265194391133264e-05,-3.488736183498986e-05,6.549622776219621e-05
-8.40948359837057e-06,-3.1575182219967246e-05,2.0689860320999287e-05,2.999811476911418e-05,-3.025642945431173e-05,2.3637670892640017e-05
4.102370439795777e-06,-3.1206131097860634e-05,2.6132001949008554e-05,1.971648816834204e-05,-2.610880255815573e-05,-3.772282798308879e-05
1.606824116606731e-05,-3.5166696761734784e-05,2.9065166017971933e-05,-3.6699861993838567e-06,-1.9266984963905998e-05,-0.00010092493175761774
2.6944675482809544e-05,-4.0314978832611814e-05,3.135175575152971e-05,-1.611119478184264e-05,-1.1864028238051105e-05,-0.00014989198825787753
3.418379128561355e-05,-4.577838990371674e-05,3.547109736246057e-05,1.0837584341061302e-06,-9.390536433784291e-06,-0.0001631963241379708
3.662740346044302e-05,-4.7315843403339386e-05,3.864057725877501e-05,3.5890778235625476e-05,-1.0972296877298504e-05,-0.0001057928820955567
3.694229599204846e-05,-4.818048546439968e-05,3.960809044656344e-05,7.495825411751866e-05,-1.2941162822244223e-05,-4.877435912931105e-06
4.003247158834711e-05,-5.242696715868078e-05,3.9776627090759575e-05,0.00010809313243953511,-1.2984895874978974e-05,7.994889165274799e-05
4.407527740113437e-05,-5.763738226960413e-05,3.980755718657747e-05,0.00012279764632694423,-1.274548139917897e-05,0.000110953304101713
4.4281259761191905e-05,-5.995567698846571e-05,3.6300236388342455e-05,0.0001179854225483723,-1.0917391591647174e-05,0.00010476588067831472
4.229405021760613e-05,-6.364213186316192e-05,3.158689651172608e-05,0.0001077768174582161,-8.498669558321126e-06,9.165720985038206e-05
3.919058508472517e-05,-7.434711733367294e-05,2.9506118153221905e-05,9.837670222623274e-05,-5.896977199881803e-06,8.242672629421577e-05
3.321416807011701e-05,-8.678872836753726e-05,3.090148311457597e-05,8.74022371135652e-05,-5.1679680836969055e-06,7.619115785928443e-05
2.2625659767072648e-05,-9.784416033653542e-05,3.4844135370804e-05,7.621407712576911e-05,-7.3642004281282425e-06,7.097033085301518e-05
1.8621647541294806e-05,-0.00010560065129538998,4.0817903936840594e-05,6.818620749982074e-05,-1.2288159268791787e-05,6.909278454259038e-05
3.0446935852523893e-05,-0.00010759474389487877,4.694129529525526e-05,6.381930143106729e-05,-1.880981471913401e-05,6.791382475057617e-05
5.3397863666759804e-05,-0.00010135205957340077,4.8301430069841444e-05,6.006188050378114e-05,-2.0900448362226598e-05,6.715863128192723e-05
6.977753946557641e-05,-8.394040924031287e-05,4.581221583066508e-05,5.3021529311081395e-05,-1.6740021237637848e-05,7.099426147760823e-05
6.604298687307164e-05,-5.768256596638821e-05,4.4429179979488254e-05,4.3184380047023296e-05,-1.142747623816831e-05,8.249906386481598e-05
4.994779374101199e-05,-3.281263343524188e-05,4.3888863729080185e-05,3.146490053040907e-05,-1.0288768862665165e-05,9.51457695919089e-05
3.733587800525129e-05,-1.7656237105256878e-05,3.9942799048731104e-05,2.115878669428639e-05,-9.848112313193269e-06,0.00010066743561765179
2.8509659387054853e-05,-9.95781101664761e-06,3.61098900611978e-05,1.1311191883578431e-05,-9.255936674890108e-06,9.822323772823438e-05
1.8915350665338337e-05,-1.2615016657946398e-06,3.399473280296661e-05,-5.620318574983685e-07,-9.068989129445981e-06,9.401752322446555e-05
1.2297659850446507e-05,9.449856406718027e-06,2.9564607757492922e-05,-5.892044100619387e-06,-6.096538527344819e-06,8.481887198286131e-05
1.0511051186767872e-05,1.4975262274674606e-05,2.3112886992748827e-05,1.5644288851035526e-06,-4.0252638200399815e-07,6.94447080604732e-05
1.1824975445051678e-05,1.386346139042871e-05,1.8716531485551968e-05,1.3324341125553474e-05,3.603524419304449e-06,5.3153198678046465e-05
2.0293373381718993e-05,3.952336101065157e-06,2.113136179104913e-05,2.238896740891505e-05,4.8321544454665855e-06,4.58645517937839e-05
4.028921466669999e-05,-1.367856384604238e-05,2.9589331461465918e-05,2.0393043087096885e-05,1.7789670891943388e-06,5.047097511123866e-05
7.156795618357137e-05,-3.0109564249869436e-05,3.940003443858586e-05,1.1798611922131386e-05,-2.761094947345555e-06,6.302408291958272e-05
9.833147487370297e-05,-4.211465420667082e-05,4.2079911509063095e-05,1.4398003258975223e-05,-6.837656655989122e-06,7.445742812706158e-05
0.00010329431825084612,-5.0258928240509704e-05,3.9126171031966805e-05,3.0273131415015087e-05,-1.0082562766910996e-05,8.10716810519807e-05
8.657974103698507e-05,-5.578541458817199e-05,3.7137149774935097e-05,4.5413169573294e-05,-1.0461306374054402e-05,8.394783799303696e-05
5.8518537116469815e-05,-5.9885434893658385e-05,3.595036832848564e-05,5.117932960274629e-05,-9.136471817328129e-06,8.9151733845938e-05
3.0086812330409884e-05,-5.903632700210437e-05,3.641174771473743e-05,5.117515684105456e-05,-1.0266977369610686e-05,9.855708049144596e-05
7.530225957452785e-06,-5.8208264817949384e-05,3.6886696761939675e-05,5.053255154052749e-05,-1.3118416063662153e-05,9.951611718861386e-05
-6.325443791865837e-06,-6.244879477890208e-05,3.5998262319481e-05,5.655924906022847e-05,-1.095783318305621e-05,8.479132520733401e-05
-1.6441617844975553e-05,-6.618515908485278e-05,3.520686368574388e-05,6.39774079900235e-05,-3.3383862501068506e-06,6.543564086314291e-05
-2.0070130631211214e-05,-6.699706864310429e-05,3.2918123906711116e-05,6.302035762928426e-05,3.266756039010943e-06,5.4389878641813993e-05
-1.3960948308522347e-05,-6.654695607721806e-05,3.153461148031056e-05,5.050227991887368e-05,6.07143829256529e-06,5.2137842430965975e-05
-8.193335361283971e-07,-6.535283318953589e-05,2.88297378574498e-05,2.9206768886069767e-05,8.664990673423745e-06,5.437902655103244e-05
1.067810990207363e-05,-5.970052370685153e-05,2.437714829284232e-05,7.188157269411022e-06,1.0207119885308202e-05,5.5619035265408456e-05
1.8465585526428185e-05,-5.363470336305909e-05,2.116445466526784e-05,-9.426006727153435e-06,9.827425856201444e-06,5.59895379410591e-05
2.1250152713037096e-05,-5.1925027946708724e-05,1.9214570784242824e-05,-1.5600026017636992e-05,7.957219168019947e-06,5.442213296191767e-05
1.8322505638934672e-05,-5.291566776577383e-05,1.916366454679519e-05,-1.1249937415414024e-05,4.119145160075277e-06,4.960893784300424e-05
1.4108038158155978e-05,-5.1772480219369754e-05,2.0388704797369428e-05,-3.5994391964777606e-06,-1.8754964230538462e-06,4.164516576565802e-05
1.3626387044496369e-05,-4.7526973503408954e-05,2.1953414034214802e-05,-3.313558636364178e-06,-7.74246746004792e-06,3.673588435049169e-05
1.8640828784555197e-05,-4.5212593249743804e-05,2.4004652004805394e-05,-8.086881280178204e-06,-1.029630220727995e-05,3.784838190767914e-05
2.4982473405543715e-05,-4.708431879407726e-05,2.5692979761515744e-05,-4.2265819502063096e-06,-8.19319666334195e-06,3.994716826127842e-05
2.7382953703636304e-05,-5.0831888074753806e-05,2.5429457309655845e-05,1.2006271390418988e-05,-6.6722336669045035e-06,4.017873652628623e-05
2.5141649530269206e-05,-5.4123709560371935e-05,2.6533145501161925e-05,2.8299089535721578e-05,-1.0574920452199876e-05,4.099435682292096e-05
2.4601702534710057e-05,-5.5530836107209325e-05,2.8096012101741508e-05,3.886571357725188e-05,-1.4178911442286335e-05,4.228879333822988e-05
2.5112654839176685e-05,-5.41848385182675e-05,2.6475510821910575e-05,4.4098578655393794e-05,-1.2758573575410992e-05,4.6819735871395096e-05
2.504974509065505e-05,-5.462192348204553e-05,2.3992366550373845e-05,4.459591582417488e-05,-6.529311121994397e-06,5.830320515087806e-05
2.292930548719596e-05,-5.797663834528066e-05,2.495321496098768e-05,4.243689909344539e-05,6.906377052473545e-07,7.000301411608234e-05
1.744281871651765e-05,-6.159376789582893e-05,2.474547909514513e-05,4.2185274651274085e-05,2.8393928914738353e-06,7.279508281499147e-05
9.904494618240278e-06,-6.306452996795997e-05,2.0282719560782425e-05,4.530529986368492e-05,2.569948662767274e-07,7.169222953962162e-05
4.547947810351616e-06,-5.9281275753164664e-05,2.050784860330168e-05,4.4234213419258595e-05,-4.918338618153939e-06,8.219586015911773e-05
3.7823810998816043e-06,-5.385959229897708e-05,2.5095027012866922e-05,4.2203588236588985e-05,-6.166475486679701e-06,9.831343777477741e-05
6.022858997312142e-06,-5.384050382417627e-05,2.836332168953959e-05,4.063672531628981e-05,-1.4931854366295738e-06,0.0001045221506501548
7.402048140647821e-06,-5.464367859531194e-05,2.8035950890625827e-05,3.649330756161362e-05,2.114924626539505e-07,0.00010354928235756233
1.1534208169905469e-05,-5.5380864068865776e-05,2.5849551093415357e-05,3.166457827319391e-05,-4.3921177166339476e-06,9.826729365158826e-05
1.6556508853682317e-05,-5.271151167107746e-05,2.697013405850157e-05,3.1349420169135556e-05,-1.2627926480490714e-05,8.879714005161077e-05
1.8653257939149626e-05,-4.935501783620566e-05,2.7528581995284185e-05,2.993527778016869e-05,-1.9548255295376293e-05,7.484457455575466e-05
1.7179165297420695e-05,-5.267217420623638e-05,2.8963355362066068e-05,2.39625387621345e-05,-2.4233529984485358e-05,5.6230288464576006e-05
1.710742071736604e-05,-5.8032925153383985e-05,3.18565835186746e-05,1.743810025800485e-05,-2.5332547011203133e-05,4.063376400154084e-05
2.3061054889694788e-05,-6.09272246947512e-05,3.421098881517537e-05,6.806042620155495e-06,-2.4784998458926566e-05,3.114070204901509e-05
2.6666342819225974e-05,-6.150929402792826e-05,3.6582325265044346e-05,-4.4056359911337495e-06,-2.282448622281663e-05,2.626780951686669e-05
2.36894229601603e-05,-6.347240559989586e-05,3.9306163671426475e-05,-9.720682101033162e-06,-1.9959936253144406e-05,2.5807403289945796e-05
1.875781345006544e-05,-6.398383993655443e-05,3.7543544749496505e-05,-1.1586565960897133e-05,-1.9007235096069053e-05,3.072938125114888e-05
1.7170668797916733e-05,-6.247746932785958e-05,3.2807281968416646e-05,-1.6818856238387525e-05,-1.9351684386492707e-05,3.8430709537351504e-05
1.6061307178460993e-05,-6.269164441619068e-05,2.8620779630728066e-05,-2.6228235583403148e-05,-2.061837585642934e-05,4.487179103307426e-05
1.6404830603278242e-05,-6.63494283799082e-05,2.518125438655261e-05,-3.4706565202213824e-05,-2.0553490685415454e-05,5.336457979865372e-05
2.144753307220526e-05,-7.013921276666224e-05,2.4640292394906282e-05,-3.790887421928346e-05,-1.750197225192096e-05,6.9806155806873e-05
2.7334337573847733e-05,-7.037240720819682e-05,2.6485195121495053e-05,-3.8051221054047346e-05,-1.4852643289486878e-05,9.305600542575121e-05
3.785696753766388e-05,-6.660613871645182e-05,2.8703827410936356e-05,-3.627588375820778e-05,-1.5527100913459435e-05,0.00011078456736868247
6.585004302905872e-05,-6.524524360429496e-05,3.0608138331444934e-05,-2.8926695449627005e-05,-1.556064307806082e-05,0.00010758599819382653
0.0001001183336484246,-6.675695476587862e-05,3.0302326194941998e-05,-1.8666045434656553e-05,-1.0627022675180342e-05,8.255311695393175e-05
0.0001126281131291762,-6.330176984192804e-05,2.6779056497616693e-05,-6.511286755994661e-06,-2.872928916985984e-06,4.3757969251601025e-05
0.00010594731429591775,-5.747830800828524e-05,2.7557249268284068e-05,8.625793270766735e-06,1.4692639069835423e-06,-8.55092002893798e-06
0.00010731391375884414,-5.961773786111735e-05,3.1760180718265474e-05,2.71481567324372e-05,1.5354868310168968e-06,-5.4377516789827496e-05
0.00011886734137078747,-6.763617420801893e-05,3.693713006214239e-05,5.975680687697604e-05,-1.714766199256701e-06,-5.1795559556921944e-05
0.00011162635200889781,-6.796050001867115e-05,4.221550625516102e-05,0.00010591709724394605,-5.70644579056534e-06,-4.209937742416514e-06
6.078500155126676e-05,-5.8162480854662135e-05,4.643890497391112e-05,0.00015468480705749243,-1.1779548913182225e-05,4.813865962205455e-05
-7.949598511913791e-06,-4.895103847957216e-05,4.574397098622285e-05,0.00018322477990295738,-1.628782592888456e-05,7.048718543956056e-05
-5.505731678567827e-05,-4.574440390570089e-05,4.235271262587048e-05,0.0001806246000342071,-1.5639847333659418e-05,7.123516843421385e-05
-6.922177999513224e-05,-4.135734707233496e-05,4.008687392342836e-05,0.00015373855421785265,-1.2541892829176504e-05,7.047178223729134e-05
-6.929735536687076e-05,-3.185153764206916e-05,3.5314202250447124e-05,0.00011057467054342851,-1.0260507224302273e-05,6.30698777968064e-05
-7.638634269824252e-05,-1.5024913409433793e-05,2.6528357921051793e-05,7.277495751623064e-05,-8.049724783631973e-06,5.418195723905228e-05
-7.58613387006335e-05,3.462240101725911e-06,2.0051298633916304e-05,5.741684071836062e-05,-4.303200967115117e-06,4.682831058744341e-05
-5.865515777259134e-05,9.761285582499113e-06,2.097008837154135e-05,6.162239151308313e-05,-5.277686796034686e-06,4.363835250842385e-05
-3.326627120259218e-05,2.792696250253357e-06,2.6543917556409724e-05,6.964217755012214e-05,-8.962857464211993e-06,4.795987842953764e-05
-1.775732744135894e-05,-5.235649496171391e-06,3.053719410672784e-05,7.67494784668088e-05,-9.869756468106061e-06,5.905789294047281e-05
-1.4639233086199965e-05,-8.982356121123303e-06,2.987155858136248e-05,8.318282198160887e-05,-7.891848326835316e-06,6.979689351283014e-05
-1.2072485333192162e-05,-1.2175588381069247e-05,3.1433330150321126e-05,9.089069499168545e-05,-7.208318493212573e-06,8.032120240386575e-05
-2.7369401323085185e-06,-1.808724664442707e-05,3.811467831837945e-05,9.429402416571975e-05,-9.187247087538708e-06,8.960055856732652e-05
1.0249863407807425e-05,-2.5802823074627668e-05,4.559369699563831e-05,8.763493678998202e-05,-1.0130122973350808e-05,9.520244202576578e-05
2.2488611648441292e-05,-3.090954487561248e-05,4.7389148676302284e-05,6.427302287193015e-05,-8.181610610336065e-06,9.08603542484343e-05
2.85108126263367e-05,-3.2839707273524255e-05,4.142651232541539e-05,3.211045259376988e-05,-7.803840162523557e-06,7.591320900246501e-05
2.6422738301334903e-05,-3.366624150658026e-05,3.4656000934774056e-05,9.930608030117583e-06,-1.0660717634891625e-05,6.240532820811495e-05
2.0185867469990626e-05,-3.5516357456799597e-05,3.2235308026429266e-05,-3.0252467695390806e-06,-1.136332139139995e-05,5.72865828871727e-05
1.2080006854375824e-05,-3.75718082068488e-05,3.2924319384619594e-05,-1.7284752175328322e-05,-9.251386472897138e-06,5.209723167354241e-05
5.077398782304954e-06,-3.8274283724604174e-05,3.3788201108109206e-05,-3.0173989216564223e-05,-7.583207661809865e-06,3.890126390615478e-05
2.779879196168622e-06,-3.992061101598665e-05,3.5002525692107156e-05,-3.2744752388680354e-05,-8.035491191549227e-06,3.020012445631437e-05
7.629561878275126e-06,-4.4604603317566216e-05,3.4128835977753624e-05,-2.7663963919621892e-05,-1.2024672287225258e-05,3.1658069929108024e-05
1.2665604117501061e-05,-4.898284896626137e-05,2.941401362477336e-05,-2.3629230781807564e-05,-1.5943356629577465e-05,3.582739009289071e-05
1.85589051397983e-05,-5.1767437980743125e-05,2.5683182684588246e-05,-2.3923470507725142e-05,-1.392749254591763e-05,3.732254117494449e-05
2.3560967747471295e-05,-5.3164105338510126e-05,2.77719009318389e-05,-2.5152097805403173e-05,-1.0238392860628664e-05,3.9223767089424655e-05
2.774477434286382e-05,-5.199722363613546e-05,3.463773464318365e-05,-2.520535417716019e-05,-1.0208316780335736e-05,4.193521453998983e-05
2.9194947273936123e-05,-5.238113590166904e-05,4.201212868792936e-05,-1.6732741642044857e-05,-9.952100299415179e-06,4.261176582076587e-05
2.1431309505715035e-05,-5.2687362767755985e-05,4.459630144992843e-05,-3.2007008599066467e-07,-8.977812285593245e-06,3.686204581754282e-05
1.7995429516304284e-05,-5.348898412194103e-05,4.21410622948315e-05,1.0217526323685888e-05,-9.963767297449522e-06,4.1823062929324806e-05
2.691546978894621e-05,-5.8702520618680865e-05,4.16240727645345e-05,2.5379465569130844e-06,-1.1457321306806989e-05,6.112372648203745e-05
3.75879681087099e-05,-6.423884042305872e-05,4.242554132360965e-05,-1.7310394468950108e-05,-1.2381215128698386e-05,8.14996674307622e-05
4.28031271439977e-05,-7.04665289958939e-05,4.1714461985975504e-05,-3.391651625861414e-05,-1.238473578268895e-05,9.91841807262972e-05
4.178575545665808e-05,-7.746215123916045e-05,3.8094978663139045e-05,-3.039436342078261e-05,-1.2446796972653829e-05,0.00010532644955674186
4.079197606188245e-05,-8.258759771706536e-05,3.5167013265891e-05,-5.9734497881436255e-06,-1.061713646777207e-05,0.00010219013347523287
3.4881515603046864e-05,-8.101445564534515e-05,3.374959487700835e-05,1.859971962403506e-05,-6.8102367549727205e-06,0.00010226949962088838
1.9144239558954723e-05,-7.086234109010547e-05,3.475366611382924e-05,1.879392220871523e-05,-6.287250016612234e-06,0.00010749198554549366
4.602697117661592e-06,-5.738512481912039e-05,3.5739143640967086e-05,-2.9136970169929555e-07,-1.1216820894333068e-05,0.00010715930693550035
2.6873087790590944e-06,-5.010898530599661e-05,3.2161729905055836e-05,-1.0565222510194872e-05,-1.6567855709581636e-05,9.256369230570272e-05
1.045408225763822e-05,-4.802928015124053e-05,2.7360525564290583e-05,4.8257420530717354e-06,-1.7442513126297854e-05,6.249287253012881e-05
1.5301709936466068e-05,-4.790975071955472e-05,2.3306969524128363e-05,3.032965469174087e-05,-1.6426680303993635e-05,2.7152205802849494e-05
1.2268284990568645e-05,-4.904439992969856e-05,2.2633312255493365e-05,4.5513159420806915e-05,-1.7950882465811446e-05,4.950352376908995e-06
6.692806437058607e-06,-4.9687976570567116e-05,2.4401224436587654e-05,4.886500755674206e-05,-2.199296977778431e-05,2.9837888178008143e-06
5.787818281532964e-06,-5.245335341896862e-05,2.535345447540749e-05,5.3049410780658945e-05,-2.4725684852455743e-05,1.7419199139112607e-05
1.7059544916264713e-05,-5.7753350120037794e-05,2.5819494112511165e-05,7.144941628212109e-05,-2.0752546333824284e-05,4.424107464728877e-05
4.189169339952059e-05,-6.300763925537467e-05,3.090948302997276e-05,9.737147047417238e-05,-1.1717082088580355e-05,7.38476519472897e-05
6.688004941679537e-05,-6.550754187628627e-05,3.909680526703596e-05,0.0001133001278503798,-5.857349606230855e-06,9.704492549644783e-05
7.335134432651103e-05,-6.747797306161374e-05,4.4124983105575666e-05,0.00010678618855308741,-7.954859938763548e-06,0.00010755732364486903
5.8292713219998404e-05,-7.006093073869124e-05,4.281025394448079e-05,8.231975516537204e-05,-1.7065918655134737e-05,0.00010048911644844338
3.623912562034093e-05,-7.223258580779657e-05,3.896333146258257e-05,5.8627341786632314e-05,-2.6535366487223655e-05,7.90293124737218e-05
2.003219742618967e-05,-6.877625855850056e-05,3.4581422369228676e-05,5.3026433306513354e-05,-3.0175147912814282e-05,5.624105324386619e-05
1.2815803529520053e-05,-5.919421892031096e-05,3.237479904782958e-05,6.376222881954163e-05,-2.938278157671448e-05,3.703255788423121e-05
4.425795395945897e-06,-5.218560909270309e-05,3.6510424251900986e-05,7.50436374801211e-05,-2.5080302293645218e-05,1.5250277101586107e-05
-1.1560355233086739e-05,-5.535053423955105e-05,3.979678876930848e-05,7.274282688740641e-05,-1.3589967238658573e-05,-2.2122685550129972e-06
-1.7211374142789282e-05,-6.696734635625035e-05,3.851860310533084e-05,6.388682959368452e-05,1.185199707265383e-07,-3.3983412777160993e-06
3.1461640901397914e-06,-7.603791891597211e-05,3.7196594348642975e-05,4.953493407811038e-05,1.1529826224432327e-05,1.600431278347969e-05
2.806632619467564e-05,-7.580013334518299e-05,3.621084033511579e-05,2.900500658142846e-05,1.8152150005334988e-05,5.041617987444624e-05
4.257768523530103e-05,-7.532189920311794e-05,3.5990749893244356e-05,1.4832721717539243e-05,1.8778580852085724e-05,7.937521149870008e-05
5.580115976044908e-05,-7.469524280168116e-05,3.6705492675537243e-05,6.807495083194226e-06,1.6998643332044594e-05,9.738696098793298e-05
7.305980398086831e-05,-6.901280721649528e-05,3.3039752452168614e-05,-9.473940735915676e-06,1.233565308211837e-05,0.00011305765656288713
8.976203389465809e-05,-5.7802597439149395e-05,2.7857933673658408e-05,-4.2594783735694364e-05,5.880512617295608e-06,0.00012597722525242716
0.00010183508857153356,-4.6851011575199664e-05,2.3921042156871408e-05,-6.40014695818536e-05,-3.794718139715769e-08,0.00012006123142782599
9.64798018685542e-05,-4.174973946646787e-05,2.079394835163839e-05,-4.252213329891674e-05,-7.55288340315019e-07,7.952265877975151e-05
6.121838669059798e-05,-3.422027293709107e-05,2.0963345377822407e-05,-5.505053195520304e-06,2.0313268578320276e-06,1.0173085684073158e-05
1.668768709350843e-05,-2.4168490199372172e-05,2.3670880182180554e-05,1.6949079508776776e-05,1.8218491959487437e-06,-7.70332699175924e-05
-9.482905625191052e-06,-2.183073593187146e-05,2.6108584279427305e-05,2.544906601542607e-05,-8.22879542283772e-07,-0.00014156513498164713
-1.1563733096409123e-05,-2.915111144830007e-05,2.8940363336005248e-05,3.1995197787182406e-05,-3.604288167480263e-06,-0.00013247840979602188
-3.291694611107232e-06,-3.833996379398741e-05,3.120092878816649e-05,4.016232196590863e-05,-5.1565411922638305e-06,-5.831569797010161e-05
6.543868494190974e-06,-4.455430826055817e-05,3.247366475989111e-05,4.562209505820647e-05,-6.623562967433827e-06,2.3879425498307683e-05
1.3630690773425158e-05,-4.400048419483937e-05,3.3243799407500774e-05,4.526839984464459e-05,-9.071401109395083e-06,7.1804053732194e-05
1.6912210412556306e-05,-3.923362964997068e-05,3.373103390913457e-05,4.3135059968335554e-05,-1.1435055057518184e-05,8.736076415516436e-05
1.6179967133211903e-05,-3.178370388923213e-05,3.631338040577248e-05,3.9989445212995633e-05,-1.3603459592559375e-05,9.523178596282378e-05
1.0881224625336472e-05,-2.0587360268109478e-05,4.029428237117827e-05,2.0947041775798425e-05,-1.7676171410130337e-05,0.00010846010263776407
6.2373082982958294e-06,-1.0647179806255735e-05,4.012312274426222e-05,-1.4016796740179416e-05,-1.9887625967385247e-05,0.00011606260522967204
8.901321962184738e-06,-9.776275874173734e-06,3.259862933191471e-05,-4.327992792241275e-05,-1.4781192476220895e-05,0.00010913618461927399
1.7701035176287405e-05,-1.5959703887347132e-05,2.455754656693898e-05,-5.364659955375828e-05,-4.194242592348019e-06,9.470668010180816e-05
2.551082434365526e-05,-2.369606045249384e-05,2.1023539375164546e-05,-5.173731915419921e-05,1.2165340876890696e-06,8.091591007541865e-05
4.123663893551566e-05,-3.16256373480428e-05,2.0759147446369752e-05,-4.0306658775079995e-05,-9.77206468633085e-07,6.671861046925187e-05
8.949227049015462e-05,-3.817248216364533e-05,2.460144241922535e-05,-1.8046681361738592e-05,-1.91092681234295e-06,4.8898695240495726e-05
0.00015806777810212225,-4.292869198252447e-05,3.3037762477761135e-05,1.2421780411386862e-05,-8.831135573927895e-07,3.29003669321537e-05
0.000190560138435103,-4.777363938046619e-05,4.0646380512043834e-05,3.849465065286495e-05,-1.873189148682286e-06,2.3719825549051166e-05
0.00016675771621521562,-5.538093682844192e-05,4.2467901948839426e-05,4.649335824069567e-05,-3.3805974908318603e-06,2.176004090870265e-05
0.00010605689021758735,-6.410265632439405e-05,3.7846926716156304e-05,4.4420983613235876e-05,-8.507722668582574e-06,3.0809045711066574e-05
4.7981262468965724e-05,-7.03547993907705e-05,3.0130389859550633e-05,4.6489363739965484e-05,-1.651137245062273e-05,4.747491766465828e-05
2.9793973226333037e-06,-7.580062083434314e-05,2.6854399038711563e-05,4.887357499683276e-05,-1.9224429706810042e-05,5.993548620608635e-05
-5.332971704774536e-05,-7.632130291312933e-05,2.8813807148253545e-05,5.1071212510578334e-05,-1.898836126201786e-05,6.253610627027228e-05
-0.00011125335731776431,-6.816782843088731e-05,2.9772150810458697e-05,5.55591905140318e-05,-1.7008653230732307e-05,6.913852848811075e-05
-0.00012547540245577693,-5.876072827959433e-05,3.1268111342797056e-05,6.49806170258671e-05,-1.5844045265112072e-05,8.955234079621732e-05
-8.769697160460055e-05,-4.5580556616187096e-05,3.316910442663357e-05,6.892596138641238e-05,-1.4511659173876978e-05,0.00011450362944742665
-5.1428367441985756e-05,-2.8231348551344126e-05,3.24747888953425e-05,6.360004044836387e-05,-1.356830671284115e-05,0.00012972101103514433
-4.422601341502741e-05,-1.2219295967952348e-05,3.304267374915071e-05,5.7133664085995406e-05,-1.5750340025988407e-05,0.00013030535774305463
-4.954043834004551e-05,-6.858936103526503e-06,3.5764289350481704e-05,4.955620534019545e-05,-1.8495360563974828e-05,0.00011668476508930326
-4.713772432296537e-05,-1.4122411812422797e-05,3.691807432915084e-05,3.8092090107966214e-05,-2.353531090193428e-05,9.784445137483999e-05
-3.257583375670947e-05,-2.43233243963914e-05,3.710045712068677e-05,2.5861410904326476e-05,-2.7774187401519157e-05,8.124624582706019e-05
-1.3117273738316726e-05,-2.877354017982725e-05,3.519437086652033e-05,1.9127712221234106e-05,-2.7735482944990508e-05,6.947515066713095e-05
1.1390552572265733e-06,-2.9072129109408706e-05,3.1236053473548964e-05,1.5549318050034344e-05,-2.5929233743227087e-05,6.951117393327877e-05
7.70127462601522e-06,-3.434414975345135e-05,3.0079334464971907e-05,1.1925119906663895e-05,-2.4905386453610845e-05,7.74130821810104e-05
1.0766917512228247e-05,-4.551452002488077e-05,3.114766877843067e-05,7.901071512605995e-06,-2.3618749764864333e-05,8.752081339480355e-05
1.6659680113662034e-05,-5.7743731304071844e-05,3.1050603865878657e-05,7.306273346330272e-06,-2.1627309251925908e-05,0.0001006472812150605
2.948180917883292e-05,-6.614635640289634e-05,3.1578787456965074e-05,1.249192064278759e-05,-1.9744325982173905e-05,0.00011933882342418656
4.077215271536261e-05,-6.861574365757406e-05,3.4547410905361176e-05,2.142254015780054e-05,-1.679002889432013e-05,0.00013917722390033305
4.153042027610354e-05,-6.7136250436306e-05,3.535587165970355e-05,2.4614337235107087e-05,-1.2607774806383532e-05,0.00014927783922757953
3.619747803895734e-05,-6.690429290756583e-05,3.045179255423136e-05,1.683530535956379e-05,-1.2201107892906293e-05,0.0001452548458473757
3.1298823159886524e-05,-6.670094444416463e-05,2.3890230295364745e-05,5.258150395093253e-06,-2.1677176846424118e-05,0.00013184853014536202
2.5312738216598518e-05,-6.2415303546004e-05,2.340377432119567e-05,5.280062850943068e-06,-4.0334944060305133e-05,0.00010343403846491128
1.4508296771964524e-05,-5.42737907380797e-05,2.9715591153944843e-05,2.1814190404256806e-05,-5.7309105613967404e-05,6.258673965930939e-05
7.0613059506285936e-06,-4.712981535703875e-05,3.68514156434685e-05,4.8609625082463026e-05,-6.489695806521922e-05,2.8022130209137686e-05
1.4080334040045273e-05,-4.465837628231384e-05,3.73584553017281e-05,7.387356890831143e-05,-6.776639929739758e-05,1.453168715670472e-05
2.222896000603214e-05,-4.526042175712064e-05,3.3440475817769766e-05,8.63104360178113e-05,-7.00318778399378e-05,1.9656281438074075e-05
2.041426887444686e-05,-4.192602136754431e-05,3.276847201050259e-05,8.658111619297415e-05,-6.050897718523629e-05,2.720363590924535e-05
1.3767235031991731e-05,-3.798641773755662e-05,3.162782741128467e-05,7.66119992476888e-05,-4.011297278339043e-05,1.4811871551501099e-05
1.062903265847126e-05,-3.8540700188605115e-05,2.6681913368520327e-05,6.528936501126736e-05,-2.1949357687844895e-05,-8.877160325937439e-06
1.2465227882785257e-05,-4.3464544432936236e-05,2.1962090613669716e-05,6.390419730450958e-05,-5.245227612249437e-07,-1.3495314306055661e-05
1.772182440618053e-05,-5.4123633162816986e-05,2.0487950678216293e-05,6.920014857314527e-05,2.858347761502955e-05,2.3258498913492076e-06
2.0858411517110653e-05,-6.19070851826109e-05,1.8226219253847376e-05,7.145530980778858e-05,5.523016443476081e-05,1.801584403438028e-05
1.923228774103336e-05,-6.574817234650254e-05,1.2336891813902184e-05,5.881608012714423e-05,6.760441465303302e-05,2.1855130398762412e-05
1.777165562089067e-05,-6.951642717467621e-05,1.0244753866572864e-05,3.532598202582449e-05,6.899861182319e-05,2.902315645769704e-05
1.9057601093663834e-05,-7.010002445895225e-05,1.4587732039217371e-05,1.5373812857433222e-05,6.537001172546297e-05,4.0871866076486185e-05
2.2000260287313722e-05,-6.535245483973995e-05,2.1885645764996298e-05,3.6637434277508873e-06,5.792675437987782e-05,5.06326905451715e-05
2.4953684260253794e-05,-5.92234282521531e-05,2.7116066121379845e-05,-1.7272611785301706e-06,4.592164259520359e-05,5.6354128901148215e-05
2.900082472478971e-05,-5.6551347370259464e-05,2.850185956049245e-05,-4.721228378912201e-06,3.1063504138728604e-05,6.076361387385987e-05
3.183697481290437e-05,-5.591922308667563e-05,2.85641635855427e-05,-1.12007292045746e-05,1.8364653442404233e-05,6.484042387455702e-05
3.3483145671198145e-05,-5.1519422413548455e-05,2.8209462470840663e-05,-1.9743478333111852e-05,8.709328540135175e-06,6.722482066834345e-05
3.398572880541906e-05,-4.353119948063977e-05,2.733865585469175e-05,-2.2661983166472055e-05,-9.497573927319536e-08,7.000118057476357e-05
3.2781328627606854e-05,-3.991567427874543e-05,2.6005294785136357e-05,-1.8322933101444505e-05,-9.209515155816916e-06,7.368607475655153e-05
3.222441591788083e-05,-4.3379961425671354e-05,2.545047209423501e-05,-1.0601202120597009e-05,-1.83120555448113e-05,7.889730477472767e-05
3.373063009348698e-05,-5.042915654485114e-05,2.7704685635399073e-05,-2.2801418708695564e-06,-2.689242501219269e-05,8.18987246020697e-05
3.65283849532716e-05,-5.813624011352658e-05,3.3962540328502655e-05,7.385815933957929e-06,-3.593383735278621e-05,8.179709402611479e-05
3.9250760892173275e-05,-6.296968058450148e-05,4.1310006054118276e-05,1.8995791833731346e-05,-5.0072605517925695e-05,7.857739547034726e-05
3.938690133509226e-05,-6.332310294965282e-05,4.6722529077669606e-05,3.2924028346315026e-05,-6.221783405635506e-05,7.721005385974422e-05
3.779989492613822e-05,-6.0782294895034283e-05,4.8405716370325536e-05,4.709226413979195e-05,-6.0267309891059995e-05,7.877611642470583e-05
3.5564477002481e-05,-5.5253411119338125e-05,4.542557871900499e-05,6.139183096820489e-05,-4.7077799536054954e-05,8.043779962463304e-05
3.382289651199244e-05,-5.049995525041595e-05,4.097281998838298e-05,7.667661702726036e-05,-3.3183216146426275e-05,8.112096111290157e-05
3.118265522061847e-05,-4.995820199837908e-05,4.130982415517792e-05,8.777715265750885e-05,-2.4296714400406927e-05,7.662188727408648e-05
2.738515286182519e-05,-5.0654136430239305e-05,4.447363971848972e-05,8.977402467280626e-05,-1.9027038433705457e-05,7.035910675767809e-05
2.7334517653798684e-05,-4.978806464350782e-05,4.4174681534059346e-05,8.607669587945566e-05,-1.2366221199044958e-05,6.655269680777565e-05
3.343643038533628e-05,-4.873075522482395e-05,3.863861638819799e-05,6.969681271584705e-05,-4.045438799948897e-06,6.147590465843678e-05
3.96215109503828e-05,-4.835541039938107e-05,2.9595341402455233e-05,4.5129869249649346e-05,7.181494765973184e-06,5.6619130191393197e-05
4.135289054829627e-05,-4.780633025802672e-05,2.4784931156318635e-05,2.6528901798883453e-05,1.7840107830124907e-05,5.5781318224035203e-05
4.0196442569140345e-05,-4.734948743134737e-05,2.762797703326214e-05,1.834105933085084e-05,2.381069862167351e-05,5.986201358609833e-05
4.0326696762349457e-05,-4.882138819084503e-05,3.228292553103529e-05,1.920323120430112e-05,2.753167791524902e-05,6.052854223526083e-05
4.338427970651537e-05,-4.950062793795951e-05,3.335262226755731e-05,2.1335199562599882e-05,2.8273854695726186e-05,5.2789411711273715e-05
4.125821214984171e-05,-4.877044557360932e-05,3.357957393745892e-05,2.4355324057978578e-05,2.7016607418772765e-05,4.081885708728805e-05
3.3756856282707304e-05,-5.129650890012272e-05,3.403334994800389e-05,2.60736469499534e-05,2.838489854184445e-05,3.33116804540623e-05
2.7833621061290614e-05,-5.54889629711397e-05,3.3193122362717986e-05,2.5731607820489444e-05,3.196475518052466e-05,3.9262118662009016e-05
2.657481309142895e-05,-5.770110510638915e-05,3.2367352105211467e-05,2.3776265152264386e-05,3.0740808142581955e-05,5.8960395108442754e-05
2.5042589186341502e-05,-5.7518092944519594e-05,3.1824412872083485e-05,2.1520765585592017e-05,2.2216596335056238e-05,8.011286990949884e-05
2.565481190686114e-05,-5.6717941333772615e-05,3.432568337302655e-05,2.2851842004456557e-05,1.2539369890873786e-05,9.17143261176534e-05
3.321664553368464e-05,-5.751292337663472e-05,3.900885712937452e-05,2.794653300952632e-05,4.759408056997927e-06,9.603984653949738e-05
4.8751004214864224e-05,-6.128827953943983e-05,4.326013367972337e-05,3.027788807230536e-05,-4.473146418604301e-06,9.561426122672856e-05
6.539058813359588e-05,-6.620911881327629e-05,4.530533624347299e-05,2.7887812393601052e-05,-1.280032483919058e-05,8.618960418971255e-05
6.962805491639301e-05,-6.929663504706696e-05,4.3286592699587345e-05,2.4307681087520905e-05,-1.5919948054943234e-05,6.387108442140743e-05
6.11595023656264e-05,-7.050504791550338e-05,3.809379632002674e-05,1.9597260688897222e-05,-1.4461817045230418e-05,4.236392123857513e-05
4.5899087126599625e-05,-7.028716208878905e-05,3.315648064017296e-05,1.1735366570064798e-05,-1.3109107385389507e-05,3.8852642319398e-05
2.421612953185104e-05,-6.566420779563487e-05,3.045548510272056e-05,2.6921495646092808e-06,-1.4422976164496504e-05,5.057919770479202e-05
-5.9643566601153e-06,-5.444356065709144e-05,2.9997572710271925e-05,-2.687608684937004e-06,-1.8554383132141083e-05,5.771391079179011e-05
-3.1024876079754904e-05,-4.024958980153315e-05,2.995365321112331e-05,-3.791482413362246e-06,-2.2377596906153485e-05,4.3837313569383696e-05
-3.204886525054462e-05,-3.081939212279394e-05,2.704234611883294e-05,-8.988075705929077e-07,-2.414190021227114e-05,1.631085979170166e-05
-1.3793302969133947e-05,-2.8157373890280724e-05,2.20898691623006e-05,3.286399078206159e-06,-2.2883692508912645e-05,-3.7325371522456408e-06
3.127508989564376e-07,-2.8924201615154743e-05,1.8124286725651473e-05,4.137326413911069e-06,-1.754437107592821e-05,-7.562613063782919e-06
1.8587417116577853e-06,-2.8706495868391357e-05,1.6689275071257725e-05,-9.753767926667933e-07,-1.1172029189765453e-05,-2.6286570573574863e-06
5.089103751743096e-07,-2.789196150843054e-05,1.5764257113914937e-05,-9.085815690923482e-06,-7.043296136544086e-06,5.981324648018926e-06
4.236097538523609e-06,-3.00161300401669e-05,1.3920057426730637e-05,-2.152505658159498e-05,-6.116794793342706e-06,2.292385761393234e-05
1.0842655683518387e-05,-3.469243529252708e-05,1.8223043298348784e-05,-2.5367115085828118e-05,-5.9822600633197e-06,4.108355278731324e-05
1.9358942154212855e-05,-3.9032642234815285e-05,2.654324816830922e-05,-5.537654487852706e-06,-2.495689841452986e-06,4.553185499389656e-05
2.588622555776965e-05,-4.386436194181442e-05,2.692042471608147e-05,1.975738450710196e-05,2.570932110756985e-06,3.0878556572133675e-05
2.7632171622826718e-05,-4.780075323651545e-05,2.5715849915286526e-05,4.051302676089108e-05,1.2809592817575322e-06,2.2206582798389718e-05
2.7180296456208453e-05,-4.688097760663368e-05,2.8482472771429457e-05,6.193300214363262e-05,-4.731542048830306e-06,2.935163865913637e-05
2.5088513211812824e-05,-4.736056871479377e-05,2.9559540053014643e-05,7.493481098208576e-05,-1.0708232366596349e-05,2.9598564651678316e-05
2.3105587388272397e-05,-5.2003619202878326e-05,2.6116196750081144e-05,7.499935600208119e-05,-1.4671269127575215e-05,2.768465674307663e-05
2.326405592611991e-05,-6.031466546119191e-05,2.2761027139495127e-05,7.191971963038668e-05,-1.7594205928617157e-05,3.772351556108333e-05
2.761060750344768e-05,-7.036958413664252e-05,2.366011540289037e-05,7.950453436933458e-05,-1.9126142433378845e-05,5.3844898502575234e-05
3.385060335858725e-05,-7.803150947438553e-05,2.7214016881771386e-05,9.811913332669064e-05,-1.92657043953659e-05,6.01573774474673e-05
3.9046244637575e-05,-7.607006409671158e-05,3.3677133615128696e-05,0.00011894029012182727,-1.950580372067634e-05,5.5375774536514655e-05
3.909864972229116e-05,-6.585079245269299e-05,4.074753087479621e-05,0.00013411800318863243,-2.150641375919804e-05,5.270698238746263e-05
3.2734169508330524e-05,-5.528731344384141e-05,4.65518533019349e-05,0.00013587147986982018,-2.5133580493275076e-05,6.329762254608795e-05
2.4153947379090823e-05,-4.762386379297823e-05,5.054274151916616e-05,0.00012415097444318235,-2.908825445047114e-05,8.703892672201619e-05
1.8264781829202548e-05,-4.246590833645314e-05,5.104583397042006e-05,0.00010041979112429544,-3.309072053525597e-05,0.0001081162627087906
1.748251452227123e-05,-3.896258567692712e-05,4.705928222392686e-05,7.191775512183085e-05,-3.389607445569709e-05,0.000112842237285804
2.010867501667235e-05,-3.904753248207271e-05,4.031010757898912e-05,4.987757347407751e-05,-3.064559859922156e-05,0.00010131846647709608
2.200863127654884e-05,-4.131979585508816e-05,3.508412919472903e-05,3.807032771874219e-05,-2.6802859792951494e-05,8.388395508518443e-05
2.0053879779879935e-05,-4.2610441596480086e-05,3.3733515010681e-05,3.531827678671107e-05,-2.4468565243296325e-05,7.126273703761399e-05
1.447524300601799e-05,-4.182527118246071e-05,3.405786628718488e-05,3.8320504245348275e-05,-2.365200998610817e-05,5.91119060118217e-05
1.0770833796414081e-05,-4.062390871695243e-05,3.3848333259811625e-05,4.400579200591892e-05,-2.3084692656993866e-05,3.5974349884781986e-05
1.254623566637747e-05,-3.986624869867228e-05,3.3943688322324306e-05,5.1878869271604344e-05,-2.110691821144428e-05,9.864305866358336e-06
1.63341192092048e-05,-4.039015402668156e-05,3.222438317607157e-05,5.320948184817098e-05,-2.0036182831972837e-05,-9.582198572388734e-07
1.5865387467783876e-05,-4.2398867662996054e-05,3.2120326068252325e-05,4.4717824494000524e-05,-1.6955511455307715e-05,7.908093721198384e-06
1.3750965081271715e-05,-4.5685668737860397e-05,3.614601882873103e-05,3.762845881283283e-05,-9.17764009500388e-06,2.5534916858305223e-05
1.4651175661128946e-05,-4.957297278451733e-05,4.022466600872576e-05,3.249424116802402e-05,-3.1736640266899485e-06,4.220112896291539e-05
1.768770562193822e-05,-5.0704224122455344e-05,4.4382795749697834e-05,2.5137365810223855e-05,-3.511119984977995e-06,5.82833745284006e-05
2.251465411973186e-05,-5.092932769912295e-05,4.4018346670782194e-05,2.0522127670119517e-05,-9.593196409696247e-06,7.589494634885341e-05
2.3930888346512802e-05,-5.5033578973961994e-05,3.585074227885343e-05,1.6566809790674597e-05,-1.192176750919316e-05,8.668564987601712e-05
2.1051395378890447e-05,-5.928289465373382e-05,2.9047483621980064e-05,1.2625831914192531e-05,-7.76689648773754e-06,8.577336120652035e-05
1.6669791875756346e-05,-6.37314296909608e-05,2.8023310733260587e-05,9.933793080563191e-06,-6.8322178776725195e-06,7.89048572187312e-05
2.287121969857253e-05,-6.77838470437564e-05,2.585349830042105e-05,5.281031462800456e-06,-9.393171239935327e-06,7.344374171225354e-05
3.905971607309766e-05,-6.92701869411394e-05,2.405402483418584e-05,1.4578016589439358e-06,-1.234484625456389e-05,7.137148350011557e-05
4.8618032451486215e-05,-6.655720790149644e-05,2.345540633541532e-05,-1.650694798627228e-06,-1.5149612409004476e-05,5.765950118075125e-05
4.720090873888694e-05,-6.426211621146649e-05,2.348295492993202e-05,-1.9387239262869116e-06,-1.9694374714163132e-05,4.102069578948431e-05
3.669836951303296e-05,-6.119971658335999e-05,2.67931154667167e-05,2.4232424493675353e-06,-1.9377272110432386e-05,4.222740972181782e-05
2.3615228201379068e-05,-5.687743396265432e-05,3.11138792312704e-05,6.411570211639628e-06,-1.4108255527389701e-05,5.5656852055108175e-05
1.0474197551957332e-05,-5.475227226270363e-05,3.1707179005024955e-05,3.3257406357734e-06,-9.37929598876508e-06,6.274494808167219e-05
-1.6918243090913165e-06,-5.3249354095896706e-05,2.787596167763695e-05,-2.980613771796925e-06,-9.01389830687549e-06,6.393982766894624e-05
-1.2429435628291685e-05,-4.9606631364440545e-05,2.4428984033875167e-05,-3.97296480514342e-06,-1.2113309821870644e-05,6.671578012173995e-05
-1.579948548169341e-05,-4.409041503095068e-05,2.3422846425091848e-05,7.109763373591704e-06,-1.4561561329173855e-05,7.0932277594693e-05
-8.817716661724262e-06,-4.2087405745405704e-05,2.4691773433005437e-05,2.4794780983938836e-05,-1.6689866242813878e-05,7.068322884151712e-05
9.559221325616818e-07,-4.338278085924685e-05,2.4773542463663034e-05,3.2995267247315496e-05,-1.895480090752244e-05,6.774940266041085e-05
7.312517027457943e-06,-4.621718835551292e-05,2.2108375560492277e-05,2.4945773475337774e-05,-2.0817751646973193e-05,7.141016976675019e-05
1.1534621080500074e-05,-4.590069147525355e-05,2.0892543034278788e-05,8.282704584416933e-06,-1.8240014469483867e-05,8.102850551949814e-05
1.5342720871558413e-05,-4.414595241541974e-05,2.5188830477418378e-05,-4.473302396945655e-06,-1.2360867913230322e-05,8.901231194613501e-05
1.9257826352259144e-05,-4.411015834193677e-05,3.111833211733028e-05,-7.943264790810645e-06,-6.523671800096054e-06,8.438163786195219e-05
2.440831121930387e-05,-4.856260784436017e-05,3.2479696528753266e-05,-4.188831553619821e-06,-5.155111466592643e-06,6.831677455920726e-05
2.6515550416661426e-05,-5.6087486882461235e-05,3.076981010963209e-05,-8.034791676436726e-07,-7.935725079732947e-06,4.983549297321588e-05
2.6435129257151857e-05,-5.849126318935305e-05,3.139765976811759e-05,-7.17828652341268e-06,-1.021836305881152e-05,3.6863479181192815e-05
2.80498898064252e-05,-5.3721221775049344e-05,3.308113446109928e-05,-2.4508259230060503e-05,-8.746631465328392e-06,3.4577395126689225e-05
3.062612086068839e-05,-4.929898932459764e-05,3.2752155675552785e-05,-4.8928683099802583e-05,-5.646929821523372e-06,4.237409302731976e-05
3.261966412537731e-05,-4.912108488497324e-05,3.3011107007041574e-05,-6.161032797535881e-05,-2.3475581656384747e-06,5.120923378854059e-05
3.1269286409951746e-05,-4.9842063162941486e-05,3.279529482824728e-05,-5.194224650040269e-05,1.4683395477277372e-07,5.086503369966522e-05
2.2227404770092107e-05,-4.9273541662842035e-05,2.978732118208427e-05,-3.1276831577997655e-05,-6.56203155813273e-07,3.6671292036771774e-05
1.470659117330797e-05,-4.746176637127064e-05,2.8496287995949388e-05,-1.963055183296092e-06,-1.9264129491602944e-07,3.126843148493208e-05
1.1251450814597774e-05,-4.3248892325209454e-05,2.834292536135763e-05,2.992131885548588e-05,5.510200480784988e-06,3.785758963203989e-05
5.912868346058531e-06,-4.0374456148128957e-05,2.5289242330472916e-05,5.715866063837893e-05,8.469519343634602e-06,4.998310760129243e-05
4.870667453360511e-06,-3.9163460314739496e-05,2.2785363398725167e-05,7.248275505844504e-05,7.700056812609546e-06,6.929248775122687e-05
8.929027899284847e-06,-3.982136695412919e-05,2.3468443032470532e-05,7.882056524977088e-05,6.624234629271086e-06,8.000564412213862e-05
1.4236067727324553e-05,-4.178283779765479e-05,2.5244333301088773e-05,7.479573832824826e-05,6.1205728343338706e-06,7.907156395958737e-05
1.8464706954546273e-05,-4.398026430862956e-05,2.6975214495905675e-05,5.9968544519506395e-05,2.4450748696835944e-06,7.127107528503984e-05
1.787705514288973e-05,-4.636697849491611e-05,2.999421485583298e-05,4.264012022758834e-05,-1.2058662832714617e-06,6.608496187254786e-05
1.2600553418451454e-05,-4.9037334974855185e-05,3.3986445487244055e-05,3.061344614252448e-05,-4.545607225736603e-06,6.463339377660304e-05
7.1299295996141154e-06,-5.196281927055679e-05,3.6878976970911026e-05,2.4065549951046705e-05,-1.101334964914713e-05,6.147729436634108e-05
5.30533907294739e-06,-5.395053085521795e-05,3.761853076866828e-05,2.584677713457495e-05,-1.4651728633907624e-05,5.6853525165934116e-05
1.0098787242895924e-05,-5.5846838222350925e-05,3.755817306227982e-05,3.753756027435884e-05,-1.463992794015212e-05,5.160682849236764e-05
1.9336448531248607e-05,-5.401251110015437e-05,3.7651196180377156e-05,4.944640750181861e-05,-1.1629806976998225e-05,4.826527219847776e-05
2.7658204999170266e-05,-5.168090501683764e-05,3.629380080383271e-05,4.887911200057715e-05,-1.018535749608418e-05,5.1649290981004015e-05
3.125293369521387e-05,-5.3306270274333656e-05,3.3284351957263425e-05,3.463285611360334e-05,-9.981169569073245e-06,6.62095844745636e-05
3.25683577102609e-05,-5.679126115865074e-05,3.0173912819009274e-05,2.049555587291252e-05,-1.0606733667373192e-05,8.9529603428673e-05
3.524767089402303e-05,-5.509204856934957e-05,3.086811557295732e-05,1.248080388904782e-05,-1.0785415724967606e-05,0.00011211197124794126
3.780832048505545e-05,-4.758928844239563e-05,3.561512130545452e-05,9.366714948555455e-06,-8.927799171942752e-06,0.00012935028644278646
3.594502413761802e-05,-3.760014442377724e-05,3.861434743157588e-05,7.30268129700562e-06,-5.766613412561128e-06,0.00014776003081351519
2.9788550818921067e-05,-3.256136551499367e-05,3.6726833059219643e-05,8.25610914034769e-06,-4.170919055468403e-06,0.00016690813936293125
2.358242818445433e-05,-3.520830432535149e-05,3.1590770959155634e-05,1.5217594409477897e-05,-6.504629709525034e-06,0.0001742947060847655
2.074919393635355e-05,-3.9625680074095726e-05,2.8749933335348032e-05,2.4058297640294768e-05,-1.3366764505917672e-05,0.00016420596512034535
2.323559601791203e-05,-4.260383502696641e-05,2.999637035827618e-05,2.618180587887764e-05,-2.1764712073490955e-05,0.00013865454820916057
2.9915683626313694e-05,-4.375895150587894e-05,3.180044950568117e-05,2.472345113346819e-05,-2.931828385044355e-05,9.97483657556586e-05
3.965730866184458e-05,-4.473249282455072e-05,3.211355215171352e-05,2.4229240807471797e-05,-3.23620843118988e-05,5.627944119623862e-05
4.581122993840836e-05,-4.768737198901363e-05,3.388985714991577e-05,3.1600564398104325e-05,-2.836048042809125e-05,2.4382281480939128e-05
4.384666317491792e-05,-5.115309977554716e-05,3.941581235267222e-05,4.7743553295731544e-05,-2.2853266273159534e-05,-6.64513572701253e-06
3.7317669921321794e-05,-5.263938510324806e-05,4.261750291334465e-05,6.397538527380675e-05,-2.1070258299005218e-05,-5.7483815908199176e-05
2.983558806590736e-05,-5.2185827371431515e-05,4.2547235352685675e-05,6.641037907684222e-05,-2.1270825527608395e-05,-0.0001023464064928703
1.934890133270528e-05,-5.14363418915309e-05,4.219689071760513e-05,5.401295129559003e-05,-1.976542807824444e-05,-9.995610889745876e-05
7.677094799873885e-06,-5.137826519785449e-05,3.9881579141365364e-05,4.205786535749212e-05,-1.4761126294615678e-05,-4.740816802950576e-05
-1.97643294086447e-06,-5.3448409744305536e-05,4.056052057421766e-05,4.234515654388815e-05,-8.635595804662444e-06,7.97366737970151e-06
-4.668134351959452e-06,-5.5517924920422956e-05,4.198676469968632e-05,4.8539688577875495e-05,-7.594232101837406e-06,3.529648165567778e-05
1.2131556559324963e-06,-5.4541673307539895e-05,3.9031052438076586e-05,5.0404192734276876e-05,-9.032886737259105e-06,5.174495163373649e-05
8.093929864116944e-06,-5.4868785809958354e-05,3.568468309822492e-05,4.4666499888990074e-05,-1.203277861350216e-05,7.130079757189378e-05
1.336835885012988e-05,-5.696826337953098e-05,3.299579839222133e-05,3.539409954100847e-05,-1.3336935808183625e-05,8.905761205824092e-05
1.7520471374155022e-05,-5.6319455325137824e-05,3.0395118301385082e-05,3.102026312262751e-05,-1.0825128811120521e-05,0.00010177023796131834
2.1533594917855226e-05,-5.085381053504534e-05,2.9865754186175764e-05,3.064849806833081e-05,-1.0073227713291999e-05,0.00011000652011716738
2.6114372303709388e-05,-4.6055447455728427e-05,3.2815791200846434e-05,3.2738447771407664e-05,-1.159064777311869e-05,0.00010853845742531121
3.566598752513528e-05,-4.642596104531549e-05,3.61332313332241e-05,3.6411565815797076e-05,-1.3107305676385295e-05,9.819800470722839e-05
5.5202574003487825e-05,-5.031572072766721e-05,3.504566484480165e-05,3.736873622983694e-05,-1.387974862154806e-05,8.177116978913546e-05
7.655374065507203e-05,-5.3299503633752465e-05,3.083404590142891e-05,2.9268127036630176e-05,-1.1846177585539408e-05,6.110752292443067e-05
8.466582221444696e-05,-5.4373889724956825e-05,2.8867249056929722e-05,1.7756530724000186e-05,-8.385671208088752e-06,4.20826327172108e-05
7.446124072885141e-05,-5.386301199905574e-05,2.876736289181281e-05,1.2423101907188538e-05,-5.385259100876283e-06,3.065072814933956e-05
5.4986558097880334e-05,-5.238505036686547e-05,2.8545569875859655e-05,1.478821832279209e-05,-4.808417543245014e-06,2.6354633519076742e-05
3.56343989551533e-05,-5.172622331883758e-05,2.8695787477772683e-05,1.810082176234573e-05,-6.74999591865344e-06,2.9987217203597538e-05
2.2348998754750937e-05,-5.408117067418061e-05,2.9391794669209048e-05,1.9831466488540173e-05,-9.282445716962684e-06,4.1529339796397835e-05
1.613060521776788e-05,-5.964978117845021e-05,3.0360830351128243e-05,2.0650984879466705e-05,-1.0624693459249102e-05,5.446789873531088e-05
1.829244320106227e-05,-6.320480315480381e-05,3.117069718427956e-05,1.8764565538731404e-05,-9.902717465593014e-06,6.195377500262111e-05
3.6175770219415426e-05,-6.524215859826654e-05,3.100711546721868e-05,1.535048613732215e-05,-8.822294148558285e-06,6.275858322624117e-05
6.495724665001035e-05,-6.82722675264813e-05,2.9253787943162024e-05,1.550320848764386e-05,-8.325007001985796e-06,6.170257256599143e-05
8.198308933060616e-05,-7.059434574330226e-05,2.8123287847847678e-05,1.5409061234095134e-05,-5.576449439104181e-06,6.404781743185595e-05
7.655035005882382e-05,-7.445999654009938e-05,3.1383009627461433e-05,1.5471154256374575e-05,-1.4533288776874542e-06,6.792457133997232e-05
6.71963207423687e-05,-7.348603685386479e-05,3.461987216724083e-05,2.2354934117174707e-05,7.627425588907499e-07,6.919446605024859e-05
5.9835398133145645e-05,-6.73233371344395e-05,3.509712405502796e-05,2.744377707131207e-05,3.831050889857579e-07,6.774090434191748e-05
3.525399006321095e-05,-6.286310235736892e-05,3.534771894919686e-05,2.9836071917088702e-05,-1.878735815807886e-06,6.83715843479149e-05
-8.034922757360619e-06,-5.59351101401262e-05,3.670078513096087e-05,3.807004031841643e-05,-2.7537118967302376e-06,7.241791900014505e-05
-5.063134813099168e-05,-4.31550906796474e-05,3.726546492544003e-05,4.589437594404444e-05,-2.1511496015591547e-06,7.897528848843649e-05
-7.4143594247289e-05,-3.129235119558871e-05,3.740060856216587e-05,4.4188578613102436e-05,-3.1461345884054026e-07,8.701819751877338e-05
-8.070570765994489e-05,-2.565588329161983e-05,3.7742036511190236e-05,4.1293282265542075e-05,-2.2637698293692665e-06,9.471386874793097e-05
-8.172046364052221e-05,-2.055001641565468e-05,3.425432805670425e-05,3.965781070291996e-05,-1.3976215086586308e-05,9.965016943169758e-05
-7.189072493929416e-05,-1.2828279068344273e-05,2.861136272258591e-05,3.222847226425074e-05,-3.262953396188095e-05,9.213626617565751e-05
-5.211721145315096e-05,-4.339809038356179e-06,1.9661760234157555e-05,2.053605203400366e-05,-4.2355535697424784e-05,7.347004429902881e-05
-2.972742368001491e-05,-1.8851577578971046e-06,1.1129503036499955e-05,4.653762061934685e-06,-3.916026253136806e-05,5.3437503083841875e-05
-1.3028628927713726e-05,-5.616658199869562e-06,1.0406494766357355e-05,-4.4971975512453355e-06,-3.263164762756787e-05,3.599007322918624e-05
-2.8163365186628653e-06,-1.4679455489385873e-05,1.7326045053778216e-05,-4.848121548661766e-08,-2.6804294975590892e-05,1.9118950149277225e-05
5.484551365952939e-06,-2.712279456318356e-05,2.3886366761871614e-05,1.2707316273008473e-05,-2.009689160331618e-05,5.6219191719719674e-06
1.4302591807791032e-05,-3.7653473555110395e-05,2.870295793400146e-05,2.3872957171988674e-05,-1.3027103705098853e-05,-8.942597418126752e-08
2.1409603505162522e-05,-4.304061076254584e-05,3.286923674750142e-05,2.611967283883132e-05,-6.48814557280275e-06,4.97996461490402e-06
2.595419209683314e-05,-4.4272041122894734e-05,3.4763568692142144e-05,2.170993684558198e-05,9.080660667848406e-09,2.2099231500760652e-05
2.7712381779565476e-05,-4.531182275968604e-05,3.5917662899009883e-05,1.834318391047418e-05,4.9381833377992734e-06,4.947342677041888e-05
2.724566002143547e-05,-4.801294926437549e-05,3.8087473512860015e-05,2.2450594769907184e-05,6.989244866417721e-06,8.235361019615084e-05
2.7731755835702643e-05,-5.077454261481762e-05,4.0558075852459297e-05,3.299420859548263e-05,4.8456845433975104e-06,0.0001058819834725
2.8705087970593013e-05,-5.229515227256343e-05,3.9917154936119914e-05,4.425510996952653e-05,6.800488563385443e-07,0.00010836876026587561
3.198440026608296e-05,-5.3811560064787045e-05,3.685164847411215e-05,4.896381506114267e-05,-1.5195032574411016e-06,9.72248162725009e-05
3.7120440538274124e-05,-5.4930904298089445e-05,3.356397428433411e-05,4.722576341009699e-05,-6.728637913511193e-07,9.085747296921909e-05
3.902094249497168e-05,-5.7844325056066737e-05,3.111329351668246e-05,4.1351322579430416e-05,-6.64438573494408e-07,8.732228889130056e-05
3.530621688696556e-05,-5.881505785509944e-05,2.8948345061508007e-05,3.7053017877042294e-05,-3.3203673410753254e-06,5.913996938033961e-05
3.062137693632394e-05,-5.7419307267991826e-05,2.8956663300050423e-05,4.2174116970272735e-05,-9.47690296015935e-06,7.766950147924945e-06
2.5492985514574684e-05,-5.7697445299709216e-05,3.097535591223277e-05,5.363079617382027e-05,-2.1498241039807908e-05,-1.8190597984357737e-05
2.117771509801969e-05,-5.4623593314317986e-05,3.315369758638553e-05,6.564997602254152e-05,-3.7451878597494215e-05,6.649325769103598e-06
2.2714904844178818e-05,-4.830132456845604e-05,3.744884816114791e-05,7.165176066337153e-05,-4.926750989397988e-05,4.761476520798169e-05
2.6986070224666037e-05,-4.7101879317779094e-05,4.197076123091392e-05,6.536790169775486e-05,-5.6694450904615223e-05,6.242669769562781e-05
2.863520239770878e-05,-4.857233943766914e-05,4.151902248850092e-05,5.388994759414345e-05,-5.783226515632123e-05,5.5884265748318285e-05
3.043453034479171e-05,-5.180093285162002e-05,4.02246332669165e-05,4.427570092957467e-05,-5.292092828312889e-05,5.280257755657658e-05
2.976051291625481e-05,-5.50814438611269e-05,4.085224645677954e-05,4.2506831960054114e-05,-4.40101430285722e-05,5.3809795645065606e-05
2.8185218980070204e-05,-5.366700133890845e-05,4.0516108128940687e-05,4.275661558494903e-05,-2.761080213531386e-05,5.533813236979768e-05
2.764248893072363e-05,-5.174065154278651e-05,3.7431887903949246e-05,4.251530845067464e-05,-4.960160822520265e-06,5.708473327104002e-05
2.8955690140719526e-05,-5.115038948133588e-05,3.498507066979073e-05,4.19388416048605e-05,2.0631010556826368e-05,5.732930367230438e-05
2.8223610570421442e-05,-5.1814447942888364e-05,3.2489580917172134e-05,3.921063762390986e-05,4.5234744902700186e-05,5.45967704965733e-05
3.0149521990097128e-05,-5.218869773671031e-05,2.9144095606170595e-05,3.0197752494132146e-05,6.807802128605545e-05,5.0339884182903916e-05
4.352574251242913e-05,-5.0685936002992094e-05,2.701213634281885e-05,1.5119813724595588e-05,8.353703742614016e-05,5.098585461382754e-05
6.236820627236739e-05,-4.8163856263272464e-05,2.649984526215121e-05,4.956012617185479e-06,8.473860361846164e-05,5.6502511142753065e-05
7.19207018846646e-05,-4.7208006435539573e-05,2.6249348593410105e-05,3.941741397284204e-06,7.227664173115045e-05,6.423792365239933e-05
6.524023046949878e-05,-4.574754711939022e-05,2.6650261133909225e-05,1.0988964277203195e-05,5.462656190502457e-05,6.784773722756654e-05
5.017579678678885e-05,-4.3763262510765344e-05,2.913897333201021e-05,1.9052273273700848e-05,3.971590558649041e-05,6.492807005997747e-05
3.384603405720554e-05,-4.411502231960185e-05,3.0424351280089468e-05,2.5103565349127166e-05,2.6972624254995026e-05,5.849626904819161e-05
1.8058664863929152e-05,-4.5675336878048256e-05,2.8940299671376124e-05,2.752197724475991e-05,1.5983021512511186e-05,5.2716648497153074e-05
2.1115747586009093e-06,-4.682388316723518e-05,2.768505692074541e-05,2.6119818357983604e-05,9.02882675291039e-06,4.9602993385633454e-05
-8.221874850278255e-06,-4.888667172053829e-05,2.711085653572809e-05,1.8632963474374264e-05,5.386035809351597e-06,4.7310164518421516e-05
-6.503075837827055e-06,-5.0732895033434033e-05,2.511398088245187e-05,6.789535291318316e-06,4.019489097117912e-07,4.8688507376937196e-05
7.017485131655121e-06,-5.1778406486846507e-05,2.303909059264697e-05,-3.90045897802338e-06,-4.467070539249107e-06,5.433893602457829e-05
2.0098488676012494e-05,-5.2811752539128065e-05,2.0528561435639858e-05,-7.4461331678321585e-06,-5.882163350179326e-06,5.618462455458939e-05
2.557243533374276e-05,-5.1318304031156003e-05,2.0078607121831737e-05,-6.852370916021755e-06,-6.860354005766567e-06,5.577116826316342e-05
2.8333533919067122e-05,-5.018106821808033e-05,2.248785131087061e-05,-5.605281330645084e-06,-9.214476449415088e-06,5.770918869529851e-05
2.9874789106543176e-05,-5.1262162742204964e-05,2.4873457732610404e-05,3.657180798199988e-07,-1.4859085240459535e-05,6.349887553369626e-05
2.801054870360531e-05,-5.269403482088819e-05,2.6373190848971717e-05,9.35067146201618e-06,-2.0927964214934036e-05,6.714192568324506e-05
2.4288561689900234e-05,-5.415094710770063e-05,3.123981150565669e-05,1.327212157775648e-05,-2.8233560442458838e-05,6.192660657688975e-05
2.234742532891687e-05,-5.4301213822327554e-05,3.79733755835332e-05,1.5151366824284196e-05,-3.610733983805403e-05,5.409625737229362e-05
2.425090133328922e-05,-5.145664908923209e-05,4.288677519070916e-05,2.4450311684631743e-05,-3.6742505471920595e-05,4.979805089533329e-05
2.5604593247408047e-05,-4.960055957781151e-05,4.186612204648554e-05,3.889001163770445e-05,-3.262357131461613e-05,5.5183747463161126e-05
2.687706728465855e-05,-4.9812944780569524e-05,3.73047951143235e-05,5.4324093071045354e-05,-2.950359703390859e-05,5.678888555848971e-05
2.399501681793481e-05,-5.032283297623508e-05,3.544820356182754e-05,6.791649502702057e-05,-3.0454653824563138e-05,4.805474236491136e-05
1.8946600903291255e-05,-5.010405948269181e-05,3.27663219650276e-05,7.51410480006598e-05,-3.296380600659177e-05,4.050666029797867e-05
1.7640344594838098e-05,-4.958813588018529e-05,3.0104121833574027e-05,7.224818546092138e-05,-3.508805457386188e-05,3.9746479160385206e-05
1.9403229089220986e-05,-4.871797136729583e-05,2.833550752256997e-05,6.165389640955254e-05,-3.457694037933834e-05,4.62972566310782e-05
2.6192776203970425e-05,-4.850027471547946e-05,2.7847636374644935e-05,4.7379766328958794e-05,-3.132798519800417e-05,5.9652815252775326e-05
3.470226874924265e-05,-5.125268580741249e-05,2.7884534574695863e-05,3.1169893190963194e-05,-2.532449252612423e-05,7.515944889746606e-05
4.1262912418460473e-05,-5.531324495677836e-05,2.6985950171365403e-05,1.3870721886632964e-05,-2.2865802748128772e-05,8.61861408338882e-05
4.2025632865261286e-05,-5.6913981097750366e-05,2.6350731786806136e-05,4.415439889271511e-06,-2.624732587719336e-05,9.282065002480522e-05
3.582396311685443e-05,-5.6720353313721716e-05,2.888996823458001e-05,3.924667453247821e-06,-2.7625428629107773e-05,9.478572610532865e-05
2.5979055862990208e-05,-5.64741603739094e-05,3.339707473060116e-05,3.3467940738773905e-06,-2.620361374283675e-05,9.029751527123153e-05
1.699169479252305e-05,-5.5540556786581874e-05,3.400264176889323e-05,-9.352675078844186e-07,-2.4700811991351657e-05,7.984503463376313e-05
8.55253074405482e-06,-5.3598494559992105e-05,2.9719265512540005e-05,-5.958208021183964e-06,-2.5328397896373644e-05,7.067045953590423e-05
-1.3258712669994566e-06,-5.100898488308303e-05,2.6024006729130633e-05,-9.669563951320015e-06,-2.5047962481039576e-05,6.464432226493955e-05
-6.877484793221811e-06,-5.078826143289916e-05,2.7165600840817206e-05,-1.0859035683097318e-05,-2.3689368390478194e-05,5.692033300874755e-05
1.233586658599961e-06,-5.288819738780148e-05,3.05812391161453e-05,-7.531443316111108e-06,-2.3211934603750706e-05,4.179219467914663e-05
1.7586027752258815e-05,-5.484178473125212e-05,3.314214700367302e-05,-1.791585191313061e-07,-2.7078134735347703e-05,2.403313192189671e-05
2.6048212021123618e-05,-5.8509955124463886e-05,3.280077362433076e-05,6.386353106790921e-06,-3.210968861822039e-05,1.0644579560903367e-05
1.8901979274232872e-05,-6.510665116365999e-05,3.082001785514876e-05,4.911632913717767e-06,-3.526990985847078e-05,8.63586990362819e-07
3.714580543601187e-06,-6.892964302096516e-05,3.2205076422542334e-05,2.081169668599614e-06,-3.6246095987735316e-05,7.744808954157634e-07
-5.519135811482556e-06,-6.804944132454693e-05,4.070001523359679e-05,5.939189122727839e-06,-3.33747266267892e-05,1.0243539691145997e-05
-3.252795522712404e-06,-6.50133442832157e-05,4.9650701839709654e-05,1.7704964193399064e-05,-2.8577052944456227e-05,2.2728283511241898e-05
1.8528143073126557e-06,-6.0854217736050487e-05,5.06477736053057e-05,3.0019191399333067e-05,-2.4128548830049112e-05,4.66144374513533e-05
2.1546466086874716e-06,-5.374549436965026e-05,4.350131712271832e-05,4.0773171349428594e-05,-2.129010681528598e-05,8.584349416196346e-05
-3.1899523378342565e-07,-4.4974509364692494e-05,3.526188447722234e-05,4.683088991441764e-05,-1.8536895368015394e-05,0.00011213711695745587
4.181447366136126e-06,-4.106917549506761e-05,3.1362316804006696e-05,4.1580264223739505e-05,-1.8161203115596436e-05,0.0001145208952948451
1.7756634406396188e-05,-4.1076837078435346e-05,2.7945521651417948e-05,3.4357974072918296e-05,-1.94544336409308e-05,0.00010668657341739163
2.9482982426998205e-05,-4.11017972510308e-05,2.695620059967041e-05,3.326364458189346e-05,-1.7424754332751036e-05,9.551996481604874e-05
3.552673297235742e-05,-3.952376573579386e-05,2.8327132895356044e-05,3.661926893983036e-05,-1.2417227480909787e-05,8.090210758382455e-05
3.596847454900853e-05,-3.6541870940709487e-05,2.801853042910807e-05,3.877923882100731e-05,-5.97405733060441e-06,6.567288073711097e-05
3.547350570443086e-05,-3.618583650677465e-05,2.9578352041426115e-05,4.4242642616154626e-05,-5.12475116920541e-06,7.229023321997374e-05
3.790549817495048e-05,-3.684550028992817e-05,3.4319222322665155e-05,5.500681436387822e-05,-7.319420546991751e-06,9.62979975156486e-05
3.896604903275147e-05,-4.094557152711786e-05,3.673947503557429e-05,6.57894997857511e-05,-7.3732926466618665e-06,0.00011142060247948393
3.708182703121565e-05,-4.943158637615852e-05,3.574712172849104e-05,7.062950317049399e-05,-7.32798207536689e-06,0.00010769880464067683
3.4723550925264135e-05,-5.531858914764598e-05,3.684437251649797e-05,7.182234548963606e-05,-6.4259547798428684e-06,9.486330964136869e-05
3.243100945837796e-05,-5.446090654004365e-05,3.969782483181916e-05,7.717032713117078e-05,-6.602556368306978e-06,7.917502080090344e-05
2.928751564468257e-05,-4.9531765398569405e-05,4.189971150481142e-05,8.791751315584406e-05,-7.1345675678458065e-06,5.480934851220809e-05
2.6470617740415037e-05,-4.54932487627957e-05,4.206774610793218e-05,9.643659723224118e-05,-7.574307801405666e-06,2.22250928345602e-05
2.634264819789678e-05,-4.537514905678108e-05,3.889303479809314e-05,9.539429447613657e-05,-7.675166671106126e-06,-6.607982868445106e-06
2.7294305255054496e-05,-4.7823374188737944e-05,3.3539599826326594e-05,8.152498048730195e-05,-7.991062375367619e-06,-2.5596595151000656e-05
2.8266487788641825e-05,-5.1279250328661874e-05,3.1847492209635675e-05,5.68921459489502e-05,-7.490483312722063e-06,-3.807186658377759e-05
3.0640709155704826e-05,-5.544622035813518e-05,3.5909630241803825e-05,3.216433833586052e-05,-3.1896101972961333e-06,-3.3238367905141786e-05
3.1618426874047145e-05,-5.893354318686761e-05,3.913394175469875e-05,1.740228799462784e-05,4.6659338295285124e-06,-6.093519459682284e-06
2.657741970324423e-05,-6.188313273014501e-05,3.472952448646538e-05,1.4268082850321662e-05,7.857541277189739e-06,2.30162258958444e-05
1.8526174244470894e-05,-6.491615204140544e-05,2.3871285520726815e-05,1.309901836066274e-05,2.0021852833451703e-06,3.547759843058884e-05
1.4392650882655289e-05,-6.696242780890316e-05,1.7938637029146776e-05,4.401781552587636e-06,-6.737370313203428e-06,4.269753480912186e-05
1.5489438737859018e-05,-6.702374230371788e-05,2.0987574316677637e-05,-1.1665923011605628e-05,-6.869910521345446e-06,5.367396443034522e-05
2.0706660507130437e-05,-6.520065653603524e-05,2.6764933863887563e-05,-2.322350519534666e-05,-1.288632006435364e-06,6.146198575152084e-05
3.259466393501498e-05,-6.497747381217778e-05,3.0276502002379857e-05,-2.5789244318730198e-05,6.232691021068604e-07,6.374598888214678e-05
5.062216951046139e-05,-6.836607644800097e-05,3.1725518056191504e-05,-2.6837480618269183e-05,1.6454873730253894e-06,6.069355004001409e-05
6.500982999568805e-05,-6.801322888350114e-05,3.0876362870913e-05,-2.145973121514544e-05,8.480973292535054e-07,4.866813469561748e-05
6.784827564842999e-05,-6.182765355333686e-05,2.9726159482379444e-05,1.152396407633205e-06,-1.4164327239996055e-06,3.928534351871349e-05
5.93926633882802e-05,-5.640006565954536e-05,2.8423703042790294e-05,2.5077437385334633e-05,-4.834818696508592e-07,4.6662447857670486e-05
4.17334922531154e-05,-5.6618708185851574e-05,2.320922794751823e-05,3.649452264653519e-05,-1.503556177340215e-06,6.651580042671412e-05
1.5525896742474288e-05,-5.089766636956483e-05,1.9187458747182973e-05,4.004765651188791e-05,-6.225585366337327e-06,9.039862197823822e-05
-4.867468305747025e-06,-3.977860978920944e-05,1.8871593056246638e-05,4.2573090468067676e-05,-7.302519861696055e-06,0.00011227837239857763
-1.1971288586209994e-05,-3.4885455534094945e-05,2.1455680325743742e-05,4.4558131776284426e-05,-6.267070602916647e-06,0.00012880646681878716
-1.1244444976910017e-05,-3.598030161811039e-05,2.689600114536006e-05,5.198522922000848e-05,-6.676107659586705e-06,0.0001368459197692573
-6.0121210481156595e-06,-3.805641608778387e-05,3.063839903916232e-05,6.55642943456769e-05,-7.744666618236806e-06,0.00013360926823224872
4.181950998827233e-07,-3.5508353903423995e-05,2.9412050935206935e-05,7.555052434327081e-05,-7.233707492559915e-06,0.000124931670143269
5.507152309291996e-06,-3.073970947298221e-05,2.8336957257124595e-05,7.508147245971486e-05,-8.185603292076848e-06,0.00011714339052559808
7.0021837927924935e-06,-3.160153210046701e-05,2.9610238925670274e-05,5.7914752687793225e-05,-1.3506773029803298e-05,0.0001034714441630058
7.72710882301908e-06,-3.925984492525458e-05,3.0360211894731037e-05,3.278059375588782e-05,-1.9157705537509173e-05,8.024618728086352e-05
8.6632235252182e-06,-4.730074215331115e-05,3.2479485525982454e-05,1.5833698853384703e-05,-1.7155773093691096e-05,6.031840166542679e-05
9.911363122228067e-06,-4.819784589926712e-05,3.79445991711691e-05,1.6508583939867094e-05,-9.564796528138686e-06,6.047222632332705e-05
1.0776680028357077e-05,-4.1935305489460006e-05,4.192451524431817e-05,2.8932076020282693e-05,-3.183893795721815e-06,7.924087549326941e-05
9.994815627578646e-06,-3.690744415507652e-05,4.2221989133395255e-05,4.516221088124439e-05,1.110733705900202e-06,9.539779421174899e-05
1.055386928783264e-05,-3.6078690754948184e-05,4.429538967087865e-05,6.075962301110849e-05,6.389253485394875e-06,9.318659431301057e-05
1.4694501260237303e-05,-3.756732621695846e-05,4.836204607272521e-05,7.039352203719318e-05,9.29612997424556e-06,7.552239549113438e-05
1.8436774553265423e-05,-4.16138100263197e-05,4.805633579962887e-05,7.166340219555423e-05,5.404068815551e-06,5.286837767926045e-05
2.1522831957554445e-05,-4.807019649888389e-05,3.988824028056115e-05,6.894904799992219e-05,-2.2085750970290974e-06,3.0863207939546555e-05
2.6717338187154382e-05,-5.2448816859396175e-05,3.0256411264417693e-05,7.707318582106382e-05,-8.728560715098865e-06,1.1241289030294865e-05
3.273099719081074e-05,-5.478586899698712e-05,2.7572785256779753e-05,0.00010554146865615621,-1.0777695933938958e-05,-5.114802206662716e-06
3.9953469240572304e-05,-5.5800715927034616e-05,3.3932217775145546e-05,0.00013833287812303752,-9.944987141352613e-06,-1.790953683666885e-05
5.0257702241651714e-05,-5.4425963753601536e-05,4.074745811522007e-05,0.00015307597641367465,-9.359896466776263e-06,-2.2443386114900932e-05
5.723649519495666e-05,-5.555783718591556e-05,3.8822439819341525e-05,0.00013609431334771216,-8.00570887804497e-06,-9.238826351065654e-06
4.9124984798254445e-05,-5.8986399380955845e-05,3.3431184419896454e-05,9.466706251259893e-05,-5.919699560763547e-06,2.5707502572913654e-05
2.8057094823452644e-05,-5.945542216068134e-05,3.1340503483079374e-05,4.6488472435157746e-05,-6.430867870221846e-06,7.008278043940663e-05
1.159429029939929e-05,-5.8278477808926255e-05,2.9185073799453676e-05,5.894316018384416e-06,-5.508795311470749e-06,9.441479778615758e-05
4.390149570099311e-06,-5.5563683417858556e-05,2.9749189707217738e-05,-2.1860594642930664e-05,-3.956779437430669e-06,9.932168904924765e-05
9.600468047210597e-07,-5.075729131931439e-05,3.076407665503211e-05,-3.331073094159365e-05,-2.321337888133712e-06,0.00010088097042171285
2.4285766357934335e-06,-4.325293411966413e-05,2.617195605125744e-05,-2.9864129828638397e-05,-7.092842793099408e-07,9.580638288753107e-05
1.62864616868319e-05,-3.6176908906782046e-05,2.0807337932637893e-05,-2.5478520910837688e-05,-5.059696945863834e-07,9.194254380417988e-05
4.627581074601039e-05,-3.512491821311414e-05,2.043985114141833e-05,-2.1034100427641533e-05,-1.4122965694696177e-06,9.621397475712001e-05
7.472028664778918e-05,-3.851256042253226e-05,2.4355917048524134e-05,-1.4607705452363007e-05,-2.7541129838937195e-06,0.0001098263674066402
8.669403177918866e-05,-4.085548789589666e-05,2.7525422410690226e-05,-8.180732947948854e-06,-3.427535830269335e-06,0.00012200416676932946
8.128136687446386e-05,-4.29853425885085e-05,2.8789587304345332e-05,-3.1556185149383964e-06,-2.733044766500825e-06,0.00011795698083005846
6.359274266287684e-05,-4.769430233864114e-05,2.883062552427873e-05,7.3020660238398705e-06,-4.33632112617488e-06,9.1364468971733e-05
4.0688457374926656e-05,-5.226023858995177e-05,3.094188650720753e-05,1.974201040866319e-05,-9.204233720083721e-06,5.8411962527316064e-05
1.6780157238827087e-05,-5.343488010112196e-05,3.468626891844906e-05,2.7709616915672086e-05,-1.2714803233393468e-05,2.87570474029053e-05
-7.1625086093263235e-06,-5.237914592726156e-05,3.52362658304628e-05,2.851975841622334e-05,-1.3599611520476174e-05,-7.909597115940414e-06
-2.6359204639447853e-05,-5.330505155143328e-05,3.125370494672097e-05,2.056326593447011e-05,-1.4700670362799428e-05,-4.9071284593082964e-05
-3.08858543576207e-05,-5.587598207057454e-05,2.690021210582927e-05,8.994874406198505e-06,-1.598327435203828e-05,-6.720876990584657e-05
-1.874586087069474e-05,-5.693798084394075e-05,2.566635885159485e-05,-3.520971461057343e-07,-1.3442064300761558e-05,-3.9567803469253704e-05
-2.2636143057752633e-06,-5.398205030360259e-05,2.815327388816513e-05,-1.8641702581589925e-06,-7.074546374497004e-06,1.7005804693326354e-05
7.683341209485661e-06,-4.7603487473679706e-05,3.2663629099261016e-05,6.84451470078784e-06,-2.216078883066075e-06,6.450905493693426e-05
1.2076102393621113e-05,-4.2973406380042434e-05,3.5728950024349615e-05,2.0771347408299334e-05,-3.6063840980204986e-06,7.75795488152653e-05
1.2727839930448681e-05,-4.589851596392691e-05,3.6413955967873335e-05,2.9626771720359102e-05,-9.016860531119164e-06,6.899832078488544e-05
1.0026692507381085e-05,-5.3774372645420954e-05,3.169307819916867e-05,2.5056677259271964e-05,-1.5493254977627657e-05,7.041858771117404e-05
6.6871293711301405e-06,-6.090417082305066e-05,1.995409547816962e-05,2.5540232400089735e-06,-2.0094143110327423e-05,8.437466021860018e-05
5.035798949393211e-06,-6.4744584960863e-05,1.3036585187364835e-05,-1.249935849045869e-05,-2.0638493879232556e-05,8.331517165061086e-05
8.164150131051429e-06,-6.1010607169009745e-05,2.1258247215882875e-05,4.0668578549230006e-06,-1.6166313798748888e-05,7.568879664177075e-05
1.5197846551018301e-05,-5.0993829063372687e-05,3.315764479339123e-05,2.978489465021994e-05,-9.665709512773901e-06,7.094455213518813e-05
2.127065818058327e-05,-4.4190943299327046e-05,3.548591485014185e-05,3.8065201806603e-05,-1.0108114111062605e-05,5.51486446056515e-05
2.6302894184482284e-05,-4.322069798945449e-05,2.9875493055442348e-05,2.978314114443492e-05,-1.616092777112499e-05,2.5445411665714346e-05
2.8094496883568354e-05,-4.448064282769337e-05,2.4216042220359668e-05,2.222331750090234e-05,-2.0846384359174408e-05,-4.3429367906355765e-06
2.556037543399725e-05,-4.3679312511812896e-05,2.503123505448457e-05,2.737370232352987e-05,-1.891210922622122e-05,-1.864799196482636e-05
1.759530096023809e-05,-3.9767433918314055e-05,2.5547538825776428e-05,3.1613635655958205e-05,-1.2784117643604986e-05,-1.916147994052153e-05
1.13131254693144e-05,-4.190101753920317e-05,2.5633278710301965e-05,2.392269561823923e-05,-1.4796767572988756e-05,-8.529556907888036e-06
1.0899638255068567e-05,-4.8061770939966664e-05,2.6735420760815032e-05,7.283030299731763e-06,-1.935671389219351e-05,1.8791406546370126e-05
1.2441111721273046e-05,-5.2016141125932336e-05,2.5388586436747573e-05,-2.85876058114809e-06,-1.8095766790793277e-05,5.657215660903603e-05
1.5757243090774864e-05,-5.448305091704242e-05,2.358466008445248e-05,-1.1449159131871056e-07,-1.2461194273782894e-05,8.108772453851998e-05
2.127741936419625e-05,-5.5191314459079877e-05,2.085146843455732e-05,4.799756879947381e-06,-9.278333891415969e-06,8.403679385082796e-05
2.6330535547458567e-05,-5.529584450414404e-05,2.0793062503798865e-05,6.6325287662039045e-06,-1.0109452887263615e-05,7.75838561821729e-05
2.999793468916323e-05,-5.240823156782426e-05,2.3661046725464985e-05,6.485588528448716e-06,-1.2191982023068704e-05,7.775831181788817e-05
3.5761058825301006e-05,-4.797635119757615e-05,2.6984142095898278e-05,7.436844498442952e-06,-1.5002260624896735e-05,8.104944572551176e-05
4.086691842530854e-05,-4.3817424739245325e-05,2.812859383993782e-05,1.0456839845573995e-05,-1.7905527784023434e-05,7.811772229615599e-05
4.1611361666582525e-05,-4.247383549227379e-05,2.752466025413014e-05,1.4126688256510533e-05,-1.7965039660339244e-05,7.504460518248379e-05
3.876026312354952e-05,-4.3177577026654035e-05,2.5219593226211146e-05,1.6560628864681348e-05,-1.6295820387313142e-05,7.904703670646995e-05
3.6268575058784336e-05,-4.4968390284338966e-05,2.4363049305975437e-05,1.7420428775949404e-05,-1.7801883586798795e-05,8.879261440597475e-05
3.684517650981434e-05,-4.663249274017289e-05,2.6897389034274966e-05,1.867111677711364e-05,-2.1498701244127005e-05,9.689918806543574e-05
4.065445318701677e-05,-4.6142326027620584e-05,3.2706222555134445e-05,2.9928642106824555e-05,-2.3214279281091876e-05,9.671917359810323e-05
4.4624055590247735e-05,-4.573292244458571e-05,4.0483660995960236e-05,5.5161319323815405e-05,-2.0357636458356865e-05,8.937910752138123e-05
4.797435394721106e-05,-4.780331801157445e-05,4.618717866833322e-05,8.091238123597577e-05,-1.5505525880143978e-05,8.111032366286963e-05
5.3362447943072766e-05,-5.033174602431245e-05,4.69491133117117e-05,9.125399810727686e-05,-1.0871295671677217e-05,7.543999527115375e-05
5.899567258893512e-05,-5.1111601351294667e-05,4.326642374508083e-05,8.695232099853456e-05,-6.813365416746819e-06,7.280554564204067e-05
5.778312697657384e-05,-5.070036058896221e-05,3.931866740458645e-05,7.792506949044764e-05,-2.6912184694083408e-06,7.315399125218391e-05
4.991482637706213e-05,-4.971429007127881e-05,3.7877711292821914e-05,6.876137194922194e-05,9.165703573899009e-08,7.590134919155389e-05
4.06138387916144e-05,-5.058944225311279e-05,3.816610114881769e-05,5.488284659804776e-05,1.912145535243326e-06,7.483211811631918e-05
3.384042429388501e-05,-5.2809937187703326e-05,3.6730722058564425e-05,3.75352828996256e-05,1.7332587276541744e-06,7.181414548540488e-05
2.9593176805065013e-05,-5.4173407988855615e-05,3.647759513114579e-05,1.737537058943417e-05,1.009302764032327e-06,6.968110392335802e-05
1.7392298104823567e-05,-5.308015170157887e-05,4.0414848626824096e-05,-8.308395990752615e-06,-2.44162265516934e-06,6.58775243209675e-05
2.242185928480467e-06,-5.0792212277883664e-05,4.1694445826578885e-05,-3.431508594076149e-05,-7.935138455650304e-06,6.013468373566866e-05
-1.6343990409950493e-06,-4.716121839010157e-05,3.6417506635189056e-05,-5.446412251330912e-05,-8.587880074628629e-06,5.37102205271367e-05
6.143493465060601e-06,-4.4207466999068856e-05,3.171980279148556e-05,-5.6043303629849106e-05,-4.651103154174052e-06,5.464622881845571e-05
2.606047382869292e-05,-4.6433673560386524e-05,2.9472974347299896e-05,-3.966980875702575e-05,-3.888840637955582e-06,5.4587308113696054e-05
4.989877561456524e-05,-5.349746788851917e-05,2.9221360819065012e-05,-1.5170259757724125e-05,-6.067270987841766e-06,4.615942816599272e-05
6.03583685006015e-05,-5.737496758229099e-05,3.098417437286116e-05,1.3858718375558965e-05,-6.055765879864339e-06,4.405519212014042e-05
5.266125299385749e-05,-5.679230162058957e-05,3.3551044907653704e-05,3.732019831659272e-05,-5.88522289035609e-06,5.0216494855703786e-05
3.4571643482195213e-05,-5.556685937335715e-05,3.463440589257516e-05,5.158235217095353e-05,-8.478630661556963e-06,5.168456118553877e-05
1.7591659343452193e-05,-5.829716974403709e-05,3.4368546039331704e-05,5.799741848022677e-05,-1.2564560165628791e-05,4.464145968086086e-05
6.7879632297263015e-06,-6.147998647065833e-05,3.3855449146358296e-05,5.4697637096978724e-05,-1.332048123003915e-05,3.841691432171501e-05
-7.832821211195551e-06,-5.877544390386902e-05,3.495854980428703e-05,4.131937021156773e-05,-1.2113224329368677e-05,3.444076355663128e-05
-3.1046627555042505e-05,-5.253777635516599e-05,3.529271634761244e-05,2.6237314159516245e-05,-1.0069094969367143e-05,3.135475708404556e-05
-4.527655619313009e-05,-4.7782181354705244e-05,3.425535760470666e-05,1.146946397057036e-05,-8.492181223118678e-06,2.7549938749871217e-05
-3.624699093052186e-05,-4.679715129896067e-05,3.2970361644402146e-05,-7.987091521499678e-06,-7.720141184108797e-06,2.427818617434241e-05
-1.6313082596752793e-05,-4.662393985199742e-05,2.900511390180327e-05,-2.4884056983864866e-05,-7.455036211467814e-06,2.4472059521940537e-05
-3.197832711521187e-06,-4.56497618870344e-05,2.40850404225057e-05,-2.713801404752303e-05,-6.151385150587885e-06,3.222768646082841e-05
4.7330104280263186e-06,-4.6611614379798993e-05,2.3473096007364802e-05,-1.2967298971489072e-05,-5.05594380229013e-06,4.313655517762527e-05
2.623322870931588e-05,-5.0236147217219695e-05,2.8871332688140683e-05,7.446203653671546e-06,-7.780373380228411e-06,4.759508010465652e-05
6.23981686658226e-05,-5.2509447414195165e-05,3.6406636354513466e-05,2.6266272470820695e-05,-1.189308113680454e-05,4.926296242047101e-05
8.620715379947796e-05,-5.633117689285427e-05,4.136814459343441e-05,4.262195943738334e-05,-1.2734244592138566e-05,5.1932631322415546e-05
8.283059287350625e-05,-6.610186392208561e-05,4.158702722634189e-05,5.7025936257559806e-05,-1.0318127351638395e-05,5.447958756121807e-05
6.478464638348669e-05,-7.550633017672226e-05,3.9159396692411974e-05,6.336276419460773e-05,-6.97939003657666e-06,6.34574462310411e-05
4.461529533728026e-05,-7.721571455476806e-05,3.407973417779431e-05,5.588655039900914e-05,-6.5595236264925916e-06,8.276965672848746e-05
2.1186748199397698e-05,-7.58631867938675e-05,3.225012551411055e-05,4.3046733480878174e-05,-9.9110211522202e-06,9.997683810070157e-05
-1.5144360077101737e-05,-6.941167521290481e-05,3.704580740304664e-05,3.639812712208368e-05,-1.2785466424247716e-05,0.00010574892075965181
-5.966714525129646e-05,-5.6459881307091564e-05,4.150485619902611e-05,3.1766547181177884e-05,-1.2729054105875548e-05,9.513105760561302e-05
-7.633990026079118e-05,-4.3853462557308376e-05,4.086767876287922e-05,2.7883597795153037e-05,-1.101354973798152e-05,7.920560892671347e-05
-4.996881034458056e-05,-3.7241712561808527e-05,3.681631642393768e-05,3.199062484782189e-05,-8.915273610909935e-06,7.515845936723053e-05
-1.4299163012765348e-05,-3.395227395230904e-05,3.141790512017906e-05,4.1991821490228176e-05,-9.650158062868286e-06,7.621393888257444e-05
4.552197879093001e-06,-2.728651452343911e-05,2.6913086912827566e-05,5.26749572600238e-05,-1.3696001587959472e-05,7.657556125195697e-05
6.6720212998916395e-06,-2.2012989575159736e-05,2.5311468561994843e-05,5.914556095376611e-05,-1.4539594303641934e-05,8.9577108155936e-05
3.2765237847343087e-06,-2.181160198233556e-05,2.6850126232602634e-05,6.197682523634285e-05,-1.2979578059457708e-05,0.00010781572927953675
8.193018402380403e-06,-2.4939638024079613e-05,2.7892196158063598e-05,6.518907321151346e-05,-1.4295417713583447e-05,0.00011115269444417208
1.6204223356908187e-05,-3.1885232601780444e-05,2.6915749913314357e-05,7.300389552256092e-05,-2.2791437004343607e-05,9.94242072920315e-05
1.9761464500334114e-05,-4.02829609811306e-05,2.6931629690807313e-05,8.385295222979039e-05,-3.0854727810947224e-05,8.851471648085862e-05
2.1199499315116554e-05,-4.340603118180297e-05,2.9896611522417516e-05,8.804564276942983e-05,-3.348735845065676e-05,7.69577527535148e-05
2.9907767384429462e-05,-4.249426274327561e-05,3.527984881657176e-05,8.26596369734034e-05,-3.062441828660667e-05,5.847067222930491e-05
4.0188348066294566e-05,-4.353743133833632e-05,3.966895746998489e-05,6.949933595024049e-05,-2.591273187135812e-05,4.205532241030596e-05
4.2319108615629375e-05,-4.753892790176906e-05,3.9392925827996805e-05,5.5812412028899416e-05,-2.0001109078293666e-05,3.506306165945716e-05
3.755245779757388e-05,-4.90349848405458e-05,3.4557044273242354e-05,4.6970722905825824e-05,-1.426549624738982e-05,3.533530980348587e-05
2.9809561965521425e-05,-4.5400942326523364e-05,3.0996339773992077e-05,3.998175816377625e-05,-1.0797153663588688e-05,3.8597765524173155e-05
1.9839962988044135e-05,-4.321332016843371e-05,3.051649036933668e-05,2.9418397389235906e-05,-7.917418770375662e-06,4.518557034316473e-05
8.045728463912383e-06,-4.598983650794253e-05,3.09240713249892e-05,1.9704621081473306e-05,-6.702435257466277e-06,5.160734508535825e-05
2.0080454987692065e-07,-5.115570456837304e-05,3.1288713216781616e-05,1.443993369321106e-05,-6.924322406121064e-06,5.180260632187128e-05
-4.785799774253974e-07,-5.360368231777102e-05,3.0001630875631236e-05,8.14141549199121e-06,-8.965176675701514e-06,4.9378992116544396e-05
4.591197921399726e-06,-5.146754119778052e-05,2.7568004952627234e-05,2.556058461777866e-06,-1.0115894838236272e-05,5.6528817367507145e-05
1.1186300071130972e-05,-4.6763696445850655e-05,2.717753523029387e-05,2.758919436018914e-06,-8.77440925250994e-06,7.122389069991186e-05
1.8626982637215406e-05,-4.325639019953087e-05,2.7387919544707984e-05,4.872767476626905e-06,-3.9826422835176345e-06,7.923666998976842e-05
2.443190896883607e-05,-4.128110595047474e-05,2.6773359422804788e-05,4.3382547119108494e-06,-1.604736183935529e-07,8.057032391661778e-05
2.9894508770667017e-05,-4.0887916838983074e-05,2.7913987651118077e-05,3.3116548365796916e-06,-1.3644264527101768e-06,8.283727947855368e-05
3.728303636307828e-05,-4.533091123448685e-05,2.9469700166373514e-05,7.256951448653126e-07,-4.29233205068158e-06,7.881625788286328e-05
4.6243032556958497e-05,-5.070744009572081e-05,2.9322560294531286e-05,-2.0258250970073277e-06,-3.4158770176873077e-06,7.143503898987547e-05
5.01357062603347e-05,-5.3799489251105115e-05,2.9729069865425117e-05,-2.947692564703175e-06,1.3750041034654714e-06,6.594618025701493e-05
4.245891614118591e-05,-5.540241181734018e-05,3.143881622236222e-05,-5.660932401951868e-06,7.435288807755569e-06,6.189229316078126e-05
3.144997754134238e-05,-5.538557525142096e-05,3.635598477558233e-05,-5.542953203985235e-06,1.267113384528784e-05,6.0830127040389925e-05
2.67168343270896e-05,-5.4059237299952656e-05,3.9947150071384385e-05,-1.1838375257866574e-06,1.624604919925332e-05,6.313578342087567e-05
2.7333326215739362e-05,-5.431217505247332e-05,3.924789052689448e-05,-3.009207887316734e-07,1.6665837392793037e-05,7.431509584421292e-05
2.7142654289491475e-05,-5.690144462278113e-05,3.692059908644296e-05,-4.805551270692376e-06,1.4635519619332626e-05,8.038998930715024e-05
2.783727177302353e-05,-5.7445788115728647e-05,3.417124389670789e-05,-8.927276212489232e-06,1.0674682016542647e-05,7.591841858811677e-05
3.220289363525808e-05,-5.378741479944438e-05,3.515293792588636e-05,-5.901968506805133e-06,7.875852134020533e-06,7.739505235804245e-05
3.4653701732167974e-05,-4.8123889428097755e-05,3.623219527071342e-05,-2.0363484054541914e-06,6.106433374952758e-06,8.31996658234857e-05
3.878003917634487e-05,-4.6864632167853415e-05,3.4399330615997314e-05,-1.4072361409489531e-06,2.867423063435126e-06,7.207618182292208e-05
4.646196248359047e-05,-5.0315593398408964e-05,2.9664523026440293e-05,5.952468654868426e-06,-2.2332494609145215e-06,3.290842869319022e-05
5.237046207184903e-05,-5.261644037091173e-05,2.6570613044896163e-05,2.269845936098136e-05,-5.498865448316792e-06,-3.1471213333134074e-06
5.1225524657638744e-05,-5.300721022649668e-05,2.7229811166762374e-05,4.185460420558229e-05,-8.067315320658963e-06,-1.4099608051765244e-05
4.50522311439272e-05,-5.404456169344485e-05,3.1729530746815726e-05,6.0372658481355757e-05,-1.1883607839990873e-05,-1.0998888683388941e-05
3.5498833312885836e-05,-5.500694169313647e-05,3.79656812583562e-05,6.921675230842084e-05,-1.5079552213137504e-05,-4.836344942305004e-06
2.420438795525115e-05,-5.44166614417918e-05,4.093442839803174e-05,6.484776531578973e-05,-1.6504220184287988e-05,1.2353611055004876e-05
1.791068643797189e-05,-4.811584949493408e-05,3.867032864945941e-05,5.4904285207157955e-05,-1.5495104889851063e-05,5.0244339945493266e-05
2.444627352815587e-05,-3.520252721500583e-05,3.365833981661126e-05,4.7909259592415765e-05,-1.4107909919403028e-05,0.00010262570867780596
3.6318488128017634e-05,-2.5898161766235717e-05,3.0685241654282436e-05,4.6466295316349715e-05,-1.344351221632678e-05,0.00015360281395260245
4.2966024921042845e-05,-2.8839902370236814e-05,3.157058381475508e-05,5.2397190302144736e-05,-1.3225001566752326e-05,0.00018540328892413527
4.423161590239033e-05,-3.907112841261551e-05,3.531960101099685e-05,6.216071778908372e-05,-1.2970182069693692e-05,0.0001783212646842003
3.860157448798418e-05,-4.762034222949296e-05,3.817237666225992e-05,6.607570685446262e-05,-1.2831025742343627e-05,0.00012255831097718328
2.7341931854607537e-05,-5.593163950834423e-05,3.966975782532245e-05,6.375424709403887e-05,-1.1951055057579651e-05,3.773120988626033e-05
1.4405764886760153e-05,-6.543339986819774e-05,4.034590892842971e-05,6.315812788670883e-05,-1.432957924407674e-05,-2.9851758881704882e-05
3.0323469673021464e-06,-7.21810502000153e-05,4.257550244801678e-05,6.940446473890916e-05,-1.7296122678089887e-05,-4.139381053391844e-05
-6.306500381469959e-06,-7.374076812993735e-05,4.3579530029091984e-05,7.257176184793934e-05,-1.893137232400477e-05,-1.9700461052707396e-05
-4.446418643055949e-06,-6.980108446441591e-05,3.960907633882016e-05,6.353361095534638e-05,-1.852837704063859e-05,-5.752581273554824e-06
9.106225661525968e-06,-6.579285400221124e-05,3.649658174254e-05,5.5885742767713964e-05,-1.6541096556466073e-05,-6.6077436713385396e-06
8.077597158262506e-06,-6.0629543440882117e-05,3.494751581456512e-05,5.707255331799388e-05,-1.7515416402602568e-05,-2.005566238949541e-05
-1.275897284358507e-05,-5.2103918278589845e-05,3.067100988118909e-05,5.900268297409639e-05,-2.1347275833250023e-05,-3.935631684726104e-05
-2.1103491235408e-05,-4.199119211989455e-05,2.997931369463913e-05,5.968203549855389e-05,-1.9945886378991418e-05,-4.30223299190402e-05
-9.258309546567034e-06,-3.1407551432494074e-05,3.0414152206503786e-05,5.9712157963076606e-05,-1.3032984497840516e-05,-2.0425981347216293e-05
7.247980192914838e-06,-2.89383897325024e-05,2.930688060587272e-05,5.934855653322302e-05,-1.0245831617794465e-05,1.5212653124763165e-05
1.382126265525585e-05,-3.084682612097822e-05,2.973629852931481e-05,5.4470223403768614e-05,-1.2745782441925257e-05,5.514475196832791e-05
1.0699825907067861e-05,-3.187172842444852e-05,2.8532991564134136e-05,4.794819324160926e-05,-1.6179023077711463e-05,9.351650805911049e-05
6.9516763687715866e-06,-3.3339078072458506e-05,2.6889365472015925e-05,3.897272836184129e-05,-1.8458635167917237e-05,0.000112689464003779
5.838998276885832e-06,-3.5596844099927694e-05,2.4731247322051786e-05,3.265788473072462e-05,-1.999582673306577e-05,0.00010417468729428947
5.892727131140418e-06,-3.8154608773766086e-05,2.2388912839232944e-05,3.665623808046803e-05,-2.0111174308112822e-05,7.88568431744352e-05
7.677269422856625e-06,-4.4239004637347534e-05,2.2972253646003082e-05,4.3024952901760116e-05,-1.940654510690365e-05,6.090666283853352e-05
1.2540550414996687e-05,-5.272657654131763e-05,2.5873223421513103e-05,3.6736364563694224e-05,-2.0853492969763465e-05,5.856374264112674e-05
1.8831038687494583e-05,-5.962235445622355e-05,2.8234328055987135e-05,2.043374661298003e-05,-2.4915272661019117e-05,6.59989527775906e-05
2.306573514943011e-05,-6.471161759691313e-05,2.9543260097852908e-05,9.365264304506127e-06,-2.6182695364695974e-05,7.825646025594324e-05
2.344569111301098e-05,-6.767333252355456e-05,3.365458542248234e-05,6.57819055049913e-06,-2.1764604753116146e-05,9.773889178177342e-05
2.2300095224636607e-05,-6.60503501421772e-05,3.787890091189183e-05,3.5695954920811346e-06,-1.5068932952999603e-05,0.0001211187700391747
2.3295802748179995e-05,-6.028815187164582e-05,3.772397030843422e-05,-1.397904270561412e-06,-8.303343747684266e-06,0.0001408275420544669
2.777592271741014e-05,-5.4114003432914615e-05,3.533899871399626e-05,-2.405918166914489e-07,-4.257972705090651e-06,0.00015120694297365844
3.235524127376266e-05,-4.7862024075584486e-05,3.374880907358602e-05,7.676084351260215e-06,-4.340211035014363e-06,0.00014813609595876187
3.4782595321303234e-05,-4.350644303485751e-05,3.35896183969453e-05,1.5451809304067865e-05,-5.2064915507799014e-06,0.0001334297121502459
3.40361257258337e-05,-4.272167643648572e-05,3.506419307086617e-05,2.0622004740289412e-05,-6.7975961428601295e-06,0.00011192169040441513
3.237197961425409e-05,-4.4752436224371195e-05,3.703157199197449e-05,2.6639545467332937e-05,-8.369575880351476e-06,8.719950710656121e-05
3.365568409208208e-05,-4.558406362775713e-05,3.667736746137962e-05,3.622219810495153e-05,-4.876333605352556e-06,6.477069109678268e-05
3.556064621079713e-05,-4.5669723476748914e-05,3.6302786611486226e-05,4.839054599869996e-05,1.481036861150642e-06,4.9432681407779455e-05
3.217329140170477e-05,-4.7723839088575915e-05,3.664358882815577e-05,5.490953117259778e-05,2.729124389588833e-06,3.3215539588127285e-05
2.3205253455671482e-05,-5.142596273799427e-05,3.159821790177375e-05,5.0616858061403036e-05,-4.464403446036158e-06,1.2921701454615686e-05
2.2199321392690763e-05,-5.473718192661181e-05,2.559237509558443e-05,4.109165820409544e-05,-9.267671885027084e-06,-8.596495717938524e-06
4.2637926526367664e-05,-5.819573561893776e-05,2.6306946892873384e-05,4.1358867747476324e-05,-8.317600077134557e-06,-2.022551780100912e-05
6.716715142829344e-05,-5.831992166349664e-05,2.8636235583689995e-05,3.639548958744854e-05,-7.900352102296893e-06,-2.5398498110007495e-05
7.189213647507131e-05,-5.522205901797861e-05,2.95149384328397e-05,6.455823950091144e-06,-7.331347660510801e-06,-3.434660902712494e-05
5.1805964176310226e-05,-5.3007319365860894e-05,2.8238653612788767e-05,-2.9568465834017843e-05,-7.1957729232963175e-06,-3.246058622607961e-05
2.7382466214476153e-05,-5.0222162826685235e-05,2.62615558312973e-05,-4.462081051315181e-05,-4.0332492972083855e-06,-8.976326171250548e-06
1.4172171177051496e-05,-5.027222141507082e-05,2.719826079555787e-05,-3.7486301152966917e-05,-3.685766841954319e-06,2.673942617548164e-05
8.20520563138416e-06,-5.269032408250496e-05,3.162850043736398e-05,-2.203371695941314e-05,-7.597505373269087e-06,5.721974594052881e-05
-6.268664947128855e-07,-5.269059329293668e-05,3.511529212119058e-05,-1.3841813597537111e-05,-1.2128552953072358e-05,6.877195119159296e-05
-1.3945150385552552e-05,-4.71336861664895e-05,3.388993354747072e-05,-1.8855500456993468e-05,-1.5801637346157804e-05,6.745026621501893e-05
-1.581521974003408e-05,-3.690330049721524e-05,2.8789405405404978e-05,-3.0144836273393594e-05,-1.5164071555773262e-05,6.0099515394540504e-05
2.0935775779662436e-08,-3.437089981161989e-05,2.55400354944868e-05,-4.1862567741191015e-05,-1.5562431144644506e-05,5.027565930504352e-05
1.9949626221205108e-05,-3.904529148712754e-05,2.6091065592481755e-05,-4.4255790271563455e-05,-2.037916965491604e-05,3.465136614977382e-05
2.859849701053463e-05,-4.392036498757079e-05,2.79419055004837e-05,-3.5719967854674906e-05,-3.303144694655202e-05,5.481046173372306e-06
2.8104084776714444e-05,-4.52173117082566e-05,3.0134811822790653e-05,-1.973479811567813e-05,-5.082648931420408e-05,-2.9819671908626333e-05
2.520272755646147e-05,-4.407660162542015e-05,3.062508403672837e-05,-1.522682737231662e-06,-6.568361277459189e-05,-4.7496723709627986e-05
2.5404315238120034e-05,-4.412359339767136e-05,2.750977910181973e-05,1.3475662854034454e-05,-7.319879659917206e-05,-3.532560731400736e-05
2.9841225114068948e-05,-4.614225690602325e-05,2.2796211851527914e-05,2.5446735890000127e-05,-7.442099013132975e-05,-8.223983968491666e-06
3.4108572435798123e-05,-4.9934478738578036e-05,2.1131603716639802e-05,3.474026016192511e-05,-7.249128248076886e-05,1.3417531590675935e-05
3.344458309584297e-05,-5.680790127371438e-05,2.059034159174189e-05,3.7819128920091316e-05,-6.484703772002831e-05,3.09901442960836e-05
2.799077810777817e-05,-6.582440255442634e-05,1.8977771105710417e-05,4.1887858969857916e-05,-4.828478267882019e-05,5.868186053703539e-05
2.2015534341335297e-05,-6.948294321773574e-05,1.9971283109043725e-05,6.040081279934384e-05,-2.1799658497911878e-05,9.535190474707633e-05
1.8257356714457273e-05,-6.680197111563757e-05,2.7687916372087784e-05,9.209348354488611e-05,1.3244607544038445e-05,0.0001332651445409283
1.4137564903649036e-05,-6.208688137121499e-05,3.585802551242523e-05,0.00012613060243893415,4.791801256942563e-05,0.00016012632113415748
9.97570350591559e-06,-5.951250932412222e-05,3.720150198205374e-05,0.000153133092680946,7.41549301892519e-05,0.00016678501560818404
9.063303878065199e-06,-6.127260712673888e-05,3.622182703111321e-05,0.00015903636813163757,8.908652671379969e-05,0.00016549848078284413
1.2778786185663193e-05,-6.671926530543715e-05,3.8321380998240784e-05,0.00013312320515979081,9.16096760192886e-05,0.00017727121303323656
3.582642602850683e-05,-7.061618816806003e-05,3.978015956818126e-05,9.098288137465715e-05,8.137786062434316e-05,0.0001924965181387961
8.350337157025933e-05,-7.733610254945233e-05,3.5741722967941314e-05,4.5702945499215275e-05,5.9978701756335795e-05,0.00019263217109255493
0.00011386183905415237,-8.283367060357705e-05,3.150727934553288e-05,1.3896349628339522e-05,4.2626681533874944e-05,0.00017240946181118488
0.00010214679787168279,-8.016594802029431e-05,3.1657353247283027e-05,1.0490993190614972e-05,3.332854976179078e-05,0.00013905600644648075
6.614006269956008e-05,-7.724396709818393e-05,3.3824551792349666e-05,2.54158403549809e-05,2.4726121409912594e-05,0.00010994419426424429
2.5338093109894544e-05,-7.882004865678027e-05,3.360511618666351e-05,4.068710040883161e-05,1.5459694623132236e-05,8.569860074203461e-05
-5.767842139903223e-06,-7.838413876015693e-05,3.119411485386081e-05,4.838316090172157e-05,9.290229172620457e-06,6.327005394268781e-05
-3.65738887921907e-05,-6.761130498489365e-05,3.138854299322702e-05,5.272559428703971e-05,5.585324288404081e-06,4.234249718138017e-05
-7.700834248680621e-05,-5.034712376073003e-05,3.244511390221305e-05,5.5620574130443856e-05,-4.4043940761184786e-06,2.285906157339923e-05
-0.0001066359254764393,-3.7640176742570475e-05,2.9664179237443022e-05,5.995291212457232e-05,-1.801205326046329e-05,2.695077228054288e-06
-9.170248813461512e-05,-3.516926153679378e-05,2.6566454835119657e-05,6.372440839186311e-05,-2.744038647506386e-05,-1.781307946657762e-05
-4.487066325964406e-05,-3.528298111632466e-05,2.6810412236955017e-05,6.702560494886711e-05,-3.418365304241888e-05,-2.8529093469842337e-05
-4.331184300099267e-06,-3.004477548529394e-05,2.904928805946838e-05,6.370987102854997e-05,-4.3586594983935356e-05,-2.118334305123426e-05
1.2633142432605382e-05,-2.279164982610382e-05,3.1874562409939244e-05,4.971745147486217e-05,-5.1533956138882786e-05,1.0874757663259516e-06
1.842864730861038e-05,-1.976043677132111e-05,3.37992787535768e-05,3.0393171982723288e-05,-5.385047916206531e-05,2.483051321178209e-05
2.4466768081765622e-05,-2.3325621441472322e-05,3.459403524175286e-05,1.725450601952616e-05,-4.939128484693356e-05,4.026149690616876e-05
2.907389534811955e-05,-3.079794623772614e-05,3.4946973755722865e-05,1.5751995306345634e-05,-4.118557262700051e-05,4.3298252421664074e-05
3.166899114148691e-05,-3.816329990513623e-05,3.568385727703571e-05,1.882559445220977e-05,-3.259986624470912e-05,4.026579699711874e-05
3.305021527921781e-05,-4.3007465137634426e-05,3.677564382087439e-05,1.9882976630469784e-05,-2.307680006197188e-05,4.016899401904084e-05
3.450347139732912e-05,-4.3797521357191727e-05,3.866723272949457e-05,1.4796589312027209e-05,-9.291848073189612e-06,4.8097870603669435e-05
3.64752922905609e-05,-4.2274499719496816e-05,3.816147363977507e-05,7.555931915703695e-06,5.717512522096513e-06,6.0346377722453326e-05
4.194685971015133e-05,-4.2600509914336726e-05,3.3627511584199965e-05,4.283587713871384e-06,1.3993551874591503e-05,7.445026858476922e-05
5.137787957210094e-05,-4.4464864913607016e-05,2.8576419936143793e-05,6.951891919015907e-06,1.5757004803163e-05,8.854013140080497e-05
6.323534762486815e-05,-4.3032134271925315e-05,2.5094146621995606e-05,9.954998859029729e-06,1.5319827070925385e-05,9.591462730895728e-05
6.505034252768382e-05,-3.953164195991121e-05,2.5828079742495902e-05,8.669032467878424e-06,1.4727684174431488e-05,9.640657663112506e-05
5.4888823797227815e-05,-3.848886990454048e-05,3.173572986270301e-05,5.5544696806464344e-06,1.3536084225052036e-05,9.51510519371368e-05
4.0520513721276075e-05,-4.002845162176527e-05,3.578987161745317e-05,4.040316525788512e-06,1.0900524102908093e-05,8.779078052612022e-05
2.5739042030181736e-05,-4.4551590690389276e-05,3.415927858441137e-05,5.580916877079289e-06,4.3640288822643925e-06,7.499128696508706e-05
1.081864411389688e-05,-4.851560152019374e-05,3.0244633308029734e-05,9.015192517836113e-06,-4.914072178507922e-06,6.489394581876695e-05
5.207683102526062e-07,-4.936128607369028e-05,2.5416935386601835e-05,5.517586487258086e-06,-1.1085104233643506e-05,5.2950428653275594e-05
-3.3557396363903536e-06,-4.8785201215650886e-05,2.241107176814694e-05,-2.4859734821802704e-06,-1.4407984053832479e-05,3.3999218430835754e-05
8.635489621156012e-07,-4.658579928218387e-05,2.239086097688414e-05,-9.711363418318797e-06,-1.5936446288833395e-05,1.587674159964081e-05
1.3214968021202367e-05,-4.5054090151097625e-05,2.4009106709854677e-05,-1.0694978300307412e-05,-1.802051701815799e-05,2.120864883181639e-05
2.3206510377349332e-05,-4.5999935537111014e-05,2.4864117222023197e-05,-5.71071404920076e-06,-2.2853071641293354e-05,4.959018770023249e-05
2.770455103018321e-05,-4.681115387938917e-05,2.454017521813512e-05,-6.970146273488353e-07,-2.4262777515104972e-05,7.737406849628314e-05
3.73365510313306e-05,-5.019101081416011e-05,2.4547878638259135e-05,4.6710483729839325e-06,-2.4551447495468892e-05,9.145235526375473e-05
5.10055324411951e-05,-5.594308822765015e-05,2.245330142613966e-05,6.850179488537833e-06,-2.5289267796324566e-05,9.051935194293037e-05
5.6014319852693006e-05,-5.887004954274744e-05,2.1410116460174322e-05,5.872993824596051e-06,-2.591405063867569e-05,7.769828516757116e-05
4.926875772071071e-05,-5.8359659306006506e-05,2.592390046629589e-05,3.1837432743486715e-06,-2.6351342967245728e-05,6.238944479264319e-05
4.006090239272453e-05,-5.580004653893411e-05,3.182604268658906e-05,-4.830247235076968e-06,-2.6216703190584667e-05,5.548631088458933e-05
3.551722693373449e-05,-5.360786599339917e-05,3.5053650208283216e-05,-2.1426265448099002e-05,-2.32433267228771e-05,5.7487093727104366e-05
2.9280903618200682e-05,-5.178314313525334e-05,3.59131045115646e-05,-3.848839696729556e-05,-1.946872907865327e-05,6.156537710921839e-05
1.5529773008893244e-05,-4.8930844059213996e-05,3.4682409022934735e-05,-4.400414400151931e-05,-1.8382092093816027e-05,5.8738896768772975e-05
1.6312071693391772e-06,-4.470345447771251e-05,2.9749526220257394e-05,-3.3755266485968605e-05,-1.957623680937104e-05,4.6608747652499005e-05
-9.930065516527975e-07,-4.145894854445942e-05,2.258215863548685e-05,-1.3843256056134123e-05,-2.0283303456380963e-05,3.595580346882343e-05
6.071695679565892e-06,-4.133703623665497e-05,1.9372664610273205e-05,3.4432910069881473e-06,-1.9569930373108946e-05,3.808261317317374e-05
1.3320109246706124e-05,-4.4165437429910526e-05,2.3943046471686102e-05,1.2042384696542285e-05,-1.8432527213008143e-05,5.311427594278939e-05
1.5040005564515013e-05,-4.530475052888505e-05,3.3251679269596934e-05,1.9399192751734518e-05,-1.4746110537089407e-05,6.487753853434697e-05
1.3334358300198801e-05,-4.318755600252189e-05,3.976731386501342e-05,3.0129438528092578e-05,-8.907266419555526e-06,6.243520329007879e-05
1.2021274415019434e-05,-4.2293377191526815e-05,3.9593520341441035e-05,4.33279165008571e-05,-5.897337359783705e-06,5.0797676522051916e-05
1.5809599062777124e-05,-4.443166108103469e-05,3.709259908646345e-05,5.840831727255136e-05,-8.607614290667698e-06,4.311470911488868e-05
2.9561466362793e-05,-4.7302786697400734e-05,3.510875103529543e-05,7.027529500192031e-05,-1.1420918781368528e-05,5.318249168340117e-05
5.6185181165346876e-05,-4.6681812818860635e-05,3.1452807888854295e-05,7.36187503207475e-05,-1.4190646652423311e-05,7.452421414200217e-05
8.310058910865337e-05,-4.3838026613229886e-05,2.969922570628114e-05,7.26978323655203e-05,-1.4918809029040858e-05,8.72058080858551e-05
9.243340173270553e-05,-4.5026321458863094e-05,3.376994936843403e-05,7.577685755677521e-05,-1.4028390978637617e-05,9.234352182829753e-05
7.728369382675737e-05,-5.074155342299491e-05,3.579324038582854e-05,8.059063111431897e-05,-1.644883923290763e-05,9.266893903259188e-05
4.267417170922272e-05,-5.4372088925447315e-05,3.125914008705877e-05,7.84007934271358e-05,-2.011845754168462e-05,8.090218034340069e-05
4.222365987516241e-06,-5.5354044889099896e-05,2.8003574698232114e-05,6.684836989734322e-05,-2.2237361918087117e-05,7.107930287020281e-05
-2.6203924790024757e-05,-5.3635158110409975e-05,2.946923632407561e-05,4.9679583753459156e-05,-2.077785575238522e-05,6.928808579687029e-05
-4.5443634007824585e-05,-4.737014023703523e-05,3.416260733501986e-05,3.613439548644237e-05,-1.7657481294008903e-05,7.33026972739026e-05
-5.3726787882624194e-05,-4.438771793502383e-05,3.898852810380049e-05,2.86306458292529e-05,-1.664148294366896e-05,7.721941074123606e-05
-4.61038616776932e-05,-4.9148402467835695e-05,4.086003900738433e-05,1.8954255210701376e-05,-1.5963229088811204e-05,6.460084114223719e-05
-2.8487744202720933e-05,-6.001055226079188e-05,3.8588885217905045e-05,1.1183580681972671e-05,-1.4491311958408915e-05,3.717926301760599e-05
-1.1052299669245258e-05,-6.886998744448647e-05,3.260733137722127e-05,7.388595349766547e-06,-1.164612785942154e-05,1.4766386811970733e-05
4.280872872186592e-06,-6.944618507986888e-05,2.9954635465401225e-05,4.575704224407673e-06,-9.191099707095418e-06,1.2142662853875663e-05
1.60195013449993e-05,-6.043142275302671e-05,3.1919007597025484e-05,-1.0062947097821962e-07,-9.106933248403948e-06,2.8411552193574607e-05
1.9207389414077625e-05,-4.940954750054516e-05,3.343417483847588e-05,-4.695657935371855e-06,-9.090161256608553e-06,4.947841807734221e-05
9.376159141538665e-06,-4.232945866533555e-05,3.257197386119515e-05,-1.4894696960254805e-06,-8.508523933414835e-06,5.87396789342165e-05
-3.1965109883458354e-06,-3.9193346310639754e-05,3.189681956428103e-05,1.0309187018719967e-05,-1.084412906493526e-05,5.458783562062308e-05
-2.1907235350226983e-06,-4.018471372546628e-05,3.286334322183393e-05,2.406559360679239e-05,-1.4900236237735953e-05,5.2160106861265376e-05
1.3666546692547854e-05,-4.1823725041467696e-05,3.278754957136698e-05,3.5147768358001485e-05,-1.7991173081099987e-05,6.739525269949809e-05
