2.67683899437543e-05,-5.015814531361684e-05,3.202786683687009e-05,4.2840194510063156e-05,9.111126928473823e-06,-1.4437933714361861e-05
2.3886281269369647e-05,-5.246930231805891e-05,2.8665461286436766e-05,3.913667023880407e-05,2.80831068266707e-06,1.6598054571659304e-05
1.684086055320222e-05,-5.227571455179714e-05,2.9063414331176318e-05,3.857244155369699e-05,-1.0140194035557215e-06,2.716130984481424e-05
1.4135526726022363e-05,-5.01015420013573e-05,3.0555936973541975e-05,4.151825123699382e-05,-4.492612333706347e-06,2.2399935915018432e-05
1.93941559700761e-05,-4.884260124526918e-05,3.1219602533383295e-05,4.2260802729288116e-05,-8.312899808515795e-06,2.6901439923676662e-05
2.3467986466130242e-05,-5.196857455302961e-05,3.117486267001368e-05,3.946245851693675e-05,-1.2948044059157837e-05,4.247728065820411e-05
1.964150033018086e-05,-5.5035503464750946e-05,3.170020863763057e-05,3.1309893529396504e-05,-1.623073694645427e-05,5.6005814258242026e-05
1.329302631347673e-05,-5.3771444072481245e-05,3.19104474328924e-05,2.2664153220830485e-05,-1.7201773516717367e-05,6.739445234416053e-05
1.113643611461157e-05,-5.240572863840498e-05,3.08599483105354e-05,1.8871700376621448e-05,-1.3827175280312076e-05,7.341758464463055e-05
1.2879670975962654e-05,-5.087677709525451e-05,2.863156441890169e-05,1.9801498638116755e-05,-9.645447789807804e-06,7.623476267326623e-05
1.555506605654955e-05,-4.705439641838893e-05,2.7473519367049448e-05,2.0939249225193635e-05,-7.721357178525068e-06,7.889389235060662e-05
1.9755287212319672e-05,-4.408121822052635e-05,2.9448920031427406e-05,1.9135992260999046e-05,-4.9278055485046934e-06,8.025106217246503e-05
2.1689524146495387e-05,-4.493874803301878e-05,3.122397174593061e-05,1.902497751871124e-05,-1.6008641523512779e-06,7.830751565052196e-05
1.9636638171505183e-05,-4.677561446442269e-05,3.0478520784527063e-05,2.210570892202668e-05,-1.1625650131463772e-06,7.500025822082534e-05
1.7426307749701664e-05,-4.842265116167255e-05,2.9819462724844925e-05,2.7707463232218288e-05,-4.630287548934575e-06,7.147375436034054e-05
1.6749494534451514e-05,-5.101946953800507e-05,3.071634273510426e-05,3.287418803665787e-05,-8.70671010488877e-06,6.866196781629696e-05
1.5770643585710786e-05,-5.077483001514338e-05,3.140520129818469e-05,3.591321001295e-05,-1.2457469892979134e-05,6.946775829419494e-05
1.3512487385014538e-05,-4.33281202276703e-05,3.2009997084969655e-05,3.464980181888677e-05,-1.6473019059048966e-05,6.867716001579538e-05
1.4569078302884009e-05,-3.2003943488234654e-05,3.37059645971749e-05,3.197381738573313e-05,-1.9695264199981466e-05,6.215398025233299e-05
1.9799959773081355e-05,-2.6641873773769476e-05,3.456909689703025e-05,3.159269181196578e-05,-1.86270317499293e-05,5.5032851378200576e-05
2.2762022126698866e-05,-3.0416638765018433e-05,3.3226711821043864e-05,3.102921255049296e-05,-1.3601864338852465e-05,5.197674181545153e-05
2.0238441720721312e-05,-3.898667637258768e-05,2.897202648455277e-05,2.6257803256157786e-05,-8.34632919577416e-06,5.35277504241094e-05
1.59845676535042e-05,-4.494990571402013e-05,2.3312479243031703e-05,2.381762897130102e-05,-7.206864211184438e-06,5.614697147393599e-05
1.531883026473224e-05,-4.752683889819309e-05,2.2762364096706733e-05,2.7016320018447004e-05,-1.0644862413755618e-05,5.836773925693706e-05
2.0585255697369576e-05,-5.001873796572909e-05,2.5946161258616485e-05,2.6312591216992587e-05,-1.4178463970893063e-05,6.299597589531913e-05
2.3300282919080928e-05,-5.155813414603472e-05,2.8881502657895908e-05,1.983421498152893e-05,-1.3794437109027058e-05,7.03129917383194e-05
2.3359063561656512e-05,-5.0567236030474305e-05,2.7610418328549713e-05,1.416234954376705e-05,-1.0618223313940689e-05,7.46975711081177e-05
2.476498957548756e-05,-4.988901855540462e-05,2.626343302836176e-05,1.4865837329125497e-05,-7.642456694156863e-06,7.467738760169595e-05
2.629084156069439e-05,-4.680830170400441e-05,2.8945236408617347e-05,2.255829531350173e-05,-6.890260010550264e-06,7.666229794267565e-05
2.61201748799067e-05,-4.545034244074486e-05,2.9865779652027413e-05,3.1722178391646594e-05,-9.588437933416571e-06,8.124910527840257e-05
2.3883751055109315e-05,-5.103267903905362e-05,3.0343331673066132e-05,3.634448512457311e-05,-1.3323105122253764e-05,9.442366717848927e-05
2.2449819880421273e-05,-5.4185504268389195e-05,3.163077781209722e-05,3.546590232872404e-05,-1.529068686068058e-05,0.00010561721137491986
2.3042837710818276e-05,-5.359555143513717e-05,3.425176328164525e-05,3.8989834138192236e-05,-1.44406722029089e-05,0.00010367370123276487
2.5868803277262487e-05,-5.020995740778744e-05,3.547858796082437e-05,4.2367417336208746e-05,-1.271316796191968e-05,9.591286652721465e-05
2.7807274818769656e-05,-4.802135663339868e-05,3.420349094085395e-05,3.9854898204794154e-05,-1.391433397657238e-05,8.853529288899153e-05
2.7980819140793756e-05,-4.8938338295556605e-05,3.4399417927488685e-05,3.515404023346491e-05,-1.8365495634498075e-05,8.43960588099435e-05
2.7098290956928395e-05,-4.990450543118641e-05,3.3959477150347084e-05,3.3231750421691686e-05,-2.1897702026763e-05,7.624083809787408e-05
2.6472393074072897e-05,-4.929223359795287e-05,3.194161399733275e-05,3.776110679609701e-05,-2.1422849385999143e-05,5.697988672181964e-05
2.6901589080807753e-05,-4.8978465201798826e-05,3.082251350861043e-05,4.261750291334465e-05,-1.848674401117023e-05,2.8734761144733056e-05
2.7165930077899247e-05,-4.955665281158872e-05,3.255514457123354e-05,4.2667859815992415e-05,-1.704349779174663e-05,1.1290587281109765e-05
2.7511016014614142e-05,-5.052945198258385e-05,3.4170789149357006e-05,3.885044134221971e-05,-1.6995449186651967e-05,1.785366293916013e-05
2.7287929697195068e-05,-5.269876783131622e-05,3.34883043251466e-05,3.680074223666452e-05,-1.7123044017353095e-05,3.5681077861227095e-05
2.5666740839369595e-05,-5.372257874114439e-05,3.0777984648011625e-05,3.4338208934059367e-05,-1.473008614993887e-05,4.852583515457809e-05
2.337851037736982e-05,-5.193591641727835e-05,2.9027205528109334e-05,3.1095114536583424e-05,-1.3188246157369576e-05,5.368144775275141e-05
2.028477865678724e-05,-4.952207746100612e-05,3.0016830351087265e-05,2.801969640131574e-05,-1.6232052075793035e-05,5.309258995112032e-05
1.6295169189106673e-05,-5.089163823868148e-05,3.217862467863597e-05,2.6453011741978116e-05,-2.0673731341958046e-05,5.216066347202286e-05
1.4579998605768196e-05,-5.166592382011004e-05,3.3758642530301586e-05,2.9865494070691057e-05,-2.1236188331386074e-05,5.281002086121589e-05
1.538230753794778e-05,-4.843578062718734e-05,3.532166010700166e-05,3.58751967723947e-05,-1.8251123037771322e-05,5.270080146146938e-05
1.642995630390942e-05,-4.6135945012792945e-05,3.561109770089388e-05,3.638861016952433e-05,-1.3888032299291808e-05,5.1517752581276e-05
1.666810203460045e-05,-4.592381083057262e-05,3.2505417038919404e-05,3.324112549307756e-05,-8.477308256260585e-06,5.110525307827629e-05
1.5922447346383706e-05,-4.685843305196613e-05,3.06066831399221e-05,3.206172550562769e-05,-5.62813283977448e-06,5.743685323977843e-05
1.6838359442772344e-05,-4.993555921828374e-05,3.1294443033402786e-05,3.112546255579218e-05,-6.810667855461361e-06,6.690328154945746e-05
2.1645779270329513e-05,-5.3603584092343226e-05,3.2416264730272815e-05,2.8827391361119226e-05,-9.773474630492274e-06,6.783948629163206e-05
2.6958516173181124e-05,-5.317242903402075e-05,3.2058633223641664e-05,2.5778295821510255e-05,-8.760110176808666e-06,6.529442907776684e-05
2.4520693841623142e-05,-4.743432509712875e-05,2.9457803975674324e-05,2.156378650397528e-05,-6.650471277680481e-06,7.249113696161658e-05
1.9105385945294984e-05,-4.302265006117523e-05,3.0368735679076053e-05,1.9405506463954225e-05,-6.483513516286621e-06,8.26860050437972e-05
1.9251267076469958e-05,-4.4333057303447276e-05,3.5782290069619194e-05,1.773182157194242e-05,-6.841039066785015e-06,8.664739289088175e-05
2.0631763618439436e-05,-4.790462116943672e-05,3.787846799241379e-05,1.370886093354784e-05,-9.465946277487092e-06,8.92488460522145e-05
2.2284237275016494e-05,-4.957651981385425e-05,3.6367859138408676e-05,1.2035428881063126e-05,-9.525465429760516e-06,0.0001034516462823376
2.065452645183541e-05,-5.060220792074688e-05,3.583322904887609e-05,1.2405392226355616e-05,-8.581185284128878e-06,0.00012106385111110285
1.4841010852251202e-05,-5.043306737206876e-05,3.86742249247618e-05,1.4878794900141656e-05,-8.246647666965146e-06,0.00012526760110631585
1.088500448531704e-05,-4.970987720298581e-05,4.056417674291879e-05,1.8002170691033825e-05,-8.774190973781515e-06,0.00011402874224586412
8.818376954877749e-06,-4.931397779728286e-05,4.0093269490171224e-05,1.842252822825685e-05,-1.2452613191271666e-05,8.633540710434318e-05
8.804639037407469e-06,-5.1467297453200445e-05,4.078376878169365e-05,1.631553823244758e-05,-1.446366968593793e-05,4.915621320833452e-05
9.427268196304794e-06,-5.334700836101547e-05,3.983476563007571e-05,1.6377976862713695e-05,-1.3934402886661701e-05,1.3639387361763511e-05
1.1447175893408712e-05,-5.1905488362535834e-05,3.6334800824988633e-05,2.173184657294769e-05,-1.1780396562244277e-05,-1.671583049756009e-05
1.5685860489611514e-05,-5.075573062640615e-05,3.21588886436075e-05,3.0277788027888164e-05,-1.146836166299181e-05,-4.0549635741626844e-05
1.8744400222203694e-05,-5.032764602219686e-05,2.837544343492482e-05,3.4380827855784446e-05,-1.0214672329311725e-05,-4.412129783304408e-05
1.7905913409776986e-05,-4.85661112179514e-05,2.627582216518931e-05,3.662806921056472e-05,-5.2601426432374865e-06,-2.061831946775783e-05
1.5889252608758397e-05,-4.5427172153722495e-05,2.6850846552406438e-05,4.3659747461788356e-05,1.2779284475072927e-07,2.2147869458422065e-05
1.683958362264093e-05,-4.439772237674333e-05,2.9651941076735966e-05,4.950309084961191e-05,5.427875180430419e-07,7.058276969473809e-05
2.1880792701267637e-05,-4.6159198973327875e-05,3.309187013655901e-05,4.70702325401362e-05,-3.5143048080499284e-06,0.0001071617953130044
2.9006876502535306e-05,-4.9012814997695386e-05,3.647107951110229e-05,4.119576988159679e-05,-9.223195775120985e-06,0.0001173403361462988
3.471594754955731e-05,-4.898306360701099e-05,3.7134523154236376e-05,3.840012141154148e-05,-1.4479053788818419e-05,0.00010686682799132541
3.920881499652751e-05,-4.810127938981168e-05,3.2579057005932555e-05,3.9671402191743255e-05,-1.6559522919123992e-05,8.728080138098449e-05
4.194534267298877e-05,-4.9806501920102164e-05,2.6428968340042047e-05,4.238195833750069e-05,-1.5047310625959653e-05,5.311658242135309e-05
4.009302210761234e-05,-5.374133252189495e-05,2.4321101591340266e-05,4.418516982696019e-05,-1.3074946764390916e-05,3.97550411435077e-06
3.402582660783082e-05,-5.967136166873388e-05,2.439077798044309e-05,4.451653148862533e-05,-1.156457256001886e-05,-3.6252553400117904e-05
2.8817541533499025e-05,-6.102522092987783e-05,2.7174834031029604e-05,4.2515835957601666e-05,-8.280355359602254e-06,-3.2377600291511044e-05
2.6640671421773732e-05,-5.357913687475957e-05,3.191273208358325e-05,4.037936741951853e-05,-5.982421953376615e-06,1.1746731615858153e-05
2.642131039465312e-05,-4.695878305938095e-05,3.437285704421811e-05,3.895505869877525e-05,-6.7168125497119036e-06,5.448188676382415e-05
2.6025532861240208e-05,-4.6414770622504875e-05,3.4746004530461505e-05,3.749226743821055e-05,-8.768911357037723e-06,7.070957508403808e-05
2.6810017516254447e-05,-4.88001860503573e-05,3.4162785595981404e-05,3.762239430216141e-05,-7.312762136280071e-06,7.039152114884928e-05
2.905416113208048e-05,-5.0709313654806465e-05,3.670598744065501e-05,4.0562204958405346e-05,-1.834715931181563e-06,7.131348684197292e-05
3.123715941910632e-05,-5.2414528909139335e-05,3.8540085370186716e-05,4.23484634666238e-05,4.693322807725053e-06,7.93118160800077e-05
3.507567453198135e-05,-5.228584268479608e-05,3.704092523548752e-05,4.244088631821796e-05,6.359171493386384e-06,8.501512638758868e-05
3.6054370866622776e-05,-5.167545168660581e-05,3.3935782994376495e-05,4.17642186221201e-05,5.354891982278787e-06,8.35955361253582e-05
3.289339292678051e-05,-5.17850712640211e-05,3.046054916922003e-05,3.805341475526802e-05,2.7829021291836398e-06,8.818940841592848e-05
2.8201711756992154e-05,-5.140452412888408e-05,2.9716566132265143e-05,3.01804411719786e-05,-6.492944066849304e-07,9.77298041107133e-05
2.6784433430293575e-05,-5.141736983205192e-05,2.8510015908977948e-05,2.3139644326874986e-05,-3.099117066085455e-06,0.00010033080616267398
2.925989065261092e-05,-5.169297583051957e-05,2.3751359549351037e-05,1.938340392371174e-05,-7.000157893344294e-06,9.558371675666422e-05
2.9441174774547108e-05,-5.264591163722798e-05,1.851717934187036e-05,1.989748670894187e-05,-1.2399334082147107e-05,8.830708975438029e-05
2.629968548717443e-05,-5.351222716853954e-05,1.7105427104979753e-05,2.123090234817937e-05,-1.518516000942327e-05,8.544511365471408e-05
2.3006889023236e-05,-5.250135654932819e-05,2.0060702809132636e-05,2.0914332708343863e-05,-1.2007641089439858e-05,8.86359775904566e-05
2.1407500753412023e-05,-4.914620512863621e-05,2.36750074691372e-05,2.1624951841658913e-05,-7.571440619358327e-06,9.274395415559411e-05
2.0510635295067914e-05,-4.795236236532219e-05,2.627221510920208e-05,2.435590977256652e-05,-6.993156148382695e-06,9.073960245586932e-05
2.0049648810527287e-05,-5.089624391985126e-05,2.8342732548480853e-05,2.8967564503545873e-05,-9.009824680106249e-06,8.213575347326696e-05
1.931484257511329e-05,-5.5562984925927594e-05,3.0014807634870522e-05,3.0607985536335036e-05,-1.0161071259062737e-05,6.994482828304172e-05
1.6724814486224204e-05,-5.7177647249773145e-05,3.158792605972849e-05,2.6414312742417678e-05,-1.3290735296322964e-05,5.606182457995601e-05
1.1521759915922303e-05,-5.773039811174385e-05,3.031124288099818e-05,2.1297391867847182e-05,-2.3255024643731304e-05,4.066935071023181e-05
7.743875357846264e-06,-6.0041733377147466e-05,2.4591477995272726e-05,2.2382440874935128e-05,-3.752986958716065e-05,2.81251977867214e-05
7.091213319654344e-06,-5.941202107351273e-05,1.9564555259421468e-05,2.6873030947172083e-05,-5.0964823458343744e-05,3.0028653782210313e-05
6.514262167911511e-06,-5.380147194955498e-05,2.1847923562745564e-05,3.0167686418280937e-05,-6.216504698386416e-05,4.853615610045381e-05
7.220804945973214e-06,-5.058448005001992e-05,2.7334133847034536e-05,3.465983900241554e-05,-7.177689985837787e-05,6.59945362713188e-05
1.2536164831544738e-05,-5.115741805639118e-05,3.076818757108413e-05,3.9679292967775837e-05,-7.745873153908178e-05,6.841163849458098e-05
1.7101545381592587e-05,-5.587080886471085e-05,3.1989759008865803e-05,4.0860719309421256e-05,-7.880084740463644e-05,6.157004099804908e-05
1.7785479940357618e-05,-6.102353290771134e-05,3.1791088986210525e-05,3.771910269279033e-05,-7.692752114962786e-05,5.676670480170287e-05
1.7798050976125523e-05,-6.0228194342926145e-05,3.1659405067330226e-05,3.6256766179576516e-05,-7.12245746399276e-05,6.076240606489591e-05
1.92220486496808e-05,-5.3364776249509305e-05,3.03248471027473e-05,3.456804915913381e-05,-6.072708856663667e-05,6.946505163796246e-05
1.857532697613351e-05,-4.7105178964557126e-05,3.20473664032761e-05,2.7826890800497495e-05,-4.2281255446141586e-05,7.407442899420857e-05
1.647051794861909e-05,-4.496502879192121e-05,3.584218575269915e-05,2.1299085346981883e-05,-1.5804664144525304e-05,6.908742216182873e-05
1.60387389769312e-05,-4.448017352842726e-05,3.4036103897960857e-05,1.8418344552628696e-05,1.4024887605046388e-05,6.209387356648222e-05
1.4903192095516715e-05,-4.678643381339498e-05,2.7998166842735372e-05,2.0623148884624243e-05,4.03108679165598e-05,5.756199607276358e-05
1.690459430392366e-05,-4.7603378334315494e-05,2.4377324734814465e-05,2.496500383131206e-05,6.220577779458836e-05,5.750944183091633e-05
2.0229408619343303e-05,-4.746886042994447e-05,2.7442803911981173e-05,2.9510314561775886e-05,7.612049375893548e-05,6.237060006242245e-05
2.1183643184485845e-05,-4.663076833821833e-05,3.249097790103406e-05,2.9076112696202472e-05,7.937119517009705e-05,6.69978981022723e-05
2.0519260942819528e-05,-4.897320832242258e-05,3.2689535146346316e-05,2.419775591988582e-05,7.119774090824649e-05,6.703416147502139e-05
1.9538128981366754e-05,-5.2570139814633876e-05,3.065410419367254e-05,2.0361097995191813e-05,5.78590806981083e-05,6.206747639225796e-05
2.1662172002834268e-05,-5.4056512453826144e-05,3.0429899197770283e-05,2.037345984717831e-05,4.429008549777791e-05,6.053292963770218e-05
2.6665300538297743e-05,-5.304173828335479e-05,3.259742879890837e-05,2.121097713825293e-05,2.8690526960417628e-05,6.378834223141894e-05
3.079153975704685e-05,-5.165183392819017e-05,3.444039975875057e-05,2.0439105355762877e-05,1.2283454452699516e-05,6.65807310724631e-05
3.406650648685172e-05,-5.232497278484516e-05,3.499029844533652e-05,2.2113172235549428e-05,-1.4158058547764085e-06,6.532587576657534e-05
3.506470238789916e-05,-5.383911411627196e-05,3.5191915230825543e-05,2.6390027414890938e-05,-1.0644685062288772e-05,6.408053013728932e-05
3.1274190405383706e-05,-5.5046824854798615e-05,3.3170708775287494e-05,2.9556062145275064e-05,-1.6888947357074358e-05,6.370413029799238e-05
2.6299905584892258e-05,-5.4827843996463344e-05,3.1331608624896035e-05,3.056709829252213e-05,-2.1083353203721344e-05,6.349373870762065e-05
2.5632898541516624e-05,-5.301988494466059e-05,3.3049407647922635e-05,3.086299329879694e-05,-2.3594717276864685e-05,6.191586726345122e-05
2.8704642318189144e-05,-5.019892341806553e-05,3.6792476748814806e-05,3.115027357125655e-05,-2.0148161638644524e-05,6.068870789022185e-05
3.2552612537983805e-05,-4.9699425289873034e-05,3.8994465285213664e-05,3.326051228214055e-05,-1.0175516763410997e-05,6.141400808701292e-05
3.526873479131609e-05,-4.966138658346608e-05,3.784973159781657e-05,3.496028148219921e-05,-9.13540645797184e-07,6.202918302733451e-05
3.5283257602714e-05,-4.932638694299385e-05,3.3872875064844266e-05,3.726567956618965e-05,2.1657174329448026e-06,6.488658982561901e-05
3.4248434531036764e-05,-4.744081888929941e-05,3.043229298782535e-05,4.1836974560283124e-05,4.688035460276296e-06,6.9350418925751e-05
3.5092631151201203e-05,-4.5255448640091345e-05,3.209703208995052e-05,5.04659183206968e-05,8.257960871560499e-06,7.197057129815221e-05
3.541643309290521e-05,-4.418185562826693e-05,3.642376032075845e-05,5.870650784345344e-05,1.258768043044256e-05,7.048199768178165e-05
2.9545670258812606e-05,-4.549025834421627e-05,3.6613011616282165e-05,6.147687236079946e-05,1.2510255146480631e-05,6.525062781292945e-05
2.423803562123794e-05,-4.672711293096654e-05,3.469569128355943e-05,5.4526226449524984e-05,7.047552571748383e-06,5.534025331144221e-05
2.3822956791264005e-05,-4.316541162552312e-05,3.44810941896867e-05,4.1493261960567906e-05,1.5435841760336189e-06,4.697304393630475e-05
2.1357895093387924e-05,-4.079745849594474e-05,3.575843584258109e-05,3.3232565328944474e-05,1.1093636658188188e-06,4.970524969394319e-05
1.6207801309064962e-05,-4.673180592362769e-05,3.760854815482162e-05,3.0167424483806826e-05,3.7229472127364716e-06,5.3511143050855026e-05
1.110217363020638e-05,-5.316329043125734e-05,3.7545734812738374e-05,2.7270834834780544e-05,-5.523261847883987e-07,5.229967428022064e-05
8.076838639681228e-06,-5.217553916736506e-05,3.514668787829578e-05,2.332336407562252e-05,-8.902184163162019e-06,5.8893481764243916e-05
7.761447704979219e-06,-4.7324676415883005e-05,3.377878601895645e-05,1.9565066395443864e-05,-1.3871185728930868e-05,7.47896046959795e-05
8.583789167460054e-06,-4.517264824244194e-05,3.380772614036687e-05,1.9837787476717494e-05,-1.3864113498129882e-05,8.54585159686394e-05
9.80845379672246e-06,-4.6110937546472996e-05,3.3907901524798945e-05,2.7282751034363173e-05,-1.4662708053947426e-05,8.41148357721977e-05
1.08484073280124e-05,-4.568483564071357e-05,3.2697618735255674e-05,3.324624049128033e-05,-1.939461253641639e-05,7.726540206931531e-05
1.3980651601741556e-05,-4.392940172692761e-05,2.9497181458282284e-05,3.490024755592458e-05,-2.7578789740800858e-05,6.431594374589622e-05
2.020351712417323e-05,-4.278316191630438e-05,2.7091389711131342e-05,3.243207902414724e-05,-3.3133732358692214e-05,4.919373168377206e-05
2.871074502763804e-05,-4.2092171497642994e-05,2.6863634047913365e-05,2.38990814978024e-05,-3.251236557844095e-05,3.1561212381348014e-05
3.4553555451566353e-05,-4.198149326839484e-05,2.816045525833033e-05,1.4000981536810286e-05,-2.9888040444348007e-05,1.4345042472996283e-05
3.469855437288061e-05,-4.2101553844986483e-05,3.083662159042433e-05,6.640183528361376e-06,-2.7268848498351872e-05,6.150846274977084e-06
3.217511766706593e-05,-4.2297291656723246e-05,3.288691368652508e-05,2.6506866106501548e-06,-2.336292527616024e-05,9.224751011061016e-06
2.926946217485238e-05,-4.3199041101615876e-05,3.201239451300353e-05,2.7840371785714524e-06,-2.1411975467344746e-05,1.9101307771052234e-05
2.553045669628773e-05,-4.469031046028249e-05,3.0371731554623693e-05,6.05707464274019e-06,-2.134099486283958e-05,3.0193776183295995e-05
2.0443776520551182e-05,-4.557463398668915e-05,3.0487592084682547e-05,5.831962425872916e-06,-2.041774132521823e-05,4.183334021945484e-05
1.5674197129555978e-05,-4.767649443238042e-05,3.239906800445169e-05,2.9593275030492805e-06,-2.022360422415659e-05,5.4404925322160125e-05
1.2609063560375944e-05,-5.126775067765266e-05,3.291333268862218e-05,3.216509185222094e-06,-1.9780403818003833e-05,6.0342052165651694e-05
1.0221145203104243e-05,-5.328350744093768e-05,2.923878673755098e-05,7.045752681733575e-06,-1.6055726518970914e-05,5.145123941474594e-05
6.755086815246614e-06,-5.3587762522511184e-05,2.5197796276188456e-05,1.219528894580435e-05,-8.076565791270696e-06,3.759774335776456e-05
6.606362603633897e-06,-5.3914383897790685e-05,2.7604171918937936e-05,1.7164282326120883e-05,-1.2265983286852133e-06,3.001354525622446e-05
1.1824698958662339e-05,-5.41212793905288e-05,3.237304918002337e-05,2.1463836674229242e-05,9.246748504665447e-07,3.183492663083598e-05
1.4360481145558879e-05,-5.3231578931445256e-05,3.449307769187726e-05,2.7736097763408907e-05,4.6176165824363125e-07,3.6821609683102e-05
1.4607438970415387e-05,-4.9480204324936494e-05,3.49925976479426e-05,3.8415459130192176e-05,1.0100374083776842e-06,4.450387496035546e-05
2.020979991357308e-05,-4.299947613617405e-05,3.515835487633012e-05,4.843181523028761e-05,2.8702741019515088e-06,5.380708535085432e-05
2.7647067327052355e-05,-4.1170133044943213e-05,3.1302599381888285e-05,5.2669362048618495e-05,1.7190275229950203e-06,6.0337686591083184e-05
2.838823274942115e-05,-4.554307088255882e-05,2.217099790868815e-05,4.913751399726607e-05,-3.4032502753689187e-06,6.996273441473022e-05
2.4778071747277863e-05,-4.81322240375448e-05,1.7961187040782534e-05,4.49044891865924e-05,-1.0741549886006396e-05,7.641004049219191e-05
2.1448580810101703e-05,-4.7525958507321775e-05,1.993998375837691e-05,4.2906831367872655e-05,-1.6972608136711642e-05,6.785900768591091e-05
1.668566073931288e-05,-5.099744157632813e-05,2.2347152480506338e-05,3.960380854550749e-05,-1.7372383808833547e-05,5.608530773315579e-05
1.3344539183890447e-05,-5.602399687631987e-05,2.5466542865615338e-05,3.254468538216315e-05,-1.4663274669146631e-05,5.50612312508747e-05
1.226848235091893e-05,-5.780245191999711e-05,2.896497790061403e-05,2.6389230697532184e-05,-1.1833931239380036e-05,6.11650466453284e-05
1.2746576430799905e-05,-5.698681343346834e-05,3.055365232285112e-05,2.5076320525840856e-05,-1.2726231943815947e-05,6.342622509691864e-05
1.4312268831417896e-05,-5.6764438340906054e-05,3.1507559469901025e-05,2.5513110813335516e-05,-1.8400842236587778e-05,6.701100937789306e-05
1.578374758537393e-05,-5.652753679896705e-05,3.096765431109816e-05,2.8099992050556466e-05,-2.111374124069698e-05,7.785703928675503e-05
1.5320469174184836e-05,-5.493914432008751e-05,3.1752384529681876e-05,2.750420208030846e-05,-1.687977055553347e-05,8.667679503560066e-05
1.5151016668824013e-05,-5.31603982381057e-05,3.712395118782297e-05,2.53351972787641e-05,-1.0642786946846172e-05,8.995012467494234e-05
1.4610561265726574e-05,-5.2711580792674795e-05,4.027932300232351e-05,2.4473978555761278e-05,-6.0965089687670115e-06,8.974601951194927e-05
1.2750079804391135e-05,-5.2414216042961925e-05,3.788114554481581e-05,2.4983208277262747e-05,-5.559554665524047e-06,8.556593820685521e-05
9.740927453094628e-06,-5.188013892620802e-05,3.484574335743673e-05,2.3268574295798317e-05,-7.864635335863568e-06,7.816188008291647e-05
7.71652594266925e-06,-5.159975989954546e-05,3.4118078474421054e-05,1.974355836864561e-05,-9.933211913448758e-06,6.846147152828053e-05
1.0081243999593426e-05,-5.0281105359317735e-05,3.274150367360562e-05,1.9675770090543665e-05,-1.2665084796026349e-05,6.0734222643077374e-05
1.628812970011495e-05,-4.78448455396574e-05,3.1300922273658216e-05,2.154023968614638e-05,-1.6063986549852416e-05,5.798818892799318e-05
2.1474743334692903e-05,-4.590400567394681e-05,3.3426218578824773e-05,2.0420666260179132e-05,-1.907520527311135e-05,5.872365727555007e-05
2.2113592422101647e-05,-4.30581858381629e-05,3.680613372125663e-05,1.8131531760445796e-05,-2.0813951778109185e-05,5.915384826948866e-05
2.1206302335485816e-05,-3.54871699528303e-05,3.8566868170164526e-05,2.3123931896407157e-05,-2.030946416198276e-05,5.4725267546018586e-05
2.0397192201926373e-05,-2.868624505936168e-05,3.8371279515558854e-05,3.370407648617402e-05,-1.6737603800720535e-05,4.076875848113559e-05
1.8996546714333817e-05,-2.868474075512495e-05,3.501805986161344e-05,4.225264274282381e-05,-1.410122149536619e-05,1.9019440514966846e-05
1.6675772712915204e-05,-3.4948086977237836e-05,3.0827217415208e-05,4.5071741624269634e-05,-1.568530387885403e-05,8.425845408055466e-06
1.5999299648683518e-05,-4.329855801188387e-05,3.0441771741607226e-05,4.436665403773077e-05,-1.9578825231292285e-05,2.4745990231167525e-05
1.6968755517154932e-05,-4.9449481593910605e-05,3.176119571435265e-05,4.230058038956486e-05,-2.6410103600937873e-05,5.361345756682567e-05
1.8497867131372914e-05,-5.36258849024307e-05,2.9513545086956583e-05,3.792872666963376e-05,-4.2524894524831325e-05,7.031960558379069e-05
2.07328557735309e-05,-6.244635733310133e-05,2.893854798458051e-05,2.865765054593794e-05,-6.851283251307905e-05,6.467183266067877e-05
2.315762685611844e-05,-7.065535464789718e-05,3.551884219632484e-05,2.4419907276751474e-05,-8.110197813948616e-05,5.680930189555511e-05
2.5759716663742438e-05,-7.345226185861975e-05,3.8821290218038484e-05,2.4701004804228432e-05,-7.293119415408e-05,6.201950600370765e-05
2.844042501237709e-05,-7.322632882278413e-05,3.5220560675952584e-05,2.0769941329490393e-05,-5.616689668386243e-05,6.735057104378939e-05
2.7427155146142468e-05,-7.215251389425248e-05,3.250722511438653e-05,1.8281780285178684e-05,-3.79686061933171e-05,6.561997724929824e-05
2.5302641006419435e-05,-6.994559953454882e-05,3.528372326400131e-05,1.941223854373675e-05,-2.815945481415838e-05,5.8826120948651806e-05
2.657288860064e-05,-6.580854096682742e-05,4.095493568456732e-05,1.827100641094148e-05,-2.0601120922947302e-05,5.651516403304413e-05
2.947376196971163e-05,-6.246259727049619e-05,4.1631537897046655e-05,1.366610376862809e-05,-9.960043826140463e-06,5.599670112133026e-05
2.8107508114771917e-05,-5.74661316932179e-05,3.801238926826045e-05,1.220001377078006e-05,5.83723794989055e-06,5.548604895011522e-05
2.6032563255284913e-05,-5.280647746985778e-05,3.497502257232554e-05,1.6947118638199754e-05,1.739370600262191e-05,5.252118353382684e-05
2.586467599030584e-05,-5.0247919716639444e-05,3.6110948713030666e-05,2.3701080863247626e-05,9.560108992445748e-06,4.856861414737068e-05
2.8770275093847886e-05,-4.8835212510311976e-05,3.692994505399838e-05,2.863701774913352e-05,-1.792298826330807e-05,4.534354229690507e-05
3.3967131457757205e-05,-4.639586040866561e-05,3.352779458509758e-05,3.259211371187121e-05,-4.4828004320152104e-05,4.464913945412263e-05
3.9305501559283584e-05,-4.403961429488845e-05,2.9338811145862564e-05,3.735659265657887e-05,-5.3809097153134644e-05,5.2958719606976956e-05
4.1440001950832084e-05,-4.443920261110179e-05,2.803739334922284e-05,4.046214235131629e-05,-4.6073673729551956e-05,6.619816849706694e-05
3.8808204408269376e-05,-4.6042176109040156e-05,2.739419142017141e-05,4.1550341848051175e-05,-3.1499879696639255e-05,7.658982940483838e-05
3.514507261570543e-05,-4.604117930284701e-05,2.5918876417563297e-05,4.1364797652931884e-05,-1.6294559827656485e-05,8.263117342721671e-05
3.40248916472774e-05,-4.486589023144916e-05,2.4185244910768233e-05,3.981500049121678e-05,1.1461153235359234e-06,8.630438969703391e-05
3.6342280509416014e-05,-4.3972635467071086e-05,2.2128166165202856e-05,3.7104429793544114e-05,1.9253031496191397e-05,8.864497795002535e-05
3.711368117365055e-05,-4.4681284634862095e-05,2.104825216520112e-05,3.273326001362875e-05,3.298712908872403e-05,8.979176345746964e-05
3.53487666870933e-05,-4.763037577504292e-05,2.0600920834112912e-05,3.108541204710491e-05,3.964440475101583e-05,8.661295578349382e-05
3.2592830393696204e-05,-4.6807315811747685e-05,2.112905349349603e-05,3.40101178153418e-05,4.2528823541942984e-05,8.097741374513134e-05
3.2025458494899794e-05,-4.334305413067341e-05,2.1317706341505982e-05,3.37443379976321e-05,4.2913448851322755e-05,7.640218245796859e-05
3.0747185519430786e-05,-4.2824573029065505e-05,2.2229645765037276e-05,2.8044762075296603e-05,4.134525079280138e-05,7.562802784377709e-05
2.6535166398389265e-05,-4.462247670744546e-05,2.356111326662358e-05,2.5501918571535498e-05,3.6690005799755454e-05,6.854417006252334e-05
2.2332960725179873e-05,-4.592057302943431e-05,2.4982966351672076e-05,2.3893160687293857e-05,2.906965346483048e-05,6.162626959849149e-05
1.8576740330900066e-05,-4.5430275349644944e-05,2.814692197716795e-05,1.9427692677709274e-05,2.0281451725168154e-05,6.562437920365483e-05
1.630787483009044e-05,-4.292511221137829e-05,2.972882066387683e-05,1.8014732631854713e-05,5.614263045572443e-06,6.915714038768783e-05
1.9056558812735602e-05,-4.183585406281054e-05,2.99350776913343e-05,1.684846938587725e-05,-2.1432631911011413e-05,6.665775435976684e-05
2.3169130145106465e-05,-4.4482778321253136e-05,3.254868715885095e-05,1.5103375517355744e-05,-4.637526217265986e-05,6.367625610437244e-05
2.4076476620393805e-05,-4.646676461561583e-05,3.1215113267535344e-05,1.4954900507291313e-05,-5.627384962281212e-05,6.701622623950243e-05
1.923186209751293e-05,-4.63959549961146e-05,2.6815263481694274e-05,1.636290289752651e-05,-5.2784707804676145e-05,6.908141222083941e-05
1.2305861673667096e-05,-4.6552508138120174e-05,2.525328818592243e-05,2.1627583919325843e-05,-4.34935609519016e-05,6.334975478239357e-05
8.14783743408043e-06,-4.981828169547953e-05,2.79130254057236e-05,2.603858956717886e-05,-2.9672199161723256e-05,5.9598616644507274e-05
9.736637366586365e-06,-5.418718501459807e-05,3.1118328479351476e-05,2.5577342967153527e-05,-1.1448209988884628e-05,6.32046430837363e-05
1.4505470062431414e-05,-5.3760173614136875e-05,3.2663068850524724e-05,2.1666546672349796e-05,9.368375685880892e-06,6.633843440795317e-05
1.7278065570280887e-05,-5.0492257287260145e-05,3.179351188009605e-05,2.2422407710109837e-05,2.6951063773594797e-05,5.882280311197974e-05
1.85148401214974e-05,-4.753251778311096e-05,2.821220550686121e-05,2.6313291527912952e-05,3.5107350413454697e-05,4.729814827442169e-05
2.000961103476584e-05,-4.4076961785322055e-05,2.7244806915405206e-05,2.8157252017990686e-05,3.223575185984373e-05,4.4668962800642475e-05
2.321770807611756e-05,-4.1456612962065265e-05,2.8004014893667772e-05,2.82674500340363e-05,1.9033537682844326e-05,4.990815432392992e-05
2.7189627871848643e-05,-4.201283445581794e-05,2.687591768335551e-05,2.8259850296308286e-05,2.8792096600227524e-06,5.544650412048213e-05
2.9691793315578252e-05,-4.4386972149368376e-05,2.5181407181662507e-05,2.9876040571252815e-05,-9.140556358033791e-06,5.570438952418044e-05
2.9700464438064955e-05,-4.571069803205319e-05,2.6320525648770854e-05,3.1403873435920104e-05,-1.2477652489906177e-05,4.929557690047659e-05
2.657811091921758e-05,-4.5595668780151755e-05,2.9062508474453352e-05,3.170273339492269e-05,-8.014524610189255e-06,4.4084466935601085e-05
2.3547450837213546e-05,-4.688366607297212e-05,3.2231568184215575e-05,3.248045322834514e-05,4.144361355429282e-06,4.4740765588358045e-05
2.2376356355380267e-05,-4.960220758221112e-05,3.565466613508761e-05,3.5843659134116024e-05,1.849629006756004e-05,4.71809325972572e-05
2.010432399401907e-05,-5.2487681386992335e-05,3.763358108699322e-05,3.5718116123462096e-05,2.9971291951369494e-05,4.8278627218678594e-05
1.5760941096232273e-05,-5.700379188056104e-05,3.8493017200380564e-05,2.821887392201461e-05,3.896817361237481e-05,4.686816828325391e-05
1.1103232282039244e-05,-6.117332668509334e-05,3.863517486024648e-05,2.3088705347618088e-05,4.703996819444001e-05,4.398064993438311e-05
1.0776005183288362e-05,-6.044585825293325e-05,3.816818571067415e-05,2.7163021513842978e-05,4.999011071049608e-05,4.055278259329498e-05
1.520916248409776e-05,-5.5639589845668525e-05,3.808857218245976e-05,3.1865241908235475e-05,4.581183020491153e-05,3.926992212655023e-05
1.925622927956283e-05,-5.2690316806547344e-05,3.8351812690962106e-05,3.4322500141570345e-05,3.818126060650684e-05,4.4310691009741277e-05
2.1271123841870576e-05,-5.472850170917809e-05,3.751949407160282e-05,3.4388311178190634e-05,2.694767499633599e-05,5.299023541738279e-05
2.5414356059627607e-05,-5.5957454605959356e-05,3.704995469888672e-05,2.8814914912800305e-05,1.680620334809646e-05,5.6818000302882865e-05
3.0235030862968415e-05,-5.179740401217714e-05,4.001956040156074e-05,2.3939763195812702e-05,4.649569291359512e-06,5.322327706380747e-05
2.9712664399994537e-05,-4.82258947158698e-05,3.941028262488544e-05,2.485056575096678e-05,-1.0513834240555298e-05,4.838659515371546e-05
2.7495323593029752e-05,-4.953481038683094e-05,3.459893923718482e-05,2.7797590519185178e-05,-2.1050440409453586e-05,5.1047856686636806e-05
2.588766801636666e-05,-5.334425077307969e-05,3.2159216061700135e-05,3.2147232559509575e-05,-2.7329266231390648e-05,6.047909482731484e-05
2.2638692826149054e-05,-5.4935557272983715e-05,3.188144910382107e-05,3.3354139304719865e-05,-2.8764563467120752e-05,6.565449439221993e-05
2.1947807908873074e-05,-5.266723383101635e-05,3.471173840807751e-05,3.2333766284864396e-05,-3.146186645608395e-05,6.318488158285618e-05
2.2676897060591727e-05,-4.9706752179190516e-05,4.0665228880243376e-05,3.481884050415829e-05,-3.2571038900641724e-05,6.237725756363943e-05
2.1779962480650283e-05,-4.858634929405525e-05,4.282920417608693e-05,3.6216137232258916e-05,-2.94790297630243e-05,6.5087471739389e-05
1.9600745872594416e-05,-4.790379534824751e-05,4.1252427763538435e-05,3.5022541851503775e-05,-2.4493445380358025e-05,6.717115320498124e-05
2.208935075032059e-05,-4.708996129920706e-05,4.029389310744591e-05,3.184607339790091e-05,-2.1965593987260945e-05,6.804703298257664e-05
2.6814688681042753e-05,-4.699748023995198e-05,3.8429381675086915e-05,2.9098859158693813e-05,-2.157952440029476e-05,6.46904154564254e-05
2.9042976166238077e-05,-4.9239053623750806e-05,3.4027962101390585e-05,2.6964158678310923e-05,-2.220204441982787e-05,5.788851194665767e-05
2.890343967010267e-05,-5.1850223826477304e-05,2.999968819494825e-05,2.555018181737978e-05,-2.510084777895827e-05,5.168566349311732e-05
2.716377093747724e-05,-5.030407555750571e-05,3.0460591005976312e-05,2.6335093934903853e-05,-2.7568452424020506e-05,4.8341731599066406e-05
2.3358643375104293e-05,-4.641770283342339e-05,3.127115633105859e-05,3.078760710195638e-05,-3.3608885132707655e-05,5.0112674216507e-05
1.9016526493942365e-05,-4.6629749704152346e-05,3.062480391236022e-05,3.592525172280148e-05,-4.559031731332652e-05,5.3825420764042065e-05
1.625361983315088e-05,-5.0068701966665685e-05,3.235785698052496e-05,3.926354111172259e-05,-5.962439172435552e-05,5.542200233321637e-05
1.4461503269558307e-05,-5.1162613090127707e-05,3.694691986311227e-05,4.1244558815378696e-05,-6.614621088374406e-05,5.5577595048816875e-05
1.5761603208375163e-05,-4.952811650582589e-05,3.9666334487264976e-05,4.026796523248777e-05,-6.48645218461752e-05,5.6241748097818345e-05
1.9641685867100023e-05,-4.787181387655437e-05,3.9791339077055454e-05,3.82979960704688e-05,-6.14439049968496e-05,5.755890015279874e-05
2.2113052182248794e-05,-4.742320743389428e-05,3.856881085084751e-05,3.9682072383584455e-05,-5.673189662047662e-05,6.0632959502981976e-05
2.1302466848283075e-05,-4.7883066145004705e-05,3.4797791158780456e-05,3.9132002711994573e-05,-4.6198401832953095e-05,6.241152004804462e-05
1.90032587852329e-05,-4.978612923878245e-05,2.8811102311010472e-05,2.793487328744959e-05,-3.455618934822269e-05,5.752345168730244e-05
1.654435800446663e-05,-5.457279257825576e-05,2.6370209525339305e-05,1.52592510858085e-05,-3.199213824700564e-05,5.0096710765501484e-05
1.5131558939174283e-05,-5.908128514420241e-05,3.043843389605172e-05,1.0441582162457053e-05,-3.737963561434299e-05,4.993227048544213e-05
1.616895133338403e-05,-5.746321039623581e-05,3.375475716893561e-05,1.5400552001665346e-05,-3.5747514630202204e-05,5.569814675254747e-05
1.793337105482351e-05,-5.298925316310488e-05,3.216715413145721e-05,2.23289735004073e-05,-2.5455354261794128e-05,5.73049983358942e-05
1.76765115611488e-05,-5.2460862207226455e-05,2.7633499485091306e-05,2.2640673705609515e-05,-1.6240946933976375e-05,5.60110347578302e-05
1.6777908967924304e-05,-5.457017687149346e-05,2.6266534405294806e-05,2.0697805666713975e-05,-6.801378731324803e-06,5.554568997467868e-05
1.622765739739407e-05,-5.424118717201054e-05,2.9944043490104377e-05,2.4626186132081784e-05,1.5631792393833166e-06,5.263083221507259e-05
1.611607694940176e-05,-5.3931194997858256e-05,3.3324980904581025e-05,3.056495916098356e-05,7.0618070822092704e-06,5.763721856055781e-05
1.4844164070382249e-05,-5.7081426348304376e-05,3.328822640469298e-05,3.168695911881514e-05,1.4951468983781524e-05,6.387926259776577e-05
1.6947135009104386e-05,-6.04321867285762e-05,3.085164280491881e-05,2.6102869014721364e-05,2.2976200853008777e-05,5.994473394821398e-05
2.0648234567488544e-05,-5.7981964346254244e-05,2.993293310282752e-05,1.905290991999209e-05,3.084298805333674e-05,5.7814355386653915e-05
2.3613800294697285e-05,-5.247322405921295e-05,3.097463559242897e-05,2.008550836762879e-05,3.371879574842751e-05,5.7150489737978205e-05
2.741538264672272e-05,-4.842261114390567e-05,3.16093246510718e-05,2.6866669941227883e-05,2.6874989998759702e-05,5.747899558627978e-05
3.3156033168779686e-05,-4.706748222815804e-05,3.094379644608125e-05,3.547895175870508e-05,9.36190099309897e-06,6.141201447462663e-05
3.895036206813529e-05,-4.9975973524851725e-05,3.0538772989530116e-05,3.861701407004148e-05,-1.3387187209445983e-05,6.917303835507482e-05
4.145881030126475e-05,-5.443572445074096e-05,2.954295814561192e-05,3.551042755134404e-05,-3.25706678268034e-05,7.173250196501613e-05
4.13285888498649e-05,-5.374770989874378e-05,2.577554369054269e-05,3.3166928915306926e-05,-4.628922761185095e-05,6.685129483230412e-05
4.24100217060186e-05,-4.68727812403813e-05,2.0915016648359597e-05,3.7785743188578635e-05,-4.943087697029114e-05,6.323095294646919e-05
4.488586273510009e-05,-4.3688305595424026e-05,1.929254358401522e-05,4.397925658849999e-05,-4.251004065736197e-05,6.13187876297161e-05
4.343700857134536e-05,-4.679129415308125e-05,2.236405634903349e-05,4.3653257307596505e-05,-3.0583381885662675e-05,6.030896838638e-05
3.792419011006132e-05,-4.962371531291865e-05,2.5169354557874613e-05,3.8637343095615506e-05,-1.9005003196070902e-05,6.126613880041987e-05
3.2448675483465195e-05,-4.898695624433458e-05,2.4857698008418083e-05,3.60735684807878e-05,-7.648622158740181e-06,5.9880894696107134e-05
2.8479464162955992e-05,-4.985953637515195e-05,2.5944878871086985e-05,3.7236935895634815e-05,3.6130779790255474e-06,5.5791224440326914e-05
2.264218346681446e-05,-5.3110830776859075e-05,3.068021760554984e-05,3.693081816891208e-05,1.6007064914447255e-05,5.606194827123545e-05
1.5415444067912176e-05,-5.346411489881575e-05,3.3380209060851485e-05,3.5119235690217465e-05,2.7685135137289762e-05,5.766547110397369e-05
1.0286124961567111e-05,-5.022913319407962e-05,3.121883128187619e-05,3.082889088545926e-05,3.640056092990562e-05,4.8948793846648186e-05
1.1367883416824043e-05,-4.5426870201481506e-05,2.7031510398956016e-05,2.6481451641302556e-05,4.2649156966945156e-05,3.679338624351658e-05
1.759533006406855e-05,-4.046655158163048e-05,2.509680052753538e-05,3.0544451874447986e-05,4.5407396100927144e-05,3.8879567000549287e-05
2.2566408006241545e-05,-3.737721635843627e-05,2.6658377464627847e-05,3.548890890670009e-05,4.499739588936791e-05,5.326036989572458e-05
2.10470625461312e-05,-3.7339770642574877e-05,3.0096050977590494e-05,3.4420470910845324e-05,4.2904866859316826e-05,6.587561802007258e-05
1.5621501006535254e-05,-3.9686514355707914e-05,3.218496567569673e-05,3.501466562738642e-05,4.116654599783942e-05,6.761054100934416e-05
1.1798284504038747e-05,-3.988800017395988e-05,3.283658588770777e-05,3.311242107884027e-05,4.138321673963219e-05,6.82122481521219e-05
1.2809910003852565e-05,-3.965283394791186e-05,3.433426536503248e-05,3.1877312721917406e-05,3.652631494333036e-05,7.148524309741333e-05
1.4349466255225707e-05,-4.018569234176539e-05,3.737884617294185e-05,3.354462387505919e-05,2.6207590053672902e-05,6.961657345527783e-05
1.2875163520220667e-05,-4.077090852661058e-05,3.7138615880394354e-05,3.405384995858185e-05,1.4188322893460281e-05,6.531032704515383e-05
1.2994463759241626e-05,-4.3045369238825515e-05,3.2362495403504e-05,3.0611889087595046e-05,-1.774153162159564e-07,6.428964843507856e-05
1.3408027371042408e-05,-4.2536252294667065e-05,2.9633909434778616e-05,2.6455449187778868e-05,-2.170759398723021e-05,6.45531908958219e-05
1.2894373867311515e-05,-4.137847645324655e-05,3.055364504689351e-05,2.4347775251953863e-05,-4.9646536353975534e-05,6.261985254241154e-05
1.4951018783904146e-05,-4.281600922695361e-05,3.176466270815581e-05,2.5247289158869535e-05,-6.797374226152897e-05,5.905505531700328e-05
1.5193468243523967e-05,-4.558657747111283e-05,3.0212511774152517e-05,2.9819153496646322e-05,-7.443313370458782e-05,5.788935595774092e-05
1.1826434274553321e-05,-4.589331001625396e-05,2.8181973902974278e-05,3.387641118024476e-05,-7.388251833617687e-05,5.4474923672387376e-05
8.19219076220179e-06,-4.4396416342351586e-05,2.8613572794711217e-05,3.241845843149349e-05,-6.690020381938666e-05,4.930428258376196e-05
7.735739927738905e-06,-4.359715603641234e-05,3.264835322625004e-05,2.8668826416833326e-05,-5.795432298327796e-05,4.757189526571892e-05
1.0172615475312341e-05,-4.576658466248773e-05,3.579191252356395e-05,2.9911250749137253e-05,-4.8839505325304344e-05,4.887943578069098e-05
1.474680993851507e-05,-4.8710462579037994e-05,3.439220381551422e-05,3.298149022157304e-05,-3.743372508324683e-05,4.998559961677529e-05
1.9639292077044956e-05,-4.971632006345317e-05,3.164716690662317e-05,3.382025533937849e-05,-2.4598693926236592e-05,4.900331623503007e-05
2.163323006243445e-05,-4.875631566392258e-05,3.020589065272361e-05,3.278778967796825e-05,-1.5963307305355556e-05,4.977190474164672e-05
2.0734982172143646e-05,-4.812772385776043e-05,2.939840305771213e-05,3.4878776205005124e-05,-1.3058776858088095e-05,5.192519165575504e-05
1.8725882910075597e-05,-4.951501250616275e-05,2.7094303732155822e-05,3.776176163228229e-05,-1.556643474032171e-05,5.363970194594003e-05
1.794214767869562e-05,-5.12021106260363e-05,2.5227816877304576e-05,3.827113323495723e-05,-2.168300488847308e-05,5.473642158904113e-05
1.9502067516441457e-05,-5.34219725523144e-05,2.53057514782995e-05,3.921205643564463e-05,-2.5165672923321836e-05,5.784183304058388e-05
2.434686030028388e-05,-5.474142744787969e-05,2.5689896574476734e-05,4.1783485357882455e-05,-2.3692718968959525e-05,6.231144652701914e-05
2.7313735699863173e-05,-5.169583891984075e-05,2.5429924789932556e-05,4.230077684042044e-05,-1.911863910208922e-05,6.68660068186e-05
2.5993402232415974e-05,-4.781790266861208e-05,2.6523290216573514e-05,4.046704634674825e-05,-1.2930376215081196e-05,6.938391015864909e-05
2.2604663172387518e-05,-4.75877859571483e-05,2.950617272290401e-05,3.612476939451881e-05,-4.865353730565403e-06,6.889778160257265e-05
2.1692530935979448e-05,-5.029249223298393e-05,3.24290303979069e-05,2.8613609174499288e-05,7.129212917789118e-06,6.378018588293344e-05
2.7802929253084585e-05,-5.1851948228431866e-05,3.0773731850786135e-05,2.261559529870283e-05,2.4336490241694264e-05,5.537831748370081e-05
3.7274614442139864e-05,-4.938842175761238e-05,2.661671896930784e-05,2.2065067241783254e-05,4.055460522067733e-05,4.666936365538277e-05
4.1937833884730935e-05,-4.901863940176554e-05,2.4997931177495047e-05,2.6836180040845647e-05,4.914591045235284e-05,4.770823215949349e-05
4.337081190897152e-05,-4.790776802110486e-05,2.3607448383700103e-05,3.142213972751051e-05,4.896783866570331e-05,6.000186476740055e-05
4.566416100715287e-05,-4.7242891014320776e-05,2.4248523914138786e-05,2.861044049495831e-05,4.2338073399150744e-05,6.431173824239522e-05
4.3292948248563334e-05,-4.642019121092744e-05,2.695186049095355e-05,2.3658865757170133e-05,3.3459651604061946e-05,6.222619413165376e-05
3.7211142625892535e-05,-4.601421096595004e-05,2.914606375270523e-05,1.9752707885345444e-05,2.2749412892153487e-05,6.515422137454152e-05
3.4123808291042224e-05,-4.7714169340906665e-05,3.262717655161396e-05,1.5764215277158655e-05,8.797668670013081e-06,6.847966142231598e-05
3.0851188057567924e-05,-4.9728732847142965e-05,3.574552829377353e-05,1.5570716641377658e-05,-5.947617410129169e-06,6.71585657983087e-05
2.378976932959631e-05,-5.3040643251733854e-05,3.766689769690856e-05,2.1159085008548573e-05,-2.1956127966404893e-05,6.338004459394142e-05
1.7906939319800586e-05,-5.363539821701124e-05,3.959547757403925e-05,2.7360028980183415e-05,-3.7442721804836765e-05,6.225548713700846e-05
2.0130244593019597e-05,-5.143836096976884e-05,3.6417972296476364e-05,2.937683711934369e-05,-5.281706398818642e-05,6.460706936195493e-05
2.4994478735607117e-05,-4.884254667558707e-05,3.304067286080681e-05,2.9577131499536335e-05,-6.548407691298053e-05,6.96356946718879e-05
2.6458539650775492e-05,-4.8372432502219453e-05,3.5380249755689874e-05,2.9164662919356488e-05,-6.881040462758392e-05,7.431056292261928e-05
2.6571573471301235e-05,-4.898357292404398e-05,4.0153725421987474e-05,2.8897358788526617e-05,-6.010280776536092e-05,7.247937173815444e-05
2.6775573132908903e-05,-4.98049812449608e-05,4.1629562474554405e-05,2.8692804335150868e-05,-4.4250125938560814e-05,6.361645500874147e-05
2.74984267889522e-05,-5.006533319829032e-05,3.763407585211098e-05,2.8565043976414017e-05,-2.5596611521905288e-05,5.560511999647133e-05
2.833899634424597e-05,-4.881017594016157e-05,3.1733336072647944e-05,2.9270015147631057e-05,-2.177066562580876e-06,5.6704429880483076e-05
3.060217568418011e-05,-4.831456681131385e-05,2.743974982877262e-05,2.958920958917588e-05,2.3237958885147236e-05,6.51422597002238e-05
3.5119173844577745e-05,-5.115797102916986e-05,2.71700100711314e-05,2.5850702513707802e-05,4.451555651030503e-05,7.2012837335933e-05
3.962661503464915e-05,-5.45572693226859e-05,2.900433355534915e-05,2.021038562816102e-05,5.6807744840625674e-05,7.305682811420411e-05
4.031575008411892e-05,-5.4982865549391136e-05,3.052756073884666e-05,1.818423334043473e-05,5.925750156166032e-05,7.166454452089965e-05
3.957104854634963e-05,-5.1231239922344685e-05,3.056570858461782e-05,2.1741972886957228e-05,5.211144161876291e-05,6.919023144291714e-05
3.768983515328728e-05,-4.698103657574393e-05,3.104504867224023e-05,2.4938090064097196e-05,3.918207221431658e-05,6.241360097192228e-05
3.180589192197658e-05,-4.666002860176377e-05,3.2537915103603154e-05,2.3713837435934693e-05,2.4735883926041424e-05,5.502581916516647e-05
2.334073360543698e-05,-4.8826419515535235e-05,3.0047605832805857e-05,2.0038229195051827e-05,9.984842108679004e-06,5.303304351400584e-05
1.5456877008546144e-05,-5.140006760484539e-05,2.5243183699785732e-05,1.5529773008893244e-05,-5.185870122659253e-06,5.115376552566886e-05
1.1408264072088059e-05,-5.318632611306384e-05,2.4467437469866127e-05,1.562818215461448e-05,-1.8571106920717284e-05,4.8912843340076506e-05
9.548153684590943e-06,-5.634540502796881e-05,2.454356217640452e-05,1.933270505105611e-05,-2.460400719428435e-05,4.4102831452619284e-05
8.984882697404828e-06,-5.993459853925742e-05,2.5043749701580964e-05,2.160249641747214e-05,-2.8735534215229563e-05,4.521502341958694e-05
1.0237176866212394e-05,-6.049943476682529e-05,3.0825056455796584e-05,2.9189624910941347e-05,-3.270537490607239e-05,6.0807575209764764e-05
1.1564468877622858e-05,-5.98193691985216e-05,3.6797744542127475e-05,3.723361442098394e-05,-3.2079507946036756e-05,7.236298552015796e-05
1.1553093827387784e-05,-5.796104596811347e-05,3.701733294292353e-05,3.747708979062736e-05,-3.3891363273141906e-05,7.01283715898171e-05
1.2311069440329447e-05,-5.596992195933126e-05,3.467549686320126e-05,3.61749371222686e-05,-3.677970380522311e-05,6.358788232319057e-05
1.5509192962781526e-05,-5.599638097919524e-05,3.511110116960481e-05,3.449727228144184e-05,-3.871704757330008e-05,5.888002851861529e-05
1.9250110199209303e-05,-5.583542588283308e-05,3.689174263854511e-05,3.1987190595828e-05,-3.868047861033119e-05,5.217960278969258e-05
2.0203211533953436e-05,-5.676731598214246e-05,3.526237196638249e-05,2.860822314687539e-05,-3.604370431276038e-05,4.873589568887837e-05
1.96464970940724e-05,-5.93339282204397e-05,3.417857442400418e-05,2.3794689695932902e-05,-3.64104998880066e-05,5.249090463621542e-05
1.9744156816159375e-05,-5.9312947996659204e-05,3.331417974550277e-05,2.268037678732071e-05,-4.510612052399665e-05,5.658111331285909e-05
1.664512456045486e-05,-5.5966564104892313e-05,3.3404601708753034e-05,2.4360195311601274e-05,-5.382761810324155e-05,5.75222002225928e-05
1.593570959812496e-05,-5.197833525016904e-05,3.363535870448686e-05,2.373786992393434e-05,-5.807079651276581e-05,5.863669139216654e-05
2.103808037645649e-05,-4.871311830356717e-05,3.3470660127932206e-05,2.1112906324560754e-05,-6.332485645543784e-05,6.069460141588934e-05
2.5252176783396862e-05,-4.7492860176134855e-05,3.6372373870108277e-05,2.027999835263472e-05,-6.965465581743047e-05,6.150465196697041e-05
2.435942951706238e-05,-4.7661142161814496e-05,4.012922727270052e-05,2.5432387701584958e-05,-6.992121780058369e-05,5.995906030875631e-05
2.0396399122546427e-05,-4.690765490522608e-05,3.978480526711792e-05,3.333574932185002e-05,-5.993277591187507e-05,6.078293517930433e-05
1.7207579730893485e-05,-4.675917443819344e-05,3.5247328924015164e-05,3.79589109797962e-05,-4.387745138956234e-05,6.469933578046039e-05
1.7775573724065907e-05,-4.979704681318253e-05,3.2448861020384356e-05,3.652479063021019e-05,-2.77076233032858e-05,6.285667768679559e-05
2.047385714831762e-05,-5.303935904521495e-05,3.144841321045533e-05,3.188032133039087e-05,-1.5142050870053936e-05,5.198367580305785e-05
1.9027123926207423e-05,-5.4097541578812525e-05,2.9488295695045963e-05,2.6781970518641174e-05,-4.219375568936812e-06,3.9493137592216954e-05
1.440858977730386e-05,-5.38715576112736e-05,2.5594717953936197e-05,2.6947293008561246e-05,6.8163171818014234e-06,3.452958844718523e-05
1.0573028703220189e-05,-5.290307308314368e-05,2.4526416382286698e-05,3.096201180596836e-05,1.6190509995794855e-05,3.838681732304394e-05
8.109466762107331e-06,-5.633257023873739e-05,2.8334587113931775e-05,3.1316722015617415e-05,1.7484049749327824e-05,4.551684105535969e-05
9.166304153040983e-06,-6.176137685542926e-05,3.497926809359342e-05,2.8032205591443926e-05,6.006752300891094e-06,4.868027463089675e-05
1.2102989785489626e-05,-5.8922352764056996e-05,4.09172207582742e-05,2.44600887526758e-05,-1.2964526831638068e-05,4.99394882353954e-05
1.2915741535834968e-05,-5.167517520021647e-05,4.377940422273241e-05,2.5883749913191423e-05,-2.351247712795157e-05,5.840914309374057e-05
1.1370558240741957e-05,-4.9847429181681946e-05,4.227374665788375e-05,3.080892565776594e-05,-2.7229858460486867e-05,7.057353650452569e-05
7.0985356614983175e-06,-5.274713839753531e-05,3.997483872808516e-05,3.0421071642194875e-05,-3.438535350142047e-05,7.541166996816173e-05
6.661456154688494e-06,-5.550333662540652e-05,3.9094647945603356e-05,2.2506377717945725e-05,-4.8144629545276985e-05,6.927168578840792e-05
1.1088202882092446e-05,-5.5018164857756346e-05,3.778522659558803e-05,2.2782196538173594e-05,-6.463108002208173e-05,6.207739352248609e-05
1.1456661013653502e-05,-5.1222421461716294e-05,3.7792375223943964e-05,2.863689041987527e-05,-7.745257607894018e-05,6.167966057546437e-05
8.140936188283376e-06,-4.9364381993655115e-05,3.948461380787194e-05,2.8858723453595303e-05,-8.487761806463823e-05,5.883223275304772e-05
7.987136996234767e-06,-5.018244337406941e-05,3.934374399250373e-05,2.4475924874423072e-05,-8.272496779682115e-05,5.5569526011822745e-05
1.0784946425701492e-05,-5.0541304517537355e-05,3.5882010706700385e-05,1.9758079361054115e-05,-6.650757131865248e-05,5.552540460485034e-05
1.0976551493513398e-05,-5.137845437275246e-05,3.379347253940068e-05,2.528670484025497e-05,-3.625684985308908e-05,5.832754686707631e-05
1.1078817806264851e-05,-5.0701746658887714e-05,3.4244156267959625e-05,3.474383629509248e-05,-2.0245954601705307e-06,5.8692439779406413e-05
1.6130758012877777e-05,-4.8208661610260606e-05,3.3799071388784796e-05,3.8960813981248066e-05,2.429909181955736e-05,5.295236405800097e-05
2.087050052068662e-05,-4.6068107621977106e-05,3.211312650819309e-05,3.651357110356912e-05,4.3669191654771566e-05,4.9196736654266715e-05
2.145373946405016e-05,-4.427774911164306e-05,3.1034007406560704e-05,2.9217986593721434e-05,6.033470344846137e-05,5.319633783074096e-05
2.1772957552457228e-05,-4.3935033318120986e-05,3.1050280085764825e-05,2.0948858946212567e-05,7.80329282861203e-05,5.852250615134835e-05
2.595623845991213e-05,-4.5698790927417576e-05,3.240908699808642e-05,1.8904145690612495e-05,9.553624113323167e-05,6.202998338267207e-05
3.287797881057486e-05,-4.545936462818645e-05,3.388843106222339e-05,2.3349286493612453e-05,0.00010773236863315105,6.414343079086393e-05
3.870996442856267e-05,-4.222819916321896e-05,3.213746822439134e-05,2.7457537726149894e-05,0.00011051387991756201,6.357089296216145e-05
4.161311517236754e-05,-4.170582542428747e-05,2.7670394047163427e-05,2.9450946385622956e-05,0.00010581043170532212,6.390951602952555e-05
4.2710078560048714e-05,-4.521303708315827e-05,2.4269800633192062e-05,3.068707883358002e-05,9.742941620061174e-05,6.486110214609653e-05
4.359290687716566e-05,-4.6413682866841555e-05,2.280041553603951e-05,3.315148933324963e-05,8.542931027477607e-05,6.200802454259247e-05
4.308439383748919e-05,-4.2535000829957426e-05,2.0966659576515667e-05,3.4080163459293544e-05,7.083053060341626e-05,5.80831037950702e-05
4.059462298755534e-05,-3.917911453754641e-05,1.9682269339682534e-05,3.088632001890801e-05,5.6980930821737275e-05,6.110001413617283e-05
3.7387242628028616e-05,-3.860919605358504e-05,1.9667066226247698e-05,2.5750310669536702e-05,4.500102295423858e-05,6.753559864591807e-05
3.4972741559613496e-05,-3.8551432226086035e-05,2.0503581254160963e-05,2.3367892936221324e-05,3.271778405178338e-05,7.291692600119859e-05
3.157370520057157e-05,-3.851241490337998e-05,2.344316271774005e-05,2.528419645386748e-05,1.9319028069730848e-05,7.578730583190918e-05
2.888209928642027e-05,-4.006759627372958e-05,2.6340892873122357e-05,2.6367668397142552e-05,7.860199730203021e-06,7.462350185960531e-05
2.9306769647519104e-05,-4.3107138480991125e-05,2.4205775844166055e-05,2.3021697415970266e-05,2.0249817680451088e-06,7.18676092219539e-05
3.0995892302598804e-05,-4.3788681068690494e-05,2.1026935428380966e-05,2.1723741156165488e-05,-3.296092472737655e-06,7.212567288661376e-05
3.140521585009992e-05,-4.322645690990612e-05,2.5840563466772437e-05,2.4775577912805602e-05,-1.1784687558247242e-05,7.164521230151877e-05
3.16224577545654e-05,-3.9501115679740906e-05,3.263242251705378e-05,2.4409873731201515e-05,-2.2979436835157685e-05,6.944594497326761e-05
3.36817029165104e-05,-3.482976171653718e-05,3.45595290127676e-05,2.2339143470162526e-05,-3.247934364480898e-05,6.181640492286533e-05
3.3446420275140554e-05,-3.4651522582862526e-05,3.24553984683007e-05,2.5006025680340827e-05,-3.694675979204476e-05,5.546171450987458e-05
2.896143814723473e-05,-3.7456706195371225e-05,3.2683281460776925e-05,3.1493025744566694e-05,-3.741505861398764e-05,5.3547159041045234e-05
2.2245445506996475e-05,-4.2019066313514486e-05,3.397345790290274e-05,4.1151881305268034e-05,-3.9330581785179675e-05,4.953508323524147e-05
1.7359585399390198e-05,-4.7229568735929206e-05,3.6405810533324257e-05,5.1065282605122775e-05,-4.362533218227327e-05,5.135870378580876e-05
1.5602407074766234e-05,-5.0999609811697155e-05,4.216574598103762e-05,5.6938373745651916e-05,-5.130180579726584e-05,6.0834794567199424e-05
1.607524427527096e-05,-5.0765316700562835e-05,4.5581557060359046e-05,5.414348925114609e-05,-6.19520214968361e-05,7.041107164695859e-05
1.3033947652729694e-05,-5.195313860895112e-05,4.352740870672278e-05,4.7306239139288664e-05,-6.941294122952968e-05,7.24094279576093e-05
8.905255526769906e-06,-5.396134656621143e-05,3.796057353611104e-05,4.1307204810436815e-05,-7.093766907928512e-05,6.799485709052533e-05
9.054264410224278e-06,-5.628902727039531e-05,3.449436917435378e-05,3.94296548620332e-05,-7.187190203694627e-05,6.29708738415502e-05
9.632206456444692e-06,-5.726102244807407e-05,3.118554741377011e-05,3.821635618805885e-05,-7.462839857907966e-05,5.70072588743642e-05
9.525972018309403e-06,-5.718394095310941e-05,2.916569974331651e-05,3.622923031798564e-05,-7.458079926436767e-05,4.542315946309827e-05
8.440166311629582e-06,-5.827816130477004e-05,2.973940718220547e-05,3.7653237086487934e-05,-6.643071537837386e-05,3.6557070416165516e-05
7.290307621587999e-06,-5.8311350585427135e-05,3.24181055475492e-05,3.967756492784247e-05,-5.3509967983700335e-05,3.773512798943557e-05
5.879552645637887e-06,-5.455286373035051e-05,3.435595499468036e-05,3.730167372850701e-05,-4.246094249538146e-05,4.300436921766959e-05
5.425103154266253e-06,-4.9470094381831586e-05,3.434903919696808e-05,2.938103898486588e-05,-3.257522257626988e-05,4.4469165004557e-05
6.3230581872630864e-06,-4.860665649175644e-05,3.159363768645562e-05,2.139444404747337e-05,-2.339877755730413e-05,4.1023864469025284e-05
7.3083942879748065e-06,-5.0552625907585025e-05,2.7995301934424788e-05,1.8436350728734396e-05,-1.8230406567454338e-05,3.6583864130079746e-05
8.112545401672833e-06,-5.296244125929661e-05,2.637684519868344e-05,1.96533710550284e-05,-1.6394666090491228e-05,3.729080708581023e-05
1.2839264854846988e-05,-5.358889029594138e-05,2.63825695583364e-05,1.8290831576450728e-05,-1.1470136996649671e-05,4.526799966697581e-05
1.9723771401913837e-05,-5.206472269492224e-05,2.643477091623936e-05,1.4531941815221217e-05,-6.381311777658993e-06,5.336305548553355e-05
2.3048096409183927e-05,-5.119994602864608e-05,2.5358793209306896e-05,1.2689845789282117e-05,-1.0248166290693916e-05,5.5539516324643046e-05
2.261076951981522e-05,-5.573881935561076e-05,2.634432712511625e-05,1.3932517504144926e-05,-3.0944316677050665e-05,5.349250204744749e-05
1.948838325915858e-05,-6.3084858993534e-05,2.636029603308998e-05,1.7668184227659367e-05,-6.545647192979231e-05,5.263676212052815e-05
1.5405854355776682e-05,-6.687692803097889e-05,2.6353969587944448e-05,2.038442835328169e-05,-9.290852176491171e-05,4.87018987769261e-05
1.3410753126663622e-05,-6.329724419629201e-05,2.895073703257367e-05,1.5925746993161738e-05,-0.00010009425750467926,4.167545193922706e-05
1.4828776329522952e-05,-5.790824434370734e-05,3.0259116101660766e-05,1.5297744539566338e-05,-8.754699229029939e-05,4.372156399767846e-05
1.7403224774170667e-05,-5.238731318968348e-05,2.8270651455386542e-05,1.7774545995052904e-05,-5.6687182222958654e-05,5.222608524491079e-05
1.7163527445518412e-05,-4.838424865738489e-05,2.4886523533496074e-05,1.9697243260452524e-05,-1.816063559090253e-05,5.7795165048446506e-05
1.6082834918051958e-05,-4.804972559213638e-05,2.298723666172009e-05,2.304634290339891e-05,1.9535453247954138e-05,5.798443453386426e-05
1.834451722970698e-05,-4.680025813286193e-05,2.4294949980685487e-05,1.9930315829697065e-05,5.060711919213645e-05,5.5709351727273315e-05
2.1483048840309493e-05,-4.3773692596005276e-05,2.6050585802295245e-05,1.591169711900875e-05,7.638313400093466e-05,5.61535925953649e-05
2.494726504664868e-05,-4.03563171857968e-05,2.803871757350862e-05,1.9414097550907172e-05,9.555592259857804e-05,5.7877699873642996e-05
2.668808156158775e-05,-4.104049003217369e-05,2.8969378035981208e-05,2.738904549914878e-05,0.00010108723654411733,5.685172800440341e-05
2.7184887585463002e-05,-4.4199176045367494e-05,2.859672167687677e-05,3.21934130624868e-05,8.844120020512491e-05,5.036305446992628e-05
2.8497788662207313e-05,-4.5271710405359045e-05,2.8951484637218527e-05,3.232690505683422e-05,4.358073783805594e-05,4.5280979975359514e-05
2.9531545806094073e-05,-4.535781408776529e-05,2.9857797926524654e-05,3.1687377486377954e-05,-2.884099376387894e-05,4.535136395134032e-05
2.957814467663411e-05,-4.624630673788488e-05,3.058884249185212e-05,3.4481287002563477e-05,-9.167968528345227e-05,4.986719068256207e-05
2.740159834502265e-05,-4.7661131247878075e-05,2.9922055546194315e-05,3.859069329337217e-05,-0.0001223530707648024,5.63784888072405e-05
2.4661692805239e-05,-4.701273428509012e-05,2.8131113140261732e-05,3.7928435631329194e-05,-0.00012362297275103629,6.002042209729552e-05
2.5355662728543393e-05,-4.5836015488021076e-05,2.679420322238002e-05,3.250211011618376e-05,-0.00010551794548518956,6.0543181461980566e-05
2.7415451768320054e-05,-4.711043948191218e-05,2.773932101263199e-05,2.8467986339819618e-05,-7.438298780471087e-05,6.322369881672785e-05
2.6232322852592915e-05,-5.032897024648264e-05,2.8951426429557614e-05,2.7624035283224657e-05,-3.211226430721581e-05,6.935871351743117e-05
2.5465798898949288e-05,-5.262713602860458e-05,2.8443670089473017e-05,2.7856382075697184e-05,1.8980141248903237e-05,7.319408905459568e-05
2.7588965167524293e-05,-5.234079071669839e-05,2.6668834834708832e-05,2.7357715225662105e-05,6.963163468753919e-05,7.260130951181054e-05
2.7040621716878377e-05,-5.0493308663135394e-05,2.6242278181598522e-05,2.4190088879549876e-05,0.0001124784757848829,7.242900028359145e-05
2.4451124772895128e-05,-4.803750925930217e-05,2.594635407149326e-05,1.7779731933842413e-05,0.00014918044325895607,7.041679054964334e-05
2.4465765818604268e-05,-4.5542215957539156e-05,2.5564333554939367e-05,1.5123889170354232e-05,0.0001727887720335275,6.019223656039685e-05
2.8125065000494942e-05,-4.2876647057710215e-05,2.6939860617858358e-05,1.6739269995014183e-05,0.00017621675215195864,4.928671842208132e-05
3.2591226045042276e-05,-4.303877358324826e-05,2.9532111511798576e-05,1.8386446754448116e-05,0.0001613397616893053,4.4698535930365324e-05
3.197822661604732e-05,-4.876132879871875e-05,3.016676419065334e-05,2.0250898160156794e-05,0.00013895104348193854,4.861259367316961e-05
2.8697229936369695e-05,-5.390975275076926e-05,2.963782026199624e-05,2.1615365767502226e-05,0.00011684899072861299,6.30813738098368e-05
2.810906335071195e-05,-5.358664566301741e-05,3.3516920666443184e-05,2.1987369109410793e-05,8.958365651778877e-05,8.002167305676267e-05
2.5231898689526133e-05,-4.9607369874138385e-05,3.590403503039852e-05,2.2793396055931225e-05,5.7877212384482846e-05,8.276777225546539e-05
2.2433852791436948e-05,-4.49404506071005e-05,3.319340612506494e-05,2.687354208319448e-05,2.974758535856381e-05,7.749708311166614e-05
2.3192005755845457e-05,-4.20850956288632e-05,2.8708613172057085e-05,2.7517153284861706e-05,8.468493433611002e-06,7.393457781290635e-05
2.4052182197920047e-05,-4.275359970051795e-05,2.7899659471586347e-05,2.7433385184849612e-05,-6.386319455486955e-06,7.172753976192325e-05
2.7022892027162015e-05,-4.6100944018689916e-05,3.191850919392891e-05,3.117534288321622e-05,-2.2802141756983474e-05,6.758208473911509e-05
3.0649578548036516e-05,-4.953686584485695e-05,3.475928315310739e-05,3.410036151763052e-05,-3.921420284314081e-05,6.131493137218058e-05
3.2683732570149004e-05,-4.8514433728996664e-05,3.394997838768177e-05,3.437497798586264e-05,-5.161861554370262e-05,6.081983883632347e-05
3.283380647189915e-05,-4.46452249889262e-05,3.495757482596673e-05,3.174432276864536e-05,-6.091134127927944e-05,6.374869553837925e-05
3.485497654764913e-05,-4.395968426251784e-05,3.6854245990980417e-05,2.899074570450466e-05,-6.637446495005861e-05,6.539400055771694e-05
3.6163550248602405e-05,-4.4972843170398846e-05,3.477705467958003e-05,2.9421391445794143e-05,-6.817573012085631e-05,6.035124897607602e-05
3.276420829934068e-05,-4.7805158828850836e-05,3.464407564024441e-05,3.560656841727905e-05,-7.070233550621197e-05,5.008960215491243e-05
2.7329146178090014e-05,-4.8990499635692686e-05,3.798836769419722e-05,4.2838819354074076e-05,-7.41816038498655e-05,4.177799928584136e-05
2.3428701751981862e-05,-4.70581762783695e-05,4.000848639407195e-05,4.525362601270899e-05,-7.44471835787408e-05,4.006476228823885e-05
2.262205998704303e-05,-4.375543721835129e-05,3.9184451452456415e-05,4.210751649225131e-05,-7.102544623194262e-05,4.2105741158593446e-05
2.2330172214424238e-05,-4.147425352130085e-05,3.9140657463576645e-05,3.837844269583002e-05,-6.835539534222335e-05,4.3693798943422735e-05
1.8341150280321017e-05,-4.1698513086885214e-05,4.036231621284969e-05,3.747743176063523e-05,-7.154892227845266e-05,4.800549504579976e-05
1.135597540269373e-05,-4.551993333734572e-05,4.118010474485345e-05,3.771021874854341e-05,-7.791574898874387e-05,5.35992621735204e-05
7.788088623783551e-06,-5.024198617320508e-05,4.1264647734351456e-05,3.740199827007018e-05,-8.252934640040621e-05,5.765609967056662e-05
8.169653483491857e-06,-5.1330047426745296e-05,4.205416553304531e-05,3.677280983538367e-05,-8.257664740085602e-05,5.946836245129816e-05
9.138587302004453e-06,-5.1533319492591545e-05,4.1915267502190545e-05,3.460592051851563e-05,-7.788401853758842e-05,6.196455069584772e-05
7.177631687227404e-06,-5.396699998527765e-05,3.8866983231855556e-05,3.43850115314126e-05,-6.890656368341297e-05,6.433694215957075e-05
4.76959257866838e-06,-5.7750283303903416e-05,3.5801702324533835e-05,3.893572647939436e-05,-5.708083699573763e-05,6.236848275875673e-05
3.172310016452684e-06,-6.0677568399114534e-05,3.449242649367079e-05,4.251160135027021e-05,-4.487578189582564e-05,5.923329445067793e-05
6.976415534154512e-07,-6.135442527011037e-05,3.348313475726172e-05,4.2356936319265515e-05,-3.4634798794286326e-05,6.14532400504686e-05
-5.031772616348462e-07,-5.972321378067136e-05,3.223141538910568e-05,3.870063301292248e-05,-2.828589094860945e-05,6.8831373937428e-05
1.3715614386455854e-06,-5.7603327149990946e-05,3.472448224783875e-05,3.447158815106377e-05,-2.2818241632194258e-05,7.317099516512826e-05
4.807166988030076e-06,-5.6081644288497046e-05,3.7984787923051044e-05,2.8874001145595685e-05,-1.671515201451257e-05,6.974893767619506e-05
7.445571554853814e-06,-5.5771859479136765e-05,3.4028489608317614e-05,2.7075933758169413e-05,-2.1194462533458136e-05,6.975380529183894e-05
8.650822564959526e-06,-5.596192931989208e-05,2.8205738999531604e-05,2.8191800083732232e-05,-3.5336342989467084e-05,7.63904390623793e-05
5.915762358199572e-06,-5.663444608217105e-05,2.63542005995987e-05,2.4509428840246983e-05,-4.3768715840997174e-05,8.227071521105245e-05
4.693904884334188e-06,-5.820869773742743e-05,2.7406413209973834e-05,2.1245863536023535e-05,-4.266416726750322e-05,8.497417729813606e-05
9.768421477929223e-06,-5.773867087555118e-05,2.9879543944844045e-05,1.939729008881841e-05,-3.7546869862126186e-05,8.143507147906348e-05
1.3873773241357412e-05,-5.50246040802449e-05,3.441573426243849e-05,1.825074286898598e-05,-2.9846662073396146e-05,7.403228664770722e-05
1.5427862308570184e-05,-5.400125519372523e-05,3.889934305334464e-05,1.6012481864891015e-05,-2.175574809371028e-05,6.607166869798675e-05
1.7434142137062736e-05,-5.445246279123239e-05,3.9888334868010134e-05,1.5822331988601945e-05,-1.73698972503189e-05,5.968341793050058e-05
2.0458419385249726e-05,-5.420637899078429e-05,3.8275156839517877e-05,2.004426460189279e-05,-1.47311784530757e-05,5.4544889280805364e-05
2.2952955987420864e-05,-5.178988794796169e-05,3.172305878251791e-05,2.327975380467251e-05,-7.721887413936201e-06,5.0365830247756094e-05
2.383949868089985e-05,-5.056454392615706e-05,2.350799877604004e-05,2.4165599825209938e-05,4.2898864194285125e-06,4.6171557187335566e-05
2.5109926355071366e-05,-5.0482412916608155e-05,2.1065101464046165e-05,2.5626795832067728e-05,1.6556063201278448e-05,4.660585545934737e-05
2.8909624234074727e-05,-5.041011900175363e-05,2.6086114303325303e-05,2.806501288432628e-05,2.5027000447153114e-05,5.314096051733941e-05
3.102792106801644e-05,-5.0711027142824605e-05,3.256052514188923e-05,2.9913862817920744e-05,2.9127999368938617e-05,5.949922342551872e-05
2.738410694291815e-05,-5.216868157731369e-05,3.4151114959968254e-05,3.2621624995954335e-05,3.0674411391373724e-05,5.8010184147860855e-05
2.1182462660362944e-05,-5.328543556970544e-05,3.1782295991433784e-05,3.6562963941833004e-05,2.9354754587984644e-05,5.116017928230576e-05
1.7438957002013922e-05,-5.3773357649333775e-05,3.1557421607431024e-05,3.823964289040305e-05,2.562217923696153e-05,4.596187500283122e-05
1.9108423657598905e-05,-5.408119614003226e-05,3.258050492149778e-05,3.7493446143344045e-05,2.2311543943942524e-05,4.491060826694593e-05
2.3752903871354647e-05,-5.358319322112948e-05,3.160858977935277e-05,3.604076846386306e-05,1.860062729974743e-05,5.007372237741947e-05
2.8105299861636013e-05,-5.289369073580019e-05,2.9428374546114355e-05,3.37418241542764e-05,1.2316065294726286e-05,6.168938125483692e-05
3.202731386409141e-05,-5.461182809085585e-05,3.0333529139170423e-05,3.3182415791088715e-05,7.782705324643757e-06,7.438813918270171e-05
3.4159180358983576e-05,-5.832499300595373e-05,3.285305865574628e-05,3.4152100852224976e-05,9.793989192985464e-06,7.426518277497962e-05
3.576564631657675e-05,-5.823390165460296e-05,3.3458363759564236e-05,3.471090167295188e-05,1.2527386388683226e-05,6.269786535995081e-05
4.070441718795337e-05,-5.403008617577143e-05,3.2263415050692856e-05,3.483096224954352e-05,9.961167961591855e-06,5.551904541789554e-05
4.5735181629424915e-05,-4.9518643209012225e-05,3.162256325595081e-05,3.539053795975633e-05,3.8501302697113715e-06,5.649415106745437e-05
4.6209512220229954e-05,-4.920408173347823e-05,3.273537367931567e-05,3.637713962234557e-05,-2.985665105370572e-06,5.9739115386037156e-05
4.609255483956076e-05,-5.262551349005662e-05,3.3288019039900973e-05,3.648217170848511e-05,-5.689611498382874e-06,6.0967802710365504e-05
4.735174297820777e-05,-5.450045136967674e-05,3.379685585969128e-05,3.219778955099173e-05,-7.375504083029227e-06,5.947831232333556e-05
4.6487737563438714e-05,-5.290647823130712e-05,3.2062373065855354e-05,2.7189053071197122e-05,-1.2730331036436837e-05,5.7821936934487894e-05
4.268563861842267e-05,-5.035684444010258e-05,3.032256972801406e-05,2.5816985726123676e-05,-1.8530885427026078e-05,5.6689459597691894e-05
3.8561425753869116e-05,-4.773670298163779e-05,3.0226423405110836e-05,2.6432153390487656e-05,-2.0134408259764314e-05,5.8307348808739334e-05
3.887180355377495e-05,-4.709708082373254e-05,3.257738353568129e-05,2.463218515913468e-05,-1.7939053577720188e-05,5.882956611458212e-05
3.781789928325452e-05,-4.5864635467296466e-05,3.242236562073231e-05,2.0741164917126298e-05,-1.475314456911292e-05,5.353593951440416e-05
3.413118975004181e-05,-4.479557173908688e-05,3.1721076084068045e-05,2.0212335584801622e-05,-1.280850210605422e-05,5.145813702256419e-05
3.02665721392259e-05,-4.773136606672779e-05,3.204938548151404e-05,2.0362555005704053e-05,-1.2845680430473294e-05,5.88440198043827e-05
2.6813613658305258e-05,-5.1383260142756626e-05,3.0214399885153398e-05,1.715301550575532e-05,-1.2716920537059195e-05,6.426684558391571e-05
2.4835238946252503e-05,-5.21445253980346e-05,2.852591387636494e-05,1.777338911779225e-05,-1.2396300917316694e-05,6.256879714783281e-05
2.2875101421959698e-05,-5.273450005915947e-05,2.778453563223593e-05,2.3678399884374812e-05,-1.3117538401274942e-05,5.504341970663518e-05
2.1745370759163052e-05,-5.402349415817298e-05,2.8096974347135983e-05,2.7176969524589367e-05,-1.3134906112099998e-05,4.8543690354563296e-05
2.1088981156935915e-05,-5.6048334954539314e-05,2.9767896194243804e-05,2.6916672140941955e-05,-1.419106683897553e-05,4.909027848043479e-05
2.1473717424669303e-05,-5.829170913784765e-05,3.3314736356260255e-05,2.6218409402645193e-05,-2.0864506950601935e-05,5.429737575468607e-05
2.292058888997417e-05,-5.829084329889156e-05,3.464741166681051e-05,2.3848109776736237e-05,-3.3025316952262074e-05,5.812123345094733e-05
2.760847746685613e-05,-5.679912646883167e-05,3.1212483008857816e-05,2.0339390175649896e-05,-4.7734807594679296e-05,5.777447222499177e-05
3.403215669095516e-05,-5.559610508498736e-05,2.49747718044091e-05,2.1668429326382466e-05,-5.796701952931471e-05,5.535082527785562e-05
3.5932622267864645e-05,-5.4533004004042596e-05,2.2864469428895973e-05,2.618492544570472e-05,-5.830157897435129e-05,5.38459571544081e-05
3.0949257052270696e-05,-5.3080621000844985e-05,2.4109307560138404e-05,2.6855159376282245e-05,-5.126034011482261e-05,5.565909305005334e-05
2.416987445030827e-05,-5.1103535952279344e-05,2.4549095542170107e-05,2.3100994440028444e-05,-4.101326339878142e-05,5.7917706726584584e-05
1.8982740584760904e-05,-4.888903276878409e-05,2.234098792541772e-05,2.129743188561406e-05,-2.661702092154883e-05,5.8901750890072435e-05
1.547993451822549e-05,-4.705065657617524e-05,2.0556664821924642e-05,2.377734381298069e-05,-1.1259212442382704e-05,5.7294655562145635e-05
1.2902878552267794e-05,-4.6415258111665025e-05,2.2129495846456848e-05,2.8653039407799952e-05,1.9816216081380844e-06,5.265327126835473e-05
1.0556257620919496e-05,-4.992323010810651e-05,2.8999258574913256e-05,3.2052888855105266e-05,1.4632458260166459e-05,4.93412881041877e-05
1.0219115210929886e-05,-5.265265644993633e-05,3.556202500476502e-05,3.445732727413997e-05,2.476650297467131e-05,5.498071186593734e-05
9.625888196751475e-06,-5.212624091655016e-05,3.592019493225962e-05,3.623515658546239e-05,3.145668233628385e-05,6.134768773335963e-05
8.638794497528579e-06,-4.965661355527118e-05,3.419144923100248e-05,3.6276331229601055e-05,3.742901753867045e-05,6.122611375758424e-05
1.0179366654483601e-05,-4.742704186355695e-05,3.090338941547088e-05,3.2640011340845376e-05,4.112891110708006e-05,6.070447125239298e-05
1.2140139915572945e-05,-4.865517985308543e-05,2.956675598397851e-05,2.7166750442120247e-05,3.492576433927752e-05,6.321999535430223e-05
1.3780913832306396e-05,-5.0468865083530545e-05,3.087490767939016e-05,2.3552032871521078e-05,1.8865252059185877e-05,6.479876901721582e-05
1.4435336197493598e-05,-4.99597517773509e-05,3.083389674429782e-05,1.9201545001124032e-05,-4.249638152487023e-07,6.100893733673729e-05
1.2742472790705506e-05,-4.866126619162969e-05,3.087886580033228e-05,1.9071325368713588e-05,-1.5293986507458612e-05,5.7319088227814063e-05
1.2857996807724703e-05,-4.987817374058068e-05,3.361199196660891e-05,2.4590242901467718e-05,-2.2264750441536307e-05,5.9920010244240984e-05
1.679864726611413e-05,-5.043489363742992e-05,3.530078174662776e-05,2.6675597837311216e-05,-2.652895636856556e-05,6.486692291218787e-05
1.8991198885487393e-05,-4.761996751767583e-05,3.374039079062641e-05,2.336077523068525e-05,-2.998467425641138e-05,6.734347698511556e-05
1.905437784444075e-05,-4.554490078589879e-05,3.131068660877645e-05,2.3094304197002202e-05,-3.2806743547553197e-05,6.570467667188495e-05
2.2641941541223787e-05,-4.6582805225625634e-05,3.056064815609716e-05,2.7233909349888563e-05,-3.612430009525269e-05,6.363658758345991e-05
2.883190791180823e-05,-4.945605178363621e-05,3.122605994576588e-05,2.7111553208669648e-05,-4.138555596000515e-05,6.284711707849056e-05
3.255085539421998e-05,-4.9701251555234194e-05,3.238396311644465e-05,2.4207824026234448e-05,-4.7736295528011397e-05,5.9151581808691844e-05
3.306940197944641e-05,-4.8094254452735186e-05,3.245123662054539e-05,2.4952370949904434e-05,-5.025454447604716e-05,5.312356006470509e-05
3.208762063877657e-05,-4.8026529839262366e-05,3.29974755004514e-05,2.8960726922377944e-05,-4.634571814676747e-05,4.714612805400975e-05
2.9238855859148316e-05,-4.9232825404033065e-05,3.5943015973316506e-05,3.52142596966587e-05,-3.7446385249495506e-05,4.519542198977433e-05
2.5570283469278365e-05,-4.8649042582837865e-05,3.8085232517914847e-05,4.235961023368873e-05,-2.2639345843344927e-05,4.90856145916041e-05
2.3303855414269492e-05,-4.6536071749869734e-05,3.7370533391367644e-05,4.419236574904062e-05,1.9046683519263752e-06,5.2940795285394415e-05
2.236536420241464e-05,-4.633493153960444e-05,3.5848159313900396e-05,4.18884665123187e-05,3.5664379538502544e-05,5.2040748414583504e-05
2.003650661208667e-05,-4.6861077862558886e-05,3.498949808999896e-05,3.980532710556872e-05,6.956917059142143e-05,5.031134787714109e-05
1.6169291484402493e-05,-4.499161150306463e-05,3.2640062272548676e-05,3.6852958146482706e-05,9.213180601364002e-05,4.9992071581073105e-05
1.4517124327539932e-05,-4.15930335293524e-05,2.9749407985946164e-05,3.424066017032601e-05,0.00010184322309214622,5.147756019141525e-05
1.6697338651283644e-05,-3.8697875424986705e-05,2.875001882785e-05,3.21594015986193e-05,0.00010175552597502246,5.272493581287563e-05
1.8606164303491823e-05,-3.5270870284875855e-05,2.991883593495004e-05,2.924952786997892e-05,8.904738933779299e-05,5.480077015818097e-05
1.5802916095708497e-05,-3.4980159398401156e-05,3.12182201014366e-05,2.7754360417020507e-05,6.418033444788307e-05,5.6884560763137415e-05
1.1650497071968857e-05,-3.5773155104834586e-05,3.148412724840455e-05,2.7266733013675548e-05,2.5477469534962438e-05,5.61346641916316e-05
1.2766690815624315e-05,-3.511973409331404e-05,3.0679075280204415e-05,2.6502257242100313e-05,-2.8096212190575898e-05,5.848398359376006e-05
1.681804315012414e-05,-3.563512291293591e-05,2.871678225346841e-05,2.8833394026150927e-05,-8.288522803923115e-05,6.127842789283022e-05
2.0416455299709924e-05,-3.472132084425539e-05,2.727157698245719e-05,3.1732197385281324e-05,-0.00012136471195844933,6.100151585997082e-05
2.553796730353497e-05,-3.5013359592994675e-05,2.8503027351689525e-05,3.405845563975163e-05,-0.0001405006623826921,6.139087054179981e-05
2.6930169042316265e-05,-3.7448498915182427e-05,3.0333038012031466e-05,3.6857087252428755e-05,-0.00014504311548080295,6.123617640696466e-05
2.373471033934038e-05,-3.926540011889301e-05,3.152716817567125e-05,3.8294496334856376e-05,-0.0001349214871879667,6.097472942201421e-05
2.269327342219185e-05,-4.107139466213994e-05,3.3871987398015335e-05,3.8432270230259746e-05,-0.00011533861834323034,6.40434809611179e-05
2.3348200556938536e-05,-4.239023110130802e-05,3.289748201495968e-05,3.7082787457620725e-05,-9.10519011085853e-05,6.571969424840063e-05
2.479036083968822e-05,-4.4114702177466825e-05,2.8226884751347825e-05,3.823972656391561e-05,-6.754758942406625e-05,6.297642539720982e-05
2.6384741431684233e-05,-4.450176129466854e-05,2.5644902052590623e-05,4.2904543079202995e-05,-3.6939345591235906e-05,6.082049003452994e-05
2.6696870918385684e-05,-4.479403287405148e-05,2.5558736524544656e-05,4.410844121593982e-05,1.999147116293898e-06,6.302927795331925e-05
2.4289060092996806e-05,-4.853021164308302e-05,2.7679723643814214e-05,4.029223418910988e-05,4.0816099499352276e-05,6.479191506514326e-05
2.093628245347645e-05,-4.9492475227452815e-05,2.9947139410069212e-05,3.5520122764864936e-05,7.610093598486856e-05,6.363797729136422e-05
1.7518113963888027e-05,-4.543329851003364e-05,2.8602275051525794e-05,3.032907989108935e-05,0.00010288086923537776,6.058639701223001e-05
1.5769066521897912e-05,-4.1271203372161835e-05,2.65318503807066e-05,2.6446630727150477e-05,0.00011633311805780977,5.943715586909093e-05
1.6902940842555836e-05,-4.132112371735275e-05,2.8996573746553622e-05,2.7599837267189287e-05,0.00011606009502429515,6.08114423812367e-05
1.9413984773564152e-05,-4.530974183580838e-05,3.3754291507648304e-05,3.364406438777223e-05,0.00010863023635465652,6.319842213997617e-05
2.2554624592885375e-05,-4.996627467335202e-05,3.590590495150536e-05,3.8575301005039364e-05,9.532170952297747e-05,6.301373650785536e-05
2.6192068617092445e-05,-5.213356052991003e-05,3.625159661169164e-05,3.510870010359213e-05,7.932076550787315e-05,6.154814036563039e-05
2.932168536062818e-05,-5.0461298087611794e-05,3.753889541258104e-05,2.7075817342847586e-05,6.566379306605086e-05,6.547583325300366e-05
3.200259379809722e-05,-4.9572819989407435e-05,3.902625758200884e-05,2.4001759811653756e-05,5.4298874601954594e-05,7.186704169725999e-05
3.753335840883665e-05,-5.2662471716757864e-05,3.789853508351371e-05,2.5074523364310153e-05,3.9720005588606e-05,7.369098602794111e-05
4.2201536416541785e-05,-5.51575722056441e-05,3.445854963501915e-05,2.5637660655775107e-05,2.5000346795422956e-05,7.406784425256774e-05
4.253577935742214e-05,-5.223786865826696e-05,3.1736875826027244e-05,2.4879451302695088e-05,1.3931506146036554e-05,7.842266495572403e-05
4.1230974602513015e-05,-5.1810620789183304e-05,3.2006242690840736e-05,2.2768501366954297e-05,4.356243152869865e-06,7.661459676455706e-05
4.0480961615685374e-05,-5.154121754458174e-05,3.381158967386e-05,2.348696034459863e-05,-5.056277586845681e-06,6.5381005697418e-05
3.861864752252586e-05,-4.8236594011541456e-05,3.386013122508302e-05,2.5716104573803023e-05,-1.1391414773243014e-05,5.696475272998214e-05
3.610187195590697e-05,-4.74818043585401e-05,3.2071526220534e-05,2.5025830836966634e-05,-1.8604963770485483e-05,5.903137935092673e-05
3.0019358746358193e-05,-4.750635343953036e-05,3.288827429059893e-05,1.9230767065891996e-05,-2.79610922007123e-05,6.146973464637995e-05
2.3541602786281146e-05,-4.641234045266174e-05,3.711894532898441e-05,1.2558230082504451e-05,-3.676388587336987e-05,6.582764035556465e-05
1.8004862795351073e-05,-4.624034772859886e-05,4.0773731598164886e-05,1.1648391591734253e-05,-4.7621775593142956e-05,6.902684981469065e-05
1.3164449228497688e-05,-4.8740446800366044e-05,4.094450923730619e-05,1.747712303767912e-05,-5.6355416745645925e-05,6.288629083428532e-05
1.2108205737604294e-05,-5.12031365360599e-05,3.79771227017045e-05,2.534909435780719e-05,-5.8236582844983786e-05,5.3667983593186364e-05
1.3712115105590783e-05,-5.3210100304568186e-05,3.620792995207012e-05,2.6304300263291225e-05,-5.461499313241802e-05,5.323188452166505e-05
1.5768002413096838e-05,-5.1727558457059786e-05,3.7713605706812814e-05,2.2516320314025506e-05,-5.006166611565277e-05,6.495421257568523e-05
1.5369843822554685e-05,-5.3056315664434806e-05,3.855092654703185e-05,2.3156386305345222e-05,-4.683553197537549e-05,7.23113989806734e-05
1.6176252756849863e-05,-5.5672062444500625e-05,3.75191229977645e-05,2.922555177065078e-05,-4.5358185161603615e-05,6.694469630019739e-05
1.583048106112983e-05,-5.4736814490752295e-05,3.7140605854801834e-05,3.1988518458092585e-05,-4.438788892002776e-05,5.6474564189556986e-05
1.32569475681521e-05,-5.251356560620479e-05,3.6685200029751286e-05,2.81882948911516e-05,-4.3960513721685857e-05,4.833909770241007e-05
1.1350823115208186e-05,-5.103586590848863e-05,3.6284589441493154e-05,2.424664307909552e-05,-4.501072544371709e-05,4.299162537790835e-05
1.2084257832611911e-05,-5.342283475329168e-05,3.39775433531031e-05,2.6725638235802762e-05,-4.361442552180961e-05,3.973343700636178e-05
1.3350138942769263e-05,-5.497945676324889e-05,3.054981789318845e-05,3.408576958463527e-05,-3.675472180475481e-05,3.998519969172776e-05
1.3382546057982836e-05,-5.509981929208152e-05,2.9450226065819152e-05,3.985047806054354e-05,-2.8732405553455465e-05,4.649046968552284e-05
1.1722572708094958e-05,-5.57981948077213e-05,3.003185338457115e-05,4.00348289986141e-05,-2.531590507715009e-05,5.139983841218054e-05
9.79829110292485e-06,-5.7839872170006856e-05,2.9004213502048515e-05,3.7413014069898054e-05,-2.759644303296227e-05,4.988443834008649e-05
9.35577008931432e-06,-5.9919682826148346e-05,2.6800971681950614e-05,3.5839766496792436e-05,-2.9627846743096597e-05,4.970155714545399e-05
1.061610510078026e-05,-6.017560372129083e-05,2.6269415684510022e-05,3.4290951589355245e-05,-2.8499938707682304e-05,5.5803895520512015e-05
1.158060331363231e-05,-5.8473357057664543e-05,2.7078585844719782e-05,3.291169923613779e-05,-2.6365472876932472e-05,6.452036905102432e-05
1.10963355837157e-05,-5.880126991542056e-05,2.714439142437186e-05,3.35684344463516e-05,-2.5788343918975443e-05,7.040171476546675e-05
1.3148108337190934e-05,-6.0007434512954205e-05,2.6224941393593326e-05,3.4258202504133806e-05,-2.7094745746580884e-05,6.841858703410253e-05
1.707690353214275e-05,-5.7907251175493e-05,2.500969458196778e-05,3.3969907235587016e-05,-2.8245025532669388e-05,5.901081385673024e-05
1.987187351915054e-05,-5.184965266380459e-05,2.3054179109749384e-05,3.408176780794747e-05,-2.6706084099714644e-05,5.2789786423090845e-05
1.65026358445175e-05,-4.738925417768769e-05,2.1846199160791002e-05,3.110362740699202e-05,-2.1962519895168953e-05,5.275243893265724e-05
1.2018675988656469e-05,-4.953924872097559e-05,2.1256066247588024e-05,2.856225546565838e-05,-1.902137228171341e-05,5.4009538871468976e-05
1.369654455629643e-05,-5.3853942517889664e-05,2.261667395941913e-05,2.6321058612666093e-05,-1.7980624761548825e-05,5.469825555337593e-05
2.1624469809466973e-05,-5.5368644098052755e-05,2.4155549908755347e-05,2.5453207854297943e-05,-1.8784121493808925e-05,5.6464185036020353e-05
2.8754404411301948e-05,-5.4295345762511715e-05,2.5565819669282064e-05,3.0322926249937154e-05,-1.942674680321943e-05,5.529716145247221e-05
2.8286431188462302e-05,-5.4426101996796206e-05,2.7089979994343594e-05,3.623745942604728e-05,-1.7300506442552432e-05,4.5801880332874134e-05
2.504489202692639e-05,-5.567381958826445e-05,2.6670397346606478e-05,3.94406815757975e-05,-1.6595315173617564e-05,3.759488390642218e-05
2.1975849449518137e-05,-5.567049083765596e-05,2.8911419576616026e-05,3.584250953281298e-05,-1.4697283404530026e-05,3.802276842179708e-05
2.234279236290604e-05,-5.38894601049833e-05,3.254182229284197e-05,3.02549269690644e-05,-1.275812610401772e-05,4.160865501035005e-05
2.2817250282969326e-05,-5.103998410049826e-05,3.27612942783162e-05,3.0539737053913996e-05,-1.3344536455406342e-05,4.700889621744864e-05
1.7569745978107676e-05,-5.077676905784756e-05,2.8072488930774853e-05,3.2877109333639964e-05,-2.0621166186174378e-05,5.185415284358896e-05
1.2325850548222661e-05,-5.3099072829354554e-05,2.2534750314662233e-05,3.3118856663350016e-05,-3.7165846151765436e-05,4.8165493353735656e-05
9.50184949033428e-06,-5.7342953368788585e-05,2.297040555276908e-05,3.063774056499824e-05,-5.578755371971056e-05,3.948402081732638e-05
9.48751676332904e-06,-5.952668652753346e-05,2.5462502890150063e-05,2.560946268204134e-05,-6.897394632687792e-05,3.589358675526455e-05
1.0390228453616146e-05,-5.829568181070499e-05,2.7736472475226037e-05,2.6774978323373944e-05,-7.538419595221058e-05,3.764247230719775e-05
1.142581913882168e-05,-5.779144703410566e-05,3.0006456654518843e-05,3.121953341178596e-05,-8.447745494777337e-05,4.233627987559885e-05
1.0102445230586454e-05,-5.622504613711499e-05,3.3140146115329117e-05,3.071942046517506e-05,-9.778092498891056e-05,4.7591754992026836e-05
6.692597253277199e-06,-5.067873280495405e-05,3.709958400577307e-05,2.709781074372586e-05,-0.00010334923717891797,4.7366633225465193e-05
5.386028533393983e-06,-4.417440504767001e-05,3.9854447095422074e-05,2.4689272322575562e-05,-9.606041567167267e-05,4.312780947657302e-05
7.451875717379153e-06,-4.321214873925783e-05,3.956654472858645e-05,2.735231646511238e-05,-8.084346336545423e-05,4.446877210284583e-05
1.0240243682346772e-05,-4.768825965584256e-05,3.5457418562145904e-05,3.542323611327447e-05,-5.990104182274081e-05,5.2758412493858486e-05
1.1254694072704297e-05,-5.146820694790222e-05,3.2018528145272285e-05,4.22723351221066e-05,-3.541852856869809e-05,6.1371574702207e-05
1.1415490916988347e-05,-4.94993946631439e-05,3.279804877820425e-05,4.1715222323546186e-05,-1.2986482943233568e-05,6.474171095760539e-05
1.275936756428564e-05,-4.6674118493683636e-05,3.642759838839993e-05,4.136305506108329e-05,3.1144363674684428e-06,6.620156636927277e-05
1.626815355848521e-05,-4.6893939725123346e-05,3.8975736970314756e-05,4.477464608498849e-05,1.8511713278712705e-05,6.769647734472528e-05
1.9180874005542137e-05,-4.6475663111777976e-05,3.910647865268402e-05,4.395908399601467e-05,4.262522634235211e-05,6.8330904468894e-05
2.045541987172328e-05,-4.757086935569532e-05,3.616722460719757e-05,3.9002632547635585e-05,7.638365059392527e-05,6.96559582138434e-05
2.0410356228239834e-05,-5.1871636969735846e-05,3.317647860967554e-05,3.408785778447054e-05,0.0001070641228579916,6.687696441076696e-05
2.283070898556616e-05,-5.2437619160627946e-05,3.189672133885324e-05,3.0532431992469355e-05,0.000121776269224938,6.330122414510697e-05
2.7498033887241036e-05,-5.1369752327445894e-05,3.0643313948530704e-05,3.086755532422103e-05,0.00011942732089664787,6.482040043920279e-05
3.076234133914113e-05,-5.164708272786811e-05,2.9028431526967324e-05,2.717276947805658e-05,0.00010881998605327681,7.05527127138339e-05
3.2367464882554486e-05,-5.118221451994032e-05,2.6527108275331557e-05,2.0983577996958047e-05,9.530377428745851e-05,7.749758515274152e-05
3.320127507322468e-05,-4.7999910748330876e-05,2.6786541639012285e-05,1.788000372471288e-05,7.730698416708037e-05,7.644486322533339e-05
3.116934749414213e-05,-4.5246943045640364e-05,3.0014352887519635e-05,2.0888432118226774e-05,5.9750749642262235e-05,6.959790334803984e-05
2.983064769068733e-05,-4.6735163778066635e-05,3.161112908856012e-05,2.8829093935200945e-05,4.8955687816487625e-05,6.904118345119059e-05
3.1883329938864335e-05,-4.795916174771264e-05,3.3100706787081435e-05,3.288120933575556e-05,4.470129715627991e-05,7.323492172872648e-05
3.532925620675087e-05,-4.61396666651126e-05,3.433030724409036e-05,3.0025516025489196e-05,3.9191145333461463e-05,7.312798697967082e-05
4.01727193093393e-05,-4.287016417947598e-05,3.456365811871365e-05,1.996619721467141e-05,3.3615422580624e-05,6.763717101421207e-05
4.371863542473875e-05,-4.011302735307254e-05,3.378059045644477e-05,6.931762982276268e-06,2.9802893550368026e-05,6.028450297890231e-05
4.330454612500034e-05,-4.020901906187646e-05,3.316528454888612e-05,-6.67023141431855e-06,2.7858459361596033e-05,5.241321923676878e-05
3.915108027285896e-05,-4.3207386624999344e-05,3.2207164622377604e-05,-1.8603139324113727e-05,2.6686409910325892e-05,4.965429980074987e-05
3.3452623029006645e-05,-4.5855278585804626e-05,2.874256097129546e-05,-2.034610770351719e-05,2.23427214223193e-05,5.042799602961168e-05
2.8296493837842718e-05,-4.539726069197059e-05,2.7490932552609593e-05,-6.122849754319759e-06,1.4033459592610598e-05,4.967934364685789e-05
2.435524766042363e-05,-4.186766091152094e-05,2.8530332201626152e-05,1.6989708456094377e-05,2.531881364120636e-06,4.961259401170537e-05
2.1824745999765582e-05,-3.960552203352563e-05,2.964529448945541e-05,3.856108378386125e-05,-1.1206519047846086e-05,5.063608114141971e-05
2.094592127832584e-05,-4.167436418356374e-05,3.193677912349813e-05,5.1088034524582326e-05,-2.3864902686909772e-05,5.048755701864138e-05
2.2422806068789214e-05,-4.59858201793395e-05,3.275861672591418e-05,5.358147245715372e-05,-2.96916641673306e-05,4.998669101041742e-05
2.4720740839256905e-05,-4.922421067021787e-05,3.173149161739275e-05,4.9128899263450876e-05,-3.069948070333339e-05,5.217783836997114e-05
2.4562617909396067e-05,-5.1348597480682656e-05,3.082425973843783e-05,4.270951103535481e-05,-3.0122277166810818e-05,5.802228770335205e-05
2.3570753910462372e-05,-5.232220792095177e-05,3.0301052902359515e-05,4.452298890100792e-05,-3.023269891855307e-05,6.335071520879865e-05
2.3971035261638463e-05,-4.968542998540215e-05,3.150946940877475e-05,5.850533125340007e-05,-3.171402931911871e-05,6.635789759457111e-05
2.4085073164314963e-05,-4.531889862846583e-05,3.276673669461161e-05,7.809968519723043e-05,-3.410847784834914e-05,6.831182690802962e-05
2.248130113002844e-05,-4.57387141068466e-05,3.057449430343695e-05,8.871112368069589e-05,-3.5487624700181186e-05,6.95278649800457e-05
2.085222331515979e-05,-4.7039269702509046e-05,2.8122562071075663e-05,8.309783152071759e-05,-3.5401462810114026e-05,7.421304326271638e-05
1.9154300389345735e-05,-4.3157600885024294e-05,3.091705730184913e-05,6.98757721693255e-05,-3.572895730030723e-05,7.84281874075532e-05
1.687497933744453e-05,-4.250702477293089e-05,3.312113767606206e-05,5.425160998129286e-05,-3.526084765326232e-05,6.791431223973632e-05
1.7013850083458237e-05,-4.7414927394129336e-05,2.897159538406413e-05,4.076567347510718e-05,-3.2746851502452046e-05,4.9020945880329236e-05
1.7216982087120414e-05,-4.990168963558972e-05,2.6432866434333846e-05,2.6337658709962852e-05,-3.383722287253477e-05,4.1384933865629137e-05
1.5375086150015704e-05,-5.121925278217532e-05,2.74280955636641e-05,1.4994494449638296e-05,-3.735205245902762e-05,4.3708008888643235e-05
1.5222919500956777e-05,-5.1439590606605634e-05,3.1824623874854296e-05,1.5136807633098215e-05,-3.741715045180172e-05,5.108445111545734e-05
2.3509581296821125e-05,-5.07801232743077e-05,3.801098500844091e-05,1.8437120161252096e-05,-3.5881748772226274e-05,6.027980998624116e-05
3.4272314223926514e-05,-5.1916344091296196e-05,3.83314436476212e-05,1.784993764886167e-05,-3.331263724248856e-05,6.281373498495668e-05
3.57077551598195e-05,-5.601010343525559e-05,3.5171535273548216e-05,1.3761598893324845e-05,-2.7226391466683708e-05,6.045036934665404e-05
3.191797077306546e-05,-6.079372906242497e-05,3.390642086742446e-05,1.0242092685075477e-05,-2.3454029360436834e-05,5.707216769224033e-05
2.8295087759033777e-05,-6.132505950517952e-05,3.653052408481017e-05,9.737170330481604e-06,-2.6124051146325655e-05,5.289283217280172e-05
2.7725811378331855e-05,-5.659303496940993e-05,3.99065284000244e-05,1.4255491805670317e-05,-2.7192449124413542e-05,4.850775803788565e-05
2.868448973458726e-05,-5.309217522153631e-05,3.7320296542020515e-05,2.2287096726358868e-05,-2.2364925825968385e-05,4.259502384229563e-05
2.6638806957635097e-05,-5.571431029238738e-05,3.255407136748545e-05,2.8936339731444605e-05,-1.5515841369051486e-05,4.322383756516501e-05
2.2584152247873135e-05,-5.963369767414406e-05,3.199802085873671e-05,2.823943577823229e-05,-1.1906338841072284e-05,5.0328941142652184e-05
1.8383147107670084e-05,-5.8567471569404006e-05,3.250339796068147e-05,2.459639472363051e-05,-1.2332470760156866e-05,5.430312376120128e-05
1.5367371815955266e-05,-5.360073555493727e-05,3.350157567183487e-05,2.2524107407662086e-05,-1.6171328752534464e-05,5.1870661991415545e-05
1.4999716768215876e-05,-5.081059134681709e-05,3.494603151921183e-05,2.1182135242270306e-05,-1.922328374348581e-05,5.0853894208557904e-05
1.5745526980026625e-05,-5.159010470379144e-05,3.356028537382372e-05,2.0118774045840837e-05,-1.7846728951553814e-05,5.636159039568156e-05
1.650850936130155e-05,-5.3775082051288337e-05,2.9055547202005982e-05,2.1332214600988664e-05,-1.378824163111858e-05,6.570949335582554e-05
1.9608713046181947e-05,-5.4084342991700396e-05,2.7385151042835787e-05,2.1661448045051657e-05,-1.199588950839825e-05,6.979679164942354e-05
2.507810313545633e-05,-5.45875882380642e-05,2.9363382054725662e-05,1.8677403204492293e-05,-1.4064508832234424e-05,6.490413943538442e-05
2.9350414479267783e-05,-5.487510497914627e-05,3.08579474221915e-05,1.973784492292907e-05,-1.592336229805369e-05,5.7078512327279896e-05
3.161167478538118e-05,-5.048683306085877e-05,3.31912815454416e-05,2.437789589748718e-05,-1.719016654533334e-05,5.2936691645300016e-05
3.370357444509864e-05,-4.46266021754127e-05,3.6133078538114205e-05,2.6057186914840713e-05,-1.811485708458349e-05,5.501726263901219e-05
3.656552144093439e-05,-4.380030804895796e-05,3.5834989830618724e-05,2.4294875402119942e-05,-1.78887876245426e-05,5.5477572459494695e-05
3.9430851757060736e-05,-4.723637903225608e-05,3.273458787589334e-05,1.9110957509838045e-05,-1.8529884982854128e-05,5.372809027903713e-05
4.131056630285457e-05,-5.079896072857082e-05,2.9694667318835855e-05,1.289192914555315e-05,-1.932615487021394e-05,5.3123516408959404e-05
3.971656406065449e-05,-5.064436118118465e-05,2.6741372494143434e-05,1.4309709513327107e-05,-1.857329516496975e-05,5.7322031352669e-05
3.609447958297096e-05,-4.698470002040267e-05,2.5714178264024667e-05,1.9525263269315474e-05,-1.7751570339896716e-05,6.370282062562183e-05
3.232306698919274e-05,-4.5815926569048315e-05,2.6530015020398423e-05,2.091376154567115e-05,-2.0404542738106102e-05,6.419391138479114e-05
2.793297426251229e-05,-4.945262844557874e-05,2.4584194761700928e-05,1.9064100342802703e-05,-2.448333725624252e-05,5.706917363568209e-05
2.6009447537944652e-05,-5.460995816974901e-05,2.3632828742847778e-05,1.7854845282272436e-05,-3.323695273138583e-05,5.2303174015833065e-05
3.017804010596592e-05,-5.718613465433009e-05,2.709701584535651e-05,1.6787025742814876e-05,-4.588917727232911e-05,5.183853136259131e-05
3.33127572957892e-05,-5.6393982958979905e-05,2.8554961318150163e-05,1.9739991330425255e-05,-5.304598744260147e-05,5.015367059968412e-05
2.91878568532411e-05,-5.6206648878287524e-05,2.701906305446755e-05,2.702701931411866e-05,-5.3406933147925884e-05,5.074492219137028e-05
2.4141281755873933e-05,-5.6723896705079824e-05,2.6015733965323307e-05,2.9247750717331655e-05,-4.572383113554679e-05,5.47060371900443e-05
2.0586754544638097e-05,-5.5813976359786466e-05,2.6284458726877347e-05,2.9089220333844423e-05,-3.20179715345148e-05,5.702485941583291e-05
1.8609687685966492e-05,-5.4569743952015415e-05,2.937249155365862e-05,2.6480962333153002e-05,-1.752208663674537e-05,5.6170232710428536e-05
1.674679879215546e-05,-5.0169306632597e-05,3.083292176597752e-05,1.923371928569395e-05,-5.338790288078599e-06,5.646926729241386e-05
1.666027310420759e-05,-4.245138552505523e-05,2.8032913178321905e-05,1.3926253814133815e-05,4.9635768846201245e-06,6.006009425618686e-05
1.6983460227493197e-05,-3.5995628422824666e-05,2.7782654797192663e-05,1.611994048289489e-05,8.757497198530473e-06,6.347498128889129e-05
1.7538279280415736e-05,-3.339048271300271e-05,2.9482329409802333e-05,2.4410326659562998e-05,4.99668794873287e-06,6.433745875256136e-05
1.7773360013961792e-05,-3.2948533771559596e-05,2.9791382985422388e-05,3.136466330033727e-05,-3.10424184135627e-06,6.346377631416544e-05
1.4390442629519384e-05,-3.338928217999637e-05,2.8502518034656532e-05,3.302704863017425e-05,-1.4638853826909326e-05,6.243597454158589e-05
8.916447768569924e-06,-3.518163794069551e-05,2.7943071472691372e-05,2.9462658858392388e-05,-2.7805366698885337e-05,6.145251245470718e-05
5.4195461416384205e-06,-3.682968599605374e-05,3.0121460440568626e-05,2.3918089937069453e-05,-3.7532125134021044e-05,6.398215191438794e-05
6.301231223915238e-06,-3.873040259350091e-05,3.406246833037585e-05,1.5497367712669075e-05,-4.078508573002182e-05,6.943233165657148e-05
5.711690846510464e-06,-4.13122761528939e-05,3.556248339009471e-05,4.212620297039393e-06,-3.887770799337886e-05,7.062051736284047e-05
1.8475429897080176e-06,-4.457675458979793e-05,3.3371477911714464e-05,-7.268915396707598e-06,-3.137661769869737e-05,6.810799095546827e-05
-3.2922142167990387e-07,-5.0041471695294604e-05,3.067918078158982e-05,-1.2760887329932302e-05,-2.008963201660663e-05,6.799454422434792e-05
2.310804575245129e-06,-5.5352007620967925e-05,2.7409178073867224e-05,-7.19160379958339e-06,-9.339538337371778e-06,6.798889808123931e-05
8.857650755089708e-06,-5.423518086900003e-05,2.1046131223556586e-05,6.41802489553811e-06,3.911686235369416e-06,5.8312263718107715e-05
1.5010067727416754e-05,-5.2865529141854495e-05,1.342670657322742e-05,1.6064303054008633e-05,2.611518902995158e-05,4.5388420403469354e-05
1.7281467080465518e-05,-5.80484775127843e-05,5.8297109717386775e-06,1.569859523442574e-05,4.960945443599485e-05,3.876085247611627e-05
1.4809900676482357e-05,-6.195118476171046e-05,-1.47610603562498e-06,2.157011113013141e-05,6.531627877848223e-05,4.1597028030082583e-05
1.1628242646111175e-05,-6.160881457617506e-05,-1.223179538101249e-06,4.167830047663301e-05,7.057157199596986e-05,5.317308387020603e-05
1.184184384328546e-05,-6.15734898019582e-05,9.842250619840343e-06,5.881151810172014e-05,7.043753430480137e-05,6.48598070256412e-05
1.057668669091072e-05,-6.358840619213879e-05,2.7616011720965616e-05,6.325411959551275e-05,7.137165812309831e-05,6.87877181917429e-05
1.1097303286078386e-05,-6.148637476144359e-05,4.49292674602475e-05,6.372992356773466e-05,6.73294416628778e-05,6.123526691226289e-05
1.3150257473171223e-05,-5.577061892836355e-05,5.677540320903063e-05,5.9462705394253135e-05,5.683257768396288e-05,5.273570786812343e-05
1.4899784218869172e-05,-5.155922190169804e-05,6.307241710601375e-05,5.410731682786718e-05,4.6844728785799816e-05,5.016173963667825e-05
1.7486478100181557e-05,-4.9373062211088836e-05,6.656136247329414e-05,5.063174830866046e-05,3.6777040804736316e-05,5.030931060900912e-05
1.9733872250071727e-05,-4.923902088194154e-05,7.030869892332703e-05,4.677424658439122e-05,2.7636919185169972e-05,5.3254734666552395e-05
2.102304461004678e-05,-4.957669443683699e-05,7.29107778170146e-05,4.733109744847752e-05,1.3953238521935418e-05,5.859361408511177e-05
2.107725231326185e-05,-4.968938810634427e-05,7.310666842386127e-05,5.0695602112682536e-05,-1.145619353337679e-05,6.0734695580322295e-05
2.15977561310865e-05,-4.795369750354439e-05,6.919056613696739e-05,5.19199893460609e-05,-4.072449519298971e-05,5.8561454352457076e-05
2.5037046725628898e-05,-4.4760756281903014e-05,6.210883293533698e-05,4.8342095396947116e-05,-6.885701441206038e-05,5.306445746100508e-05
3.144381116726436e-05,-4.279064160073176e-05,5.652275649481453e-05,4.11935689044185e-05,-9.838373807724565e-05,4.849378456128761e-05
3.4360076824668795e-05,-4.213030479149893e-05,5.05028001498431e-05,3.155613740091212e-05,-0.00012342218542471528,4.9869144277181476e-05
3.3099116990342736e-05,-4.226297460263595e-05,4.291541699785739e-05,2.397171556367539e-05,-0.00013230393233243376,5.401728776632808e-05
3.125318107777275e-05,-4.40121439169161e-05,3.697798092616722e-05,2.2969474230194464e-05,-0.000123449950478971,5.942653297097422e-05
3.180893691023812e-05,-4.683155202656053e-05,3.25719993270468e-05,2.7325057089910842e-05,-0.00010050406126538292,6.511627725558355e-05
3.3148055081255734e-05,-4.774305853061378e-05,2.708964530029334e-05,3.0869789043208584e-05,-6.744975689798594e-05,6.998707976890728e-05
3.3306441764580086e-05,-4.5986511395312846e-05,2.2219539459911175e-05,2.9939585147076286e-05,-2.5398820071131922e-05,7.332965469686314e-05
3.30788352584932e-05,-4.464964149519801e-05,2.1233137886156328e-05,2.5725381419761106e-05,2.3440963559551165e-05,7.756096601951867e-05
3.2624826417304575e-05,-4.615384750650264e-05,2.4383234631386586e-05,2.2888030798640102e-05,7.128856668714434e-05,7.992005703272298e-05
3.2111307518789545e-05,-4.9081605538958684e-05,2.8452637707232498e-05,2.4211114578065462e-05,0.00011060576071031392,7.600228855153546e-05
3.4332930226810277e-05,-4.9945549108088017e-05,2.858597508748062e-05,2.883778688556049e-05,0.0001322588068433106,7.044589438010007e-05
3.657435445347801e-05,-4.925447501591407e-05,2.6036766939796507e-05,3.5105589631712064e-05,0.0001325412595178932,6.920997839188203e-05
3.3453772630309686e-05,-4.87268807773944e-05,2.9737322620349005e-05,3.712156831170432e-05,0.00012109562521800399,7.124141120584682e-05
2.9296787033672445e-05,-4.863522553932853e-05,3.7058845919091254e-05,3.205882603651844e-05,0.00010483309597475454,6.871500954730436e-05
2.9100454412400723e-05,-4.853877908317372e-05,3.346056109876372e-05,2.6135136067750864e-05,8.676302240928635e-05,6.300020322669297e-05
2.8989270504098386e-05,-4.6300712710944936e-05,2.306494934600778e-05,2.0606401449185796e-05,6.807944009779021e-05,6.56836709822528e-05
2.5605280825402588e-05,-4.28542734880466e-05,1.9126742699882016e-05,1.6548428902751766e-05,4.729329884867184e-05,7.485959213227034e-05
2.0672001483035274e-05,-3.968172677559778e-05,2.4122173272189684e-05,2.02917344722664e-05,3.0437480745604262e-05,8.278802852146327e-05
1.6945503375609405e-05,-3.878978532156907e-05,2.9567256206064485e-05,2.537456930440385e-05,1.7782092982088216e-05,8.100827835733071e-05
1.5539413652732037e-05,-4.2155290429946035e-05,2.878458508348558e-05,2.8762029614881612e-05,4.833112143387552e-06,7.135070336516947e-05
1.6197778677451424e-05,-4.419605829752982e-05,2.4790153474896215e-05,2.8284832296776585e-05,-6.59832539895433e-06,6.266218406381086e-05
2.049824979621917e-05,-4.351188908913173e-05,2.0582081560860388e-05,2.6753603378892876e-05,-1.8833876310964115e-05,5.858936128788628e-05
2.7196170776733197e-05,-4.376050128485076e-05,2.0482155377976596e-05,2.6803962100530043e-05,-3.518927042023279e-05,5.699002940673381e-05
3.127910531475209e-05,-4.784077827935107e-05,2.194920125475619e-05,2.617643986013718e-05,-4.909752169623971e-05,5.8627640100894496e-05
3.386307434993796e-05,-5.2128460083622485e-05,2.1294736143318005e-05,2.4224755179602653e-05,-5.5416505347238854e-05,6.258128269109875e-05
3.482858301140368e-05,-5.2547839004546404e-05,1.885936944745481e-05,2.34248218475841e-05,-5.714491635444574e-05,6.488464714493603e-05
3.3385113056283444e-05,-5.2253137255320325e-05,1.7580183339305222e-05,2.3425873223459348e-05,-5.794735989184119e-05,6.191002466948703e-05
3.260947414673865e-05,-5.1976112445117906e-05,1.595608591742348e-05,2.3875205442891456e-05,-5.894309651921503e-05,5.460309694171883e-05
3.076465509366244e-05,-5.3351377573562786e-05,1.339818390988512e-05,2.9482484023901634e-05,-5.9895741287618876e-05,4.969147630617954e-05
2.9045038900221698e-05,-5.589119245996699e-05,1.3680972188012674e-05,3.812159047811292e-05,-6.117327575339004e-05,4.938319398206659e-05
3.069730519200675e-05,-5.5324926506727934e-05,1.861675082182046e-05,4.3257285142317414e-05,-6.015803955961019e-05,5.310339474817738e-05
3.29961912939325e-05,-4.9398746341466904e-05,2.8242053303983994e-05,4.160512980888598e-05,-5.340421193977818e-05,5.5505555792478845e-05
3.161118002026342e-05,-4.408234963193536e-05,3.7548787076957524e-05,4.072237788932398e-05,-4.359271770226769e-05,5.523296567844227e-05
2.7628828320303e-05,-4.419972901814617e-05,4.302516026655212e-05,4.1725092160049826e-05,-3.603775621741079e-05,5.3165393183007836e-05
2.4905873942770995e-05,-4.690579589805566e-05,4.4110023736720905e-05,4.203743446851149e-05,-3.286655555712059e-05,5.349957791622728e-05
2.3958733436302282e-05,-4.879939660895616e-05,4.009716212749481e-05,4.1796080040512607e-05,-3.193076918250881e-05,5.725829032598995e-05
2.3712173060630448e-05,-4.933860691380687e-05,3.3314834581688046e-05,3.906124038621783e-05,-2.913234129664488e-05,6.515042332466692e-05
2.5886645744321868e-05,-4.9424437747802585e-05,2.9358232495724224e-05,3.409168857615441e-05,-2.3566806703456677e-05,7.32952612452209e-05
2.8340831704554148e-05,-4.958571298629977e-05,2.8927930543432012e-05,3.0994851840659976e-05,-1.817168049456086e-05,7.7214150223881e-05
2.7577054424909875e-05,-4.954944597557187e-05,3.059680966543965e-05,2.8211203243699856e-05,-1.6090456483652815e-05,7.675321103306487e-05
2.454842979204841e-05,-5.053323911852203e-05,3.311142063466832e-05,2.2852056645206176e-05,-1.4540658412443008e-05,7.140575326047838e-05
2.2354095563059673e-05,-5.415476698544808e-05,3.544866558513604e-05,1.7607315385248512e-05,-1.2574112588481512e-05,6.639633647864684e-05
2.0113082427997142e-05,-5.956797394901514e-05,3.758064121939242e-05,1.7003736502374522e-05,-1.4779438060941175e-05,6.183743244037032e-05
1.8398277461528778e-05,-6.22580701019615e-05,3.793784708250314e-05,2.0102208509342745e-05,-1.9122269804938696e-05,4.4689491915050894e-05
1.740956759022083e-05,-6.225218385225162e-05,3.1515577575191855e-05,2.3273745682672597e-05,-2.3909440642455593e-05,2.7603631679085083e-05
1.4535954505845439e-05,-6.444422615459189e-05,2.4657130779814906e-05,2.279417822137475e-05,-2.563000816735439e-05,2.6726043870439753e-05
1.2159604011685587e-05,-6.79777076584287e-05,2.2873682610224932e-05,1.591704312886577e-05,-2.7124351618112996e-05,3.2381478376919404e-05
9.462909474677872e-06,-7.275114330695942e-05,2.1665269741788507e-05,4.444523256097455e-06,-3.1165112886810675e-05,3.094603744102642e-05
6.9077900661795866e-06,-7.592662586830556e-05,2.0970093828509562e-05,-1.1956806247326313e-06,-3.355614535394125e-05,2.2623653421760537e-05
5.4696006372978445e-06,-7.321060547837988e-05,2.21798472921364e-05,3.238224905999232e-07,-3.7737045204266906e-05,1.9427616280154325e-05
5.174280886421911e-06,-6.777056842111051e-05,2.396425770712085e-05,6.304832822934259e-06,-4.670752605306916e-05,2.2160005755722523e-05
5.6543781283835415e-06,-6.530722748721018e-05,2.577387567725964e-05,1.3102109733154066e-05,-6.325119466055185e-05,2.8288033718126826e-05
5.270301244308939e-06,-6.494618719443679e-05,2.519753252272494e-05,1.575652822793927e-05,-7.938460475997999e-05,3.5035198379773647e-05
4.334357981861103e-06,-6.262567330850288e-05,2.409723492746707e-05,1.9338305719429627e-05,-8.56962869875133e-05,4.42062082584016e-05
3.473368451523129e-06,-5.740632695960812e-05,2.4554008632549085e-05,2.34674007515423e-05,-8.28714037197642e-05,5.529921691049822e-05
4.1891444197972305e-06,-5.313914152793586e-05,2.6424791940371506e-05,2.9312544938875362e-05,-7.468080730177462e-05,6.12587173236534e-05
6.5040981098718476e-06,-5.104906085762195e-05,2.880488864320796e-05,3.834581366390921e-05,-6.550932448590174e-05,5.952649371465668e-05
8.6634290710208e-06,-5.041796976001933e-05,2.9535702196881175e-05,5.178759602131322e-05,-5.864691047463566e-05,5.3588901209877804e-05
9.317461262980942e-06,-4.9655805923976004e-05,3.0048893677303568e-05,6.662540545221418e-05,-5.215733835939318e-05,4.655305383494124e-05
1.1352964975230861e-05,-4.772249303641729e-05,3.226119224564172e-05,7.914753950899467e-05,-3.921303141396493e-05,4.1101655369857326e-05
1.598946073499974e-05,-4.5358647184912115e-05,3.617114634835161e-05,8.237371366703883e-05,-2.1691243091481738e-05,3.695960913319141e-05
1.9300498024676926e-05,-4.5628854422830045e-05,3.985469084000215e-05,7.21581163816154e-05,-7.020843895588769e-06,2.9696913770749234e-05
1.864769910753239e-05,-4.7547084250254557e-05,4.064031963935122e-05,5.620920637738891e-05,3.943899628211511e-06,1.7726806618156843e-05
1.9419161617406644e-05,-4.700695353676565e-05,3.657864726847038e-05,4.350927338236943e-05,1.571075881656725e-05,7.264542091434123e-06
2.4215592929976992e-05,-4.587785224430263e-05,2.9911971068941057e-05,3.599936098908074e-05,2.602946915430948e-05,1.8036172377833282e-06
2.8733775252476335e-05,-4.612760676536709e-05,2.58752224908676e-05,2.952446993731428e-05,3.1532053981209174e-05,1.0452133665239671e-06
3.090373502345756e-05,-4.606726361089386e-05,2.7415291697252542e-05,2.4264791136374697e-05,3.241976082790643e-05,9.944574230758008e-06
2.9213206289568916e-05,-4.543985050986521e-05,3.359662150614895e-05,2.194008084188681e-05,2.7590444005909376e-05,2.8632943212869577e-05
2.6671186788007617e-05,-4.7121804527705535e-05,4.138668373343535e-05,2.1403060600277968e-05,1.512357994215563e-05,5.5528122175019234e-05
2.7324376787873916e-05,-4.6888024371583015e-05,4.277603511582129e-05,2.559625318099279e-05,5.118952230986906e-06,8.52076118462719e-05
3.200857827323489e-05,-4.417582385940477e-05,4.078189158462919e-05,3.244003528379835e-05,1.299572795687709e-05,0.0001059937640093267
3.330759136588313e-05,-4.242171416990459e-05,3.938366717193276e-05,3.5489239962771535e-05,3.225135151296854e-05,0.00011382324009900913
3.068442674702965e-05,-4.012926001450978e-05,3.6035744415130466e-05,3.238806675653905e-05,5.069939652457833e-05,0.00011335398448863998
2.829964432748966e-05,-3.401084541110322e-05,3.0547729693353176e-05,2.62852554442361e-05,6.345904694171622e-05,0.0001114773767767474
2.501441485946998e-05,-2.5262823328375816e-05,2.3923466869746335e-05,2.201367897214368e-05,6.729495362378657e-05,0.00010908034892054275
2.286826384079177e-05,-1.855113987403456e-05,1.824546416173689e-05,2.1466807083925232e-05,6.218873022589833e-05,0.00010358978033764288
1.9987071937066503e-05,-1.8132484910893254e-05,1.7299706087214872e-05,2.602306085464079e-05,5.140151552041061e-05,9.466714254813269e-05
1.9915121811209247e-05,-2.197186040575616e-05,1.8592869309941307e-05,3.106311123701744e-05,4.298973362892866e-05,8.746888488531113e-05
2.142933772120159e-05,-2.6616547984303907e-05,1.9956965843448415e-05,3.303650737507269e-05,4.074964817846194e-05,8.638649160275236e-05
2.1747044229414314e-05,-3.1551480788039044e-05,2.2452410121331923e-05,2.8796692276955582e-05,3.620895222411491e-05,8.836079359753057e-05
2.225357820861973e-05,-3.669053330668248e-05,2.7136944481753744e-05,2.2577025447390042e-05,2.5230883693438955e-05,8.91355739440769e-05
2.175799454562366e-05,-4.0903138142311946e-05,3.101405673078261e-05,2.496296110621188e-05,1.4260067473514937e-05,8.7909989815671e-05
2.086447784677148e-05,-4.274048478691839e-05,3.0056249670451507e-05,3.917034700862132e-05,6.025656148267444e-06,8.343687659362331e-05
2.1331399693735875e-05,-4.4826763769378886e-05,2.9007116609136574e-05,5.717951353290118e-05,-2.137683452474448e-07,7.610413013026118e-05
2.2381034796126187e-05,-5.076352317701094e-05,3.450205622357316e-05,6.728013977408409e-05,-4.5202918954601046e-06,6.956253491807729e-05
2.162354576284997e-05,-6.133189162937924e-05,4.5776872866554186e-05,6.637655314989388e-05,-8.33089870866388e-06,6.373417272698134e-05
2.098709774145391e-05,-7.128196739358827e-05,5.549097477342002e-05,5.901541589992121e-05,-1.2407746908138506e-05,5.802475425298326e-05
2.257441883557476e-05,-7.51698826206848e-05,6.217657210072502e-05,5.075745502836071e-05,-1.5130557585507631e-05,5.583538950304501e-05
2.722143108258024e-05,-7.333010580623522e-05,6.576150190085173e-05,4.1480256186332554e-05,-1.396813149767695e-05,5.9922480431851e-05
3.122642374364659e-05,-7.057088077999651e-05,6.195660535013303e-05,2.5845472919172607e-05,-8.36228264233796e-06,6.245023541850969e-05
3.2881813240237534e-05,-6.663742533419281e-05,5.3627514716936275e-05,-1.7453301097702933e-06,-2.1982855287205894e-06,5.7041412219405174e-05
3.578854739316739e-05,-6.0048500017728657e-05,5.098495603306219e-05,-3.098888919339515e-05,-1.637488139749621e-06,4.833012280869298e-05
3.6571505916072056e-05,-5.27894553670194e-05,5.2139719628030434e-05,-4.1392402636120096e-05,-8.454205271846149e-06,4.1941922972910106e-05
3.1880041206022725e-05,-5.0010210543405265e-05,5.131316356710158e-05,-3.204226595698856e-05,-1.5983345292625017e-05,4.031149001093581e-05
3.1511612178292125e-05,-5.1273993449285626e-05,4.720350989373401e-05,-8.54725203680573e-06,-1.9613313270383514e-05,4.357678699307144e-05
3.704507616930641e-05,-5.04471936437767e-05,4.2604788177413866e-05,1.4604463103751186e-05,-1.932570739882067e-05,4.940174403600395e-05
4.087514025741257e-05,-4.9959988245973364e-05,3.8293634133879095e-05,2.240564390376676e-05,-1.4918266970198601e-05,5.6472814321750775e-05
3.7870053347432986e-05,-4.978567085345276e-05,3.303170524304733e-05,2.571795448602643e-05,-1.2299497029744089e-05,6.561768532264978e-05
3.453149111010134e-05,-5.097615212434903e-05,3.106059375568293e-05,2.8520413252408616e-05,-1.2522731594799552e-05,7.244225707836449e-05
3.25864166370593e-05,-5.2958206651965156e-05,3.0867049645166844e-05,2.6597883334034123e-05,-1.632473686186131e-05,7.721577276242897e-05
2.920507176895626e-05,-5.3497948101721704e-05,2.727297760429792e-05,2.166810918424744e-05,-2.289057374582626e-05,7.892087887739763e-05
2.622227111714892e-05,-5.5774362408556044e-05,2.1913798263994977e-05,1.569390224176459e-05,-2.418596159259323e-05,7.650462066521868e-05
2.3203794626169838e-05,-5.746860915678553e-05,1.968881224456709e-05,1.16796054498991e-05,-2.3163902369560674e-05,7.651287160115317e-05
2.3376200260827318e-05,-5.816978227812797e-05,2.2026266378816217e-05,1.2637319741770625e-05,-2.5029903554241173e-05,7.495172030758113e-05
2.2827862267149612e-05,-5.655460336129181e-05,2.519452027627267e-05,2.3832411898183636e-05,-2.7903028239961714e-05,7.000537880230695e-05
2.043442873400636e-05,-5.1342220103833824e-05,2.8094424123992212e-05,4.575596904032864e-05,-2.807261080306489e-05,6.336210935842246e-05
1.941368645930197e-05,-4.66118726762943e-05,2.7704487365554087e-05,7.150418241508305e-05,-2.4999882953125052e-05,5.56361919734627e-05
2.135022805305198e-05,-4.421275298227556e-05,2.6606758183334023e-05,8.837648783810437e-05,-1.9951625290559605e-05,5.0432976422598585e-05
2.1295038095558994e-05,-4.347720096120611e-05,2.7774734917329624e-05,8.988899207906798e-05,-1.779713602445554e-05,5.0417878810549155e-05
1.898592381621711e-05,-4.329649527790025e-05,2.8516489692265168e-05,7.90811245678924e-05,-1.8916658518719487e-05,4.88117293571122e-05
1.6635445717838593e-05,-4.331060699769296e-05,2.82390301435953e-05,6.0791437135776505e-05,-1.9685208826558664e-05,3.7914225686108693e-05
1.563594378239941e-05,-4.288748459657654e-05,2.8842487154179253e-05,4.0535047446610406e-05,-1.805674946808722e-05,2.1241794456727803e-05
1.798719313228503e-05,-4.2314844904467463e-05,2.8881757316412404e-05,2.5399405785719864e-05,-1.798680386855267e-05,1.4462126273429021e-05
2.0828669221373275e-05,-4.310372605687007e-05,2.6176587198278867e-05,1.8821103367372416e-05,-2.2250365873333067e-05,2.7972158932243474e-05
2.1454323359648697e-05,-4.446726234164089e-05,2.4041748474701308e-05,1.651402999414131e-05,-2.6370025807409547e-05,5.291399793350138e-05
1.9621151295723394e-05,-4.458432522369549e-05,2.3927736037876457e-05,1.6357975255232304e-05,-2.7689549824572168e-05,7.426936645060778e-05
1.6774016330600716e-05,-4.4961172534385696e-05,2.5133565941359848e-05,1.894975866889581e-05,-2.720507836784236e-05,8.266793884104118e-05
1.3799042790196836e-05,-4.49429135187529e-05,2.461324584146496e-05,2.326990943402052e-05,-2.6741065084934235e-05,8.09372213552706e-05
1.2424909073160961e-05,-4.288697164156474e-05,2.254559876746498e-05,2.613352262414992e-05,-2.436829890939407e-05,7.705047755734995e-05
1.2212934962008148e-05,-4.0343762520933524e-05,2.1611778720398434e-05,2.7468362532090396e-05,-1.9707642422872595e-05,7.562487735413015e-05
1.3195155588618945e-05,-3.7722424167441204e-05,2.1047773770987988e-05,2.835007762769237e-05,-1.5661509678466246e-05,8.041091496124864e-05
1.4286177247413434e-05,-3.551541522028856e-05,1.9150185835314915e-05,3.107240263489075e-05,-1.6425967260147445e-05,8.695795258972794e-05
1.3658884199685417e-05,-3.588852268876508e-05,1.864358091552276e-05,3.406316682230681e-05,-2.4332011889782734e-05,8.542388241039589e-05
1.0110678886121605e-05,-3.50052687281277e-05,2.0805080566788092e-05,3.564887083484791e-05,-3.463694520178251e-05,8.232495747506618e-05
7.1186505010700785e-06,-3.393143560970202e-05,2.488546488166321e-05,3.7291512853698805e-05,-4.380817335913889e-05,7.988340075826272e-05
5.330939075065544e-06,-4.085500040673651e-05,2.7640255211736076e-05,3.890534208039753e-05,-5.448560114018619e-05,7.209591421997175e-05
2.7328396754455753e-06,-4.874168735113926e-05,3.1673531339038163e-05,4.004040238214657e-05,-6.51483132969588e-05,5.89168157603126e-05
1.7890816650378838e-07,-5.246274668024853e-05,3.24627326335758e-05,3.7534511648118496e-05,-7.147718861233443e-05,4.7998924856074154e-05
1.4815699387327186e-06,-5.536737080547027e-05,2.9037526473985054e-05,3.30643706547562e-05,-7.022421050351113e-05,4.0918886952567846e-05
6.899770596646704e-06,-5.924275683355518e-05,2.7893498554476537e-05,2.9775290386169218e-05,-6.340712570818141e-05,4.079004793311469e-05
1.2126200090278871e-05,-6.174914597067982e-05,2.85244568658527e-05,2.808732278936077e-05,-4.884894588030875e-05,4.804312266060151e-05
1.6941847206908278e-05,-6.03306143602822e-05,3.2383479265263304e-05,2.552027399360668e-05,-2.508028774172999e-05,5.493709977599792e-05
2.0166404283372685e-05,-5.651054743793793e-05,3.74306837329641e-05,2.2188318325788714e-05,3.010006594195147e-06,5.646571662509814e-05
2.157162998628337e-05,-5.323817458702251e-05,4.226535020279698e-05,1.8447040929459035e-05,3.176431710016914e-05,4.6466208004858345e-05
2.145229882444255e-05,-5.385642725741491e-05,4.236640961607918e-05,1.3080803000775632e-05,5.8729528973344713e-05,3.677461791085079e-05
2.1134505004738458e-05,-5.559215060202405e-05,3.558726893970743e-05,3.8711700653948355e-06,7.839470345061272e-05,3.993224891019054e-05
2.2759995772503316e-05,-5.446000432129949e-05,2.5864335839287378e-05,-9.30739042814821e-06,8.433021139353514e-05,5.6248791224788874e-05
2.5990822905441746e-05,-5.180223161005415e-05,1.8581444237497635e-05,-2.4669132471899502e-05,7.591503526782617e-05,7.770299998810515e-05
2.7297848646412604e-05,-5.0986625865334645e-05,1.5121011529117823e-05,-3.902528260368854e-05,5.962758223176934e-05,8.782061922829598e-05
2.4124652554746717e-05,-5.209951996221207e-05,1.587620317877736e-05,-4.380589962238446e-05,4.1747709474293515e-05,7.700082642259076e-05
1.8997652659891173e-05,-5.264631181489676e-05,2.2317644834402017e-05,-3.5272620152682066e-05,2.5957995603675954e-05,5.5371481721522287e-05
1.7412678062100895e-05,-5.028871964896098e-05,3.18991624226328e-05,-1.7722251868690364e-05,1.542384961794596e-05,3.9664948417339474e-05
2.1434547306853347e-05,-4.727588384412229e-05,3.785043008974753e-05,3.182756017849897e-06,6.6865045482700225e-06,3.537573866196908e-05
