2.731603308347985e-05,-4.1182753193425015e-05,2.896646583394613e-05,-0.00020342817879281938,9.492448043602053e-06,0.00016347962082363665
2.465645593474619e-05,-4.111011003260501e-05,3.770956755033694e-05,-0.00017425963596906513,4.2715896597655956e-06,0.00014478999946732074
2.22213475353783e-05,-3.737728911801241e-05,4.9268724978901446e-05,-7.939176430227235e-05,-5.106107892061118e-06,0.00014228293730411679
2.4334060071851127e-05,-3.318467497592792e-05,5.1581242587417364e-05,5.728739415644668e-05,-1.8631091734278016e-05,0.00015296826313715428
2.885246794903651e-05,-3.2719370210543275e-05,4.6689969167346135e-05,0.00013426631630863994,-2.7847314413520508e-05,0.00016822323959786445
3.3182113838847727e-05,-3.674746767501347e-05,4.22456105297897e-05,0.00011737667227862403,-2.99809908028692e-05,0.0001743490865919739
3.203106462024152e-05,-4.3260188249405473e-05,3.585133526939899e-05,4.429309774423018e-05,-2.7047839466831647e-05,0.00016272025823127478
2.965394378406927e-05,-4.934435128234327e-05,2.365645377722103e-05,-3.0075085305725224e-05,-2.167844468203839e-05,0.00014123467553872615
2.9603435905301012e-05,-5.030284228269011e-05,1.3733547348238062e-05,-5.940236951573752e-05,-9.742381735122763e-06,0.00012112165859434754
3.28322421410121e-05,-4.5307722757570446e-05,1.5506146155530587e-05,-6.721743557136506e-05,7.900616765255108e-06,0.00010479972115717828
3.406597170396708e-05,-4.041053762193769e-05,2.4269751520478167e-05,-0.000106853898614645,1.9456845620879903e-05,0.0001012739521684125
3.131029734504409e-05,-3.719899177667685e-05,3.062713585677557e-05,-0.00016586574201937765,2.0741803382406943e-05,0.00013296614633873105
2.870742537197657e-05,-3.256469062762335e-05,3.5437515180092305e-05,-0.000171636653249152,2.0276098439353518e-05,0.00022573860769625753
3.356640809215605e-05,-2.5279632609453984e-05,4.1166567825712264e-05,-0.00011929850006708875,2.501826202205848e-05,0.0003444077156018466
4.435719893081114e-05,-2.045336805167608e-05,4.286315743229352e-05,-9.846941975411028e-05,3.3145250199595466e-05,0.0004151630273554474
5.050979234511033e-05,-2.2714975784765556e-05,3.660772927105427e-05,-0.00014698256563860923,3.8360722101060674e-05,0.0004008905671071261
4.829613317269832e-05,-3.108804958174005e-05,2.70604869001545e-05,-0.00019642968254629523,3.346560333739035e-05,0.00032799431937746704
4.094883843208663e-05,-3.9643269701628014e-05,2.384558138146531e-05,-0.00016083310765679926,1.4446726709138602e-05,0.00023423325910698622
3.453763565630652e-05,-4.2973941162927076e-05,2.8848202418885194e-05,-2.398112883383874e-05,-8.923383575165644e-06,0.00014552664652001113
3.011208536918275e-05,-4.163093035458587e-05,3.6920097045367584e-05,0.00013594795018434525,-2.1236695829429664e-05,7.796242425683886e-05
2.7037533072871156e-05,-3.84928825951647e-05,4.19303760281764e-05,0.0002025655412580818,-1.7559148545842618e-05,3.252958777011372e-05
2.2427844669437036e-05,-3.584496153052896e-05,4.1975148633355275e-05,0.00013949425192549825,-8.454838280158583e-06,-2.4993805709527805e-05
1.810065623431001e-05,-3.860676224576309e-05,3.837734038825147e-05,3.865944381686859e-05,-1.003908346319804e-05,-0.0001013609507936053
1.3555039004131686e-05,-4.903162334812805e-05,3.5148957977071404e-05,1.4372897567227483e-05,-2.105884595948737e-05,-9.952599793905392e-05
6.440444849431515e-06,-6.185765232658014e-05,3.1434195989277214e-05,6.990098336245865e-05,-3.0227720344555564e-05,4.501666990108788e-05
-4.867185339207936e-07,-7.135282066883519e-05,2.675501673365943e-05,0.00013985359692014754,-3.510488386382349e-05,0.000218382163438946
-8.302388323500054e-07,-7.537654892075807e-05,2.5693725547171198e-05,0.00017971025954466313,-3.59976475010626e-05,0.0002685481740627438
5.494895958690904e-06,-7.04954654793255e-05,3.22982705256436e-05,0.00018084311159327626,-3.068273508688435e-05,0.0002050117327598855
1.2930795492138714e-05,-6.145091174403206e-05,3.87271138606593e-05,0.00017053015471901745,-1.9243187125539407e-05,0.0001234908850165084
1.7322654457530007e-05,-5.729686017730273e-05,3.4666460123844445e-05,0.00015289215662050992,-1.5779711475261138e-06,6.0580936406040564e-05
2.2538566554430872e-05,-5.273082933854312e-05,3.073170591960661e-05,0.0001110103985411115,2.8528616894618608e-05,1.6306496036122553e-05
2.8870821552118286e-05,-4.6720004320377484e-05,3.6352575989440084e-05,4.493456435739063e-05,6.562853377545252e-05,-1.8007904145633802e-05
2.998623858729843e-05,-4.203464413876645e-05,5.0925762479892e-05,-4.53340653621126e-05,9.187197429127991e-05,-4.296566476114094e-05
2.6352701752330177e-05,-3.703592665260658e-05,6.396020035026595e-05,-0.00012421904830262065,9.306428546551615e-05,-2.690768269530963e-05
2.5380235456395894e-05,-3.414900857023895e-05,6.635487079620361e-05,-0.0001312312961090356,7.207433372968808e-05,4.5263277570484206e-05
2.5720870326040313e-05,-3.726531576830894e-05,6.247407145565376e-05,-6.512775871669874e-05,4.1764469642657787e-05,0.00012172037531854585
2.7980197046417743e-05,-4.0946131775854155e-05,5.583230085903779e-05,2.1988582375342958e-05,1.119426087825559e-05,0.00011863410327350721
3.107796510448679e-05,-4.192643609712832e-05,4.919847924611531e-05,9.456669067731127e-05,-1.8179027392761782e-05,5.554619201575406e-05
3.426599141675979e-05,-4.234255902701989e-05,4.008517134934664e-05,0.00012384341971483082,-4.52557833341416e-05,2.793285602820106e-05
3.710520104505122e-05,-4.387629815028049e-05,2.7332362151355483e-05,9.540673636365682e-05,-6.263591058086604e-05,0.00010845141514437273
3.8198715628823265e-05,-4.685526073444635e-05,1.4859567272651475e-05,3.616973845055327e-05,-6.976827717153355e-05,0.0002957105461973697
3.87662548746448e-05,-4.9024387408280745e-05,8.003236871445552e-06,-8.588092896388844e-06,-7.105770782800391e-05,0.0004990261513739824
4.108505163458176e-05,-4.83273142890539e-05,7.53926724428311e-06,-7.835672477085609e-06,-7.114501931937411e-05,0.0005940160481259227
4.499252463574521e-05,-4.5572414819616824e-05,1.140666427090764e-05,2.7800871976069175e-05,-7.168151205405593e-05,0.0005530647467821836
4.4237091060495004e-05,-4.646475281333551e-05,1.7021477106027305e-05,5.749114279751666e-05,-7.200907566584647e-05,0.0004617217637132853
3.667600321932696e-05,-5.276253432384692e-05,2.01859056687681e-05,5.0937629566760734e-05,-6.149073306005448e-05,0.00037178228376433253
2.4513014068361372e-05,-6.287072756094858e-05,1.7662545360508375e-05,5.205709499023214e-07,-3.65076630259864e-05,0.0002347497793380171
1.319763032370247e-05,-7.544949767179787e-05,1.0350036063755397e-05,-0.00010382603068137541,-1.2202108337078243e-05,6.587720417883247e-05
3.16449768433813e-06,-8.736306335777044e-05,1.1347704003128456e-06,-0.0002544907038100064,-2.7103917545900913e-06,1.6202002370846458e-05
-4.067688223585719e-06,-9.391676576342434e-05,-5.182853783480823e-06,-0.0003748357412405312,-9.603189027984627e-06,8.079857798293233e-05
-6.071873031032737e-06,-9.228462295141071e-05,-1.963953536687768e-06,-0.00032319771707989275,-2.2522917788592167e-05,0.00010010507685365155
-4.805091862181143e-07,-7.986877608345821e-05,1.0404372005723417e-05,-9.582490019965917e-05,-2.0640216462197714e-05,6.19171405560337e-05
9.708349352877121e-06,-6.481027958216146e-05,2.2423340851673856e-05,9.89068576018326e-05,-5.2579994189727586e-06,6.059117822587723e-06
1.7244499758817255e-05,-5.69765834370628e-05,2.754394336079713e-05,0.00017214289982803166,-6.097935965954093e-06,-6.789417238906026e-05
1.706287730485201e-05,-5.7959157857112586e-05,2.985391802212689e-05,0.0002447494480293244,-3.173207369400188e-05,-0.00018138404993806034
7.424602699757088e-06,-6.46023836452514e-05,2.7966378183919005e-05,0.00033301732037216425,-5.801079169032164e-05,-0.0003242128004785627
-1.2693814710473816e-07,-6.353878416121006e-05,2.3248801880981773e-05,0.00033992822864092886,-5.3217005188344046e-05,-0.0004245503223501146
7.066220405249624e-06,-5.229147063801065e-05,2.4264852982014418e-05,0.00020498079538810998,-1.2144893844379112e-05,-0.00048455098294653
1.9517614418873563e-05,-4.113579052500427e-05,3.616579488152638e-05,3.179441591782961e-06,3.5646553442347795e-05,-0.0005186234484426677
2.466914156684652e-05,-3.673914397950284e-05,5.0014135922538117e-05,-8.362616063095629e-05,5.809942013002001e-05,-0.0005415678606368601
2.457202754158061e-05,-3.905757694155909e-05,5.9502282965695485e-05,-4.213568172417581e-05,6.761247641406953e-05,-0.0005167708732187748
2.9092889235471375e-05,-4.018842810182832e-05,6.366748857544735e-05,-1.6223859347519465e-05,8.574109233450145e-05,-0.0004047610564157367
3.584751539165154e-05,-3.6023211578140035e-05,6.519379530800506e-05,-5.509179754881188e-05,0.00010023397044278681,-0.00024209650291595608
4.1051334846997634e-05,-2.8935570298926905e-05,6.786756421206519e-05,-8.385010005440563e-05,9.65610088314861e-05,-8.849109872244298e-05
4.1217503166990355e-05,-2.5986168111558072e-05,6.693030445603654e-05,-6.95597700541839e-05,7.7585042163264e-05,-6.797575224481989e-06
3.55863812728785e-05,-2.672046684892848e-05,6.255527841858566e-05,-4.626757436199114e-05,5.2220300858607516e-05,-5.644898465106962e-06
2.9475429982994683e-05,-2.8635349735850468e-05,5.6178429076680914e-05,-3.83746883017011e-05,2.875362588383723e-05,-4.1121907997876406e-05
2.8201369786984287e-05,-3.243866012780927e-05,5.045794023317285e-05,-3.140378248644993e-05,9.6350831881864e-06,-5.012051042285748e-05
3.136967643513344e-05,-3.813765579252504e-05,4.607500886777416e-05,1.2274133496248396e-06,-7.090350209182361e-06,-3.038182967429748e-06
3.3027954486897215e-05,-4.3213178287260234e-05,3.954469502787106e-05,5.8510180679149926e-05,-2.3924227207317017e-05,7.267655018949881e-05
3.0067081752349623e-05,-4.559452645480633e-05,3.09809111058712e-05,0.00011768355034291744,-4.27792729169596e-05,0.00011841885861940682
2.5275912776123732e-05,-4.679134872276336e-05,2.4557481083320454e-05,0.00015847488248255104,-5.9816520661115646e-05,0.0001142282853834331
2.1740472220699303e-05,-4.957451528753154e-05,1.8986271243193187e-05,0.00017054400814231485,-7.403991185128689e-05,0.0001129220545408316
1.7730904801283032e-05,-5.544553278014064e-05,1.2551116014947183e-05,0.0001538764190627262,-8.37367115309462e-05,0.000185668162885122
1.751413401507307e-05,-5.8355333749204874e-05,8.157182492141146e-06,0.0001188580208690837,-8.231242827605456e-05,0.0002989940403494984
1.9690709450514987e-05,-5.7156557886628434e-05,6.765804300812306e-06,7.178082159953192e-05,-7.616416405653581e-05,0.0003536467265803367
1.742666972859297e-05,-5.609351137536578e-05,3.783795818890212e-06,2.817335735016968e-05,-7.911442662589252e-05,0.0003586345410440117
1.5014100426924415e-05,-5.2516639698296785e-05,3.4540316846687347e-06,-9.974720342142973e-06,-7.715050014667213e-05,0.00038589921314269304
1.9905615772586316e-05,-4.355897908681072e-05,9.90516218735138e-06,-5.805528780911118e-05,-5.5210755817824975e-05,0.0004138343792874366
2.5342238586745225e-05,-3.9019658288452774e-05,1.8325876226299442e-05,-0.0001229637855431065,-3.336302324896678e-05,0.0003942829789593816
2.316499740118161e-05,-4.5108481572242454e-05,2.730617234192323e-05,-0.00015455501852557063,-3.0006174711161293e-05,0.00035061899689026177
1.4167167137202341e-05,-5.2485906053334475e-05,2.8345082682790235e-05,-6.687204586341977e-05,-3.301746255601756e-05,0.0002677853044588119
1.0032803402282298e-05,-5.3998493967810646e-05,2.2748739866074175e-05,5.922554919379763e-05,-2.091296119033359e-05,0.00011050621833419427
1.3415268767857924e-05,-5.61653905606363e-05,2.186527126468718e-05,7.69932012190111e-05,2.493908823453239e-06,-2.4057177142822184e-05
1.6426845832029358e-05,-5.701784175471403e-05,2.5205135898431763e-05,4.8508554755244404e-05,1.8744045519270003e-05,-7.18348819646053e-05
1.65493183885701e-05,-5.111224891152233e-05,2.844005575752817e-05,5.789945862488821e-05,2.0791250790352933e-05,-4.0994331357069314e-05
2.1559459128184244e-05,-4.5425596908899024e-05,3.0291905204649083e-05,6.204551755217835e-05,1.4595671018469147e-05,6.105469219619408e-05
3.1552754080621526e-05,-4.362104300525971e-05,3.208984708180651e-05,5.623594915959984e-05,1.2548254744615406e-05,0.0001676074753049761
3.732931145350449e-05,-4.326115958974697e-05,3.582340286811814e-05,7.907574763521552e-05,1.2510186934377998e-05,0.00020791591668967158
3.501307946862653e-05,-4.374361378722824e-05,3.898500290233642e-05,0.00012479555152822286,5.2290811254351866e-06,0.00015614411677233875
2.5373796233907342e-05,-4.742560122394934e-05,3.76713287550956e-05,0.00018697621999308467,-1.3480172128765844e-05,4.09430249419529e-05
1.0917365216300823e-05,-5.81693384447135e-05,3.0170995160005987e-05,0.00027984072221443057,-4.609369352692738e-05,-0.00010643216228345409
-4.571701083477819e-06,-7.178648229455575e-05,1.806301952456124e-05,0.00037527846870943904,-8.399711805395782e-05,-0.00022099012858234346
-1.441919357603183e-05,-7.935749454190955e-05,7.488283245038474e-06,0.00039442404522560537,-0.00010315619147149846,-0.00023318770399782807
-1.723890454741195e-05,-7.788417133269832e-05,4.01800571125932e-06,0.00029806324164383113,-8.710857946425676e-05,-0.0001590881438460201
-1.2419664926710539e-05,-7.027372339507565e-05,7.247800567711238e-06,0.00014375234604813159,-5.225382119533606e-05,-9.324412530986592e-05
-2.7955150017078267e-06,-6.0046837461413816e-05,1.5521114619332366e-05,2.3443502868758515e-05,-2.538996523071546e-05,-7.400030153803527e-05
6.578050943062408e-06,-5.062739728600718e-05,2.6398105546832085e-05,-3.0711635190527886e-05,-1.1287146662652958e-05,-5.486810186994262e-05
1.3621890502690803e-05,-4.4295757106738165e-05,3.663424649857916e-05,-4.923191590933129e-05,9.260886031370319e-07,-2.9325668947421946e-05
1.9393444745219313e-05,-4.000148692284711e-05,4.392152914078906e-05,-5.121384674566798e-05,1.529963810753543e-05,-2.181929085054435e-05
2.5672014089650474e-05,-3.653589737950824e-05,4.878617255599238e-05,-4.1018010961124673e-05,3.1422023312188685e-05,1.484772724325012e-06
3.559873948688619e-05,-3.289882079116069e-05,5.370779035729356e-05,-7.333957910304889e-05,5.4092713980935514e-05,8.825055556371808e-05
4.51847881777212e-05,-2.896777914429549e-05,5.769881681771949e-05,-0.00015739892842248082,7.597490912303329e-05,0.00020970111654605716
4.624048597179353e-05,-2.812467391777318e-05,5.619035073323175e-05,-0.00018777154036797583,7.670195191167295e-05,0.00028786720940843225
4.262375659891404e-05,-3.0943680030759424e-05,4.730203727376647e-05,-0.00014600185386370867,5.2415503887459636e-05,0.0002725988160818815
4.0604012610856444e-05,-3.444317917455919e-05,3.7386307667475194e-05,-0.00012800040713045746,2.0353041691123508e-05,0.00020633537496905774
3.726450086105615e-05,-3.678471330204047e-05,3.257153002778068e-05,-0.0001341296883765608,-3.621881205617683e-06,0.00018938766152132303
3.1022536859381944e-05,-3.8612128264503554e-05,3.193178054061718e-05,-8.262701885541901e-05,-2.0592415239661932e-05,0.00024072494124993682
2.2679787434753962e-05,-4.668228575610556e-05,2.6975583750754595e-05,4.4294782128417864e-05,-4.813685154658742e-05,0.00023676060664001852
1.5284662367776036e-05,-5.708165917894803e-05,1.5560410247417167e-05,0.00016739769489504397,-9.390962077304721e-05,0.00018450577044859529
1.1132085091958288e-05,-6.49192588753067e-05,6.653408945567207e-06,0.0002856793871615082,-0.0001432695280527696,0.00020920980023220181
1.369049095956143e-05,-6.810183549532667e-05,2.4557928099966375e-06,0.0004094564646948129,-0.00016402470646426082,0.00026369502302259207
2.262797534058336e-05,-6.772163033019751e-05,-1.225738856192038e-06,0.000428543338784948,-0.00013756260159425437,0.00022543783416040242
3.034677865798585e-05,-6.488982035079971e-05,6.644135055466904e-07,0.00031864011543802917,-8.62486704136245e-05,0.00015756722132209688
3.562769779819064e-05,-6.035282422089949e-05,1.1128921869385522e-05,0.00018503103638067842,-4.92842445964925e-05,0.00023986380256246775
3.483617547317408e-05,-6.163054058561102e-05,1.8995940990862437e-05,0.00011938297393498942,-4.5442469854606315e-05,0.00041454038000665605
2.9951259421068244e-05,-6.45096370135434e-05,1.954996150743682e-05,7.957695925142616e-05,-4.156191789661534e-05,0.0004776469722855836
2.6406703909742646e-05,-6.317265797406435e-05,1.859754956967663e-05,-8.584841452830005e-06,8.068358283708221e-07,0.000349426525644958
2.5549741621944122e-05,-5.7684625062393025e-05,2.0599725758074783e-05,-0.00021575311257038265,8.467472071060911e-05,0.00011177734268130735
2.6659427021513693e-05,-5.0576694775372744e-05,3.2849839044502005e-05,-0.0005061437841504812,0.00017314261640422046,-7.084484968800098e-05
3.065440250793472e-05,-3.927184297936037e-05,5.6004049838520586e-05,-0.0006762573029845953,0.00021067133639007807,-9.739013330545276e-05
3.5455101169645786e-05,-2.5238086891476996e-05,8.332297875313088e-05,-0.000524988048709929,0.00017672691319603473,-4.104706385987811e-05
3.615676541812718e-05,-1.859064468590077e-05,0.00010026992822531611,-0.00011532097414601594,0.00010391459363745525,-0.00011418573558330536
2.8009462766931392e-05,-2.5978173653129488e-05,9.403537114849314e-05,0.00020403532835189253,4.3166543036932126e-05,-0.0003622842486947775
1.491783041274175e-05,-4.1505798435537145e-05,7.291094516403973e-05,0.00022294771042652428,2.4751119781285524e-05,-0.0005825869156979024
5.37908135811449e-06,-5.2613122534239665e-05,5.564877938013524e-05,7.006077794358134e-05,4.263916707714088e-05,-0.0005994403036311269
4.3845557229360566e-06,-5.6284716265508905e-05,4.872950376011431e-05,-8.941214036894962e-05,6.773041968699545e-05,-0.0004548648721538484
1.1611926311161369e-05,-5.500655242940411e-05,4.332185926614329e-05,-0.00023628682538401335,7.485733658540994e-05,-0.00025753938825801015
1.7866930647869594e-05,-5.429703742265701e-05,3.504741471260786e-05,-0.0002970448404084891,5.106287426315248e-05,-9.99413023237139e-05
1.615075052541215e-05,-5.828511348227039e-05,2.6906845960184e-05,-0.00019043785869143903,4.6278269110189285e-06,-5.691244587069377e-05
8.963879736256786e-06,-6.453475361922756e-05,2.14507854252588e-05,1.6166251953109168e-05,-4.396518852445297e-05,-9.07283101696521e-05
1.8618343347043265e-06,-7.036801252979785e-05,2.122943442373071e-05,0.0002021050313487649,-7.94378574937582e-05,-0.00012644058733712882
9.865358379101963e-07,-7.447569078067318e-05,2.3518528905697167e-05,0.00032097092480398715,-0.00010108294372912496,-0.00015257654013112187
8.632981007394847e-06,-7.24301571608521e-05,2.151089211110957e-05,0.00037009222432971,-0.0001139869200414978,-0.0001276846305700019
1.5358958989963867e-05,-6.540767208207399e-05,2.0841165678575635e-05,0.0003716622304636985,-0.00011520008411025628,-3.6082441511098295e-05
1.728269853629172e-05,-5.593636160483584e-05,2.6863608582061715e-05,0.0003470077062956989,-9.203617082675919e-05,6.116397707955912e-05
1.7539274267619476e-05,-4.822295522899367e-05,3.500558887026273e-05,0.00029714222182519734,-5.150967990630306e-05,0.0001472122094128281
2.1166690203244798e-05,-4.5605051127495244e-05,3.612150976550765e-05,0.00021098970319144428,-2.33552091231104e-05,0.0001928991114255041
2.642459367052652e-05,-4.37211747339461e-05,3.4391512599540874e-05,0.0001283684396184981,-1.689016971795354e-05,0.00018174559227190912
3.320825271657668e-05,-4.1214614611817524e-05,3.336922236485407e-05,0.00010424745414638892,-1.9458240785752423e-05,0.00013915024464949965
4.3469324737088755e-05,-3.817186734522693e-05,3.1718525860924274e-05,0.0001142010441981256,-1.934108331624884e-05,9.382591088069603e-05
5.47964773431886e-05,-3.3979515137616545e-05,3.3932567021111026e-05,9.293730545323342e-05,-4.475459718378261e-06,5.4155694670043886e-05
6.1329614254646e-05,-2.8570240829139948e-05,3.816398384515196e-05,-1.1673671906464733e-05,2.7469992346595973e-05,4.685565363615751e-05
6.460281292675063e-05,-2.3303578927880153e-05,4.685901149059646e-05,-0.0001946033735293895,6.628285336773843e-05,0.00011016292410204187
6.382447463693097e-05,-2.046535155386664e-05,5.262203194433823e-05,-0.0003548998211044818,8.71628217282705e-05,0.0002331678697373718
5.318300463841297e-05,-2.305572161276359e-05,4.946337503497489e-05,-0.0003587885876186192,7.568577711936086e-05,0.0003771323536057025
3.5441193176666275e-05,-3.382219438208267e-05,3.8753652916057035e-05,-0.00023057410726323724,4.3874177208635956e-05,0.0004966581473127007
1.7228810975211672e-05,-5.127255280967802e-05,2.314236553502269e-05,-0.00014284336066339165,5.619881903839996e-06,0.0005197126301936805
2.7963762931904057e-06,-6.880975706735626e-05,8.459229320578743e-06,-0.0001446398819098249,-2.9827546313754283e-05,0.0004352386458776891
-5.453874109662138e-06,-7.795098645146936e-05,1.6860930145412567e-06,-0.0001232559297932312,-5.298563337419182e-05,0.00031812829547561705
-4.594512120092986e-06,-7.569594163214788e-05,4.745417300000554e-06,-3.3439002436352894e-05,-5.485666770255193e-05,0.00022121917572803795
2.8779970762116136e-06,-6.383256550179794e-05,1.3490141100191977e-05,5.2068917284486815e-05,-3.6612749681808054e-05,0.00012571868137456477
1.3259133993415162e-05,-4.929841816192493e-05,2.530216625018511e-05,8.508944301865995e-05,-8.733351933187805e-06,-4.602396074915305e-06
2.06012737180572e-05,-4.1841452912194654e-05,3.665482290671207e-05,8.816224726615474e-05,1.6005627912818454e-05,-0.00013898569159209728
1.9694432921824045e-05,-4.160428943578154e-05,4.15845206589438e-05,7.670411287108436e-05,2.381709055043757e-05,-0.0002088326873490587
1.317506394116208e-05,-4.2572130041662604e-05,3.5911107261199504e-05,3.843021477223374e-05,7.636242116859648e-06,-0.00020629714708775282
7.520174222008791e-06,-4.306584378355183e-05,2.4102017050608993e-05,-1.4851564628770575e-05,-2.301686799910385e-05,-0.00017218229186255485
5.533247531275265e-06,-4.449090192792937e-05,1.576751674292609e-05,-3.652274972409941e-05,-4.832744161831215e-05,-0.0001287165068788454
9.204926755046472e-06,-4.4488209823612124e-05,1.778505065885838e-05,-4.37381531810388e-05,-5.279317338136025e-05,-6.607444811379537e-05
1.683866503299214e-05,-3.978738095611334e-05,2.9075610655127093e-05,-5.725329538108781e-05,-4.765727135236375e-05,3.894971450790763e-05
2.080188278341666e-05,-3.4158030757680535e-05,4.249729681760073e-05,-2.006370596063789e-05,-4.896822429145686e-05,0.00015496242849621922
1.4902062503097113e-05,-3.2447274861624464e-05,5.024174606660381e-05,0.0001039476555888541,-5.7473473134450614e-05,0.0002509482728783041
6.807577847212087e-06,-3.380344060133211e-05,5.135359970154241e-05,0.0002673486014828086,-7.155372441047803e-05,0.00036986442864872515
9.610628694645129e-06,-3.178635233780369e-05,5.1310395065229386e-05,0.00035813855356536806,-7.284134335350245e-05,0.0004775629786308855
1.8181430277763866e-05,-3.0302258892334066e-05,5.278651224216446e-05,0.0003483142936602235,-4.756171620101668e-05,0.0004590617900248617
1.72977197507862e-05,-4.127166903344914e-05,4.389864261611365e-05,0.00026066048303619027,-1.7594451492186636e-05,0.0003177034668624401
1.0879446563194506e-05,-5.931400301051326e-05,2.5159039068967104e-05,0.00013273789954837412,-6.46891339783906e-06,0.00013038051838520914
8.018038897716906e-06,-6.976220174692571e-05,9.749386663315818e-06,4.1212773794541135e-05,-7.910809472377878e-06,-8.707965025678277e-05
1.0894785191339906e-05,-7.082975207595155e-05,6.987016149651026e-06,2.3333717763307504e-05,-4.967960194335319e-06,-0.000344106083502993
1.5664592865505256e-05,-6.767301965737715e-05,1.0610791832732502e-05,5.636444257106632e-05,-2.2410283690987853e-06,-0.0005537692341022193
1.9565250113373622e-05,-6.251289596548304e-05,1.53075234265998e-05,5.7631859817774966e-05,-4.800127044291003e-06,-0.0005826422711834311
2.2844709747005254e-05,-6.0524780565174296e-05,1.927722041727975e-05,2.3428801796399057e-05,-1.1404592441977002e-05,-0.0003818645200226456
2.179351940867491e-05,-6.301850953605026e-05,1.8863775039790198e-05,9.577361197443679e-06,-2.4945522454800084e-05,-0.00010519682109588757
1.7720914911478758e-05,-6.651461444562301e-05,1.9638446246972308e-05,6.064003537176177e-05,-4.3137984903296456e-05,5.335469904821366e-05
1.4128903785604052e-05,-6.992755515966564e-05,1.782328763511032e-05,0.00014007993740960956,-6.143114296719432e-05,7.816799916327e-05
1.1142516086692922e-05,-7.525777618866414e-05,8.620657354185823e-06,0.0001745089393807575,-7.691046630498022e-05,6.745458813384175e-05
6.98911117069656e-06,-8.007138967514038e-05,-2.118386191796162e-06,0.00014331396960187703,-8.16404790384695e-05,5.4854761401657015e-05
4.748909759655362e-06,-7.709367491770536e-05,-3.3511446417833213e-06,8.125812746584415e-05,-6.711093737976626e-05,2.298787876497954e-05
8.514474757248536e-06,-6.499145092675462e-05,4.111951966478955e-06,2.4191895136027597e-05,-3.6583554901881143e-05,-5.904057161387755e-06
1.889934719656594e-05,-4.975287083652802e-05,1.6825377315399237e-05,-1.958644497790374e-05,1.1387741096768877e-06,-1.1291276678093709e-05
3.200548599124886e-05,-4.084079046151601e-05,3.0087130653555505e-05,-4.832848935620859e-05,2.8515294616227038e-05,-6.90488332111272e-06
3.795139127760194e-05,-4.272764635970816e-05,3.427492993068881e-05,-5.460553438751958e-05,2.1336156351026148e-05,1.840035656641703e-05
3.156309321639128e-05,-5.155698090675287e-05,2.647969995450694e-05,-1.4462114449997898e-05,-1.8384118448011577e-05,0.00014808800187893212
1.9408262232900597e-05,-6.0443511756602675e-05,1.4223796824808232e-05,4.5058255636831746e-05,-5.486666486831382e-05,0.0003724166308529675
1.1216056009288877e-05,-6.338158709695563e-05,7.521481620642589e-06,5.864005288458429e-05,-6.080539969843812e-05,0.0005359613569453359
1.1414941582188476e-05,-5.8330566389486194e-05,1.174309363705106e-05,9.025558028952219e-06,-4.15697977587115e-05,0.0005526156164705753
1.771783354342915e-05,-4.714016176876612e-05,2.0680829038610682e-05,-7.155291677918285e-05,-1.659494409977924e-05,0.0005062008276581764
2.9238110073492862e-05,-3.59216719516553e-05,2.8137475965195335e-05,-0.00016684441652614623,1.2865535609307699e-05,0.00046116349403746426
4.3217081838520244e-05,-2.7805257559521124e-05,3.38735080731567e-05,-0.0002419946395093575,4.8841906391317025e-05,0.0003789715119637549
5.6438489991705865e-05,-1.9781493392656557e-05,4.2873332859016955e-05,-0.00028404570184648037,8.772317960392684e-05,0.00018583019846118987
6.182517972774804e-05,-1.3051528185314965e-05,5.432030957308598e-05,-0.00025368438218720257,0.00010756264964584261,9.953763537851046e-07
6.076290083001368e-05,-1.000651900540106e-05,6.598103209398687e-05,-0.00010040742927230895,9.031154331751168e-05,-7.508570706704631e-05
5.87901049584616e-05,-1.5059518773341551e-05,7.236553938128054e-05,0.00010858989116968587,5.684873758582398e-05,-0.0001691337674856186
5.434548802440986e-05,-2.4319968360941857e-05,7.191597251221538e-05,0.0002592531673144549,3.453252065810375e-05,-0.0003110798425041139
4.762387470691465e-05,-3.270593151682988e-05,6.86897910782136e-05,0.00027960364241153,3.068433579755947e-05,-0.00034871301613748074
3.6588342481991276e-05,-4.511423685471527e-05,5.3477506298804656e-05,0.00015991070540621877,3.370248305145651e-05,-0.0002341773360967636
2.6756859369925223e-05,-5.749266711063683e-05,3.546028528944589e-05,-2.6759942556964234e-05,4.4861550122732297e-05,-7.315062248380855e-05
2.4097069399431348e-05,-6.247054989216849e-05,2.7378619051887654e-05,-0.00020291854161769152,6.111878610681742e-05,0.00011859348887810484
2.5029812604770996e-05,-5.9584279370028526e-05,2.8193673642817885e-05,-0.0003176782338414341,6.427367770811543e-05,0.0002942619030363858
2.2920721676200628e-05,-5.624079130939208e-05,3.190572533640079e-05,-0.0003341992851346731,4.4593009079108015e-05,0.0003643872041720897
1.9586528651416302e-05,-5.405312549555674e-05,3.809573172475211e-05,-0.00024319208750966936,1.566399441799149e-05,0.00029693220858462155
1.5727473510196432e-05,-5.232314288150519e-05,4.165436257608235e-05,-8.813294698484242e-05,-1.2399646948324516e-05,0.0001489288843004033
7.85955307947006e-06,-5.714890357921831e-05,3.578047835617326e-05,7.675987581023946e-05,-5.208114453125745e-05,4.024444206152111e-05
-5.058803708379855e-06,-6.885837501613423e-05,2.0092440536245704e-05,0.000215927095268853,-0.00010408448724774644,5.349494676920585e-05
-1.708336094452534e-05,-7.779063889756799e-05,4.093935785931535e-06,0.00030192610574886203,-0.00013913496513850987,0.00013404065975919366
-2.176183625124395e-05,-7.723997987341136e-05,-6.128132667981845e-07,0.0003305336576886475,-0.0001360767346341163,0.00015806512965355068
-1.9750077626667917e-05,-7.126585842343047e-05,6.548535111505771e-06,0.0003191994037479162,-0.00011122848081868142,8.765806705923751e-05
-1.2966611393494532e-05,-6.48094282951206e-05,2.0162999135209247e-05,0.0003016165574081242,-8.891439938452095e-05,-2.2357240595738403e-05
-3.1403048978972947e-06,-5.6354765547439456e-05,3.203147934982553e-05,0.0002933382347691804,-7.105027179932222e-05,-7.771854870952666e-05
1.1794832971645519e-05,-4.439089389052242e-05,3.8597241655224934e-05,0.0002455408393871039,-3.3999105653492734e-05,-3.7818706914549693e-05
2.84651050606044e-05,-3.074092819588259e-05,4.450491178431548e-05,8.143582817865536e-05,2.788443089229986e-05,2.6545991204329766e-05
3.773313801502809e-05,-2.4739983928157017e-05,5.285641600494273e-05,-0.00012983578199055046,7.179261592682451e-05,1.6345118638128042e-05
3.755755824386142e-05,-3.118644599453546e-05,5.8411562349647284e-05,-0.0002144587633665651,6.623344961553812e-05,-1.542573227197863e-05
3.08221387967933e-05,-4.015338345197961e-05,5.4003674449631944e-05,-9.938323637470603e-05,2.5220191673724912e-05,-7.2946359068737365e-06
2.073745781672187e-05,-5.0613420171430334e-05,3.824975647148676e-05,0.0001312432432314381,-3.953684790758416e-05,7.2556399572931696e-06
9.652613698563073e-06,-6.19881902821362e-05,2.0818502889596857e-05,0.00033618282759562135,-0.00010579403169685975,2.9943525078124367e-05
1.6225951640080893e-06,-7.320498843910173e-05,4.2564661271171644e-06,0.00044270287617109716,-0.00015829237236175686,7.709847704973072e-05
4.698067641584203e-06,-7.585866842418909e-05,-3.5632256185635924e-06,0.00042711105197668076,-0.00018311089661438018,9.581743506714702e-05
1.384489041811321e-05,-6.822054274380207e-05,1.2281880117370747e-06,0.00035396774183027446,-0.00017531980120111257,1.4257181646826211e-05
2.08512537938077e-05,-6.22135994490236e-05,8.983402040030342e-06,0.00031680380925536156,-0.00015899768914096057,-0.00011565717431949452
2.9331133191590197e-05,-5.7152730732923374e-05,1.1951353371841833e-05,0.0002915833320003003,-0.0001314240216743201,-4.5624699851032346e-05
4.072121373610571e-05,-5.212601536186412e-05,1.1718138921423815e-05,0.00019336494733579457,-6.593707075808197e-05,0.0002391954476479441
5.0706872571026906e-05,-4.912613803753629e-05,1.630332917557098e-05,-3.8886562833795324e-05,4.235522646922618e-05,0.00044504235847853124
5.76131023990456e-05,-4.5965298340888694e-05,3.115063373115845e-05,-0.0003548762178979814,0.00015188066754490137,0.00044048367999494076
6.194706656970084e-05,-3.737501538125798e-05,5.1811119192279875e-05,-0.0006440440774895251,0.00022677972447127104,0.0003036994021385908
6.369068432832137e-05,-2.397235766693484e-05,6.812020728830248e-05,-0.0007948843413032591,0.0002527139731682837,0.00018419350089970976
5.9443467762321234e-05,-1.625480035727378e-05,7.730592915322632e-05,-0.0007753444369882345,0.0002386697451584041,9.887699707178399e-05
4.512853774940595e-05,-2.2439766325987875e-05,8.004685514606535e-05,-0.0006098523153923452,0.00020622658485081047,-5.9035861340817064e-05
2.5760618882486597e-05,-3.318546441732906e-05,8.088854519883171e-05,-0.0003467893984634429,0.00016358941502403468,-0.0003259575751144439
1.004431578621734e-05,-3.842481237370521e-05,7.948239363031462e-05,-7.691514474572614e-05,0.00011120327690150589,-0.000569168187212199
3.0603121103922604e-06,-3.736888538696803e-05,7.124062540242448e-05,0.00010440840560477227,5.72812496102415e-05,-0.0006329211755655706
3.6538069707603427e-06,-3.5866647522198036e-05,5.755935126217082e-05,0.00016521605721209198,1.7301737898378633e-05,-0.0005273717106319964
9.318186130258255e-06,-3.692876634886488e-05,4.670756243285723e-05,0.0001582363765919581,-3.877765720972093e-06,-0.00036329636350274086
1.7758075046003796e-05,-3.767848829738796e-05,4.573158730636351e-05,0.00015923453611321747,-1.2241515833011363e-05,-0.00021730366279371083
2.499322908988688e-05,-3.7113160942681134e-05,5.141750807524659e-05,0.00018205767264589667,-1.601308031240478e-05,-9.034648246597499e-05
2.564740861998871e-05,-3.917600406566635e-05,5.324520680005662e-05,0.00017673186084721237,-1.84473301487742e-05,2.7648451577988453e-05
1.717533086775802e-05,-4.493901724345051e-05,4.550888479570858e-05,0.00014120811829343438,-2.245635369035881e-05,0.00011125727178296074
7.523555268562632e-06,-5.025927384849638e-05,3.3774955227272585e-05,0.00011060976976295933,-2.5961628125514835e-05,0.0001291688677156344
4.630185230780626e-06,-5.183574467082508e-05,2.720036900427658e-05,0.00010467182437423617,-3.0141891329549253e-05,0.00011317143798805773
4.4647222239291295e-06,-5.203531327424571e-05,2.631433744681999e-05,0.00011779502528952435,-4.076557524967939e-05,0.0001351430400973186
2.0304096324252896e-06,-5.7888209994416684e-05,2.4647819373058155e-05,0.0001373238628730178,-5.6656921515241265e-05,0.00019591106683947146
-2.691384906938765e-06,-6.476687849499285e-05,1.8217820979771204e-05,0.0001423580397386104,-7.14416237315163e-05,0.00023603854060638696
-5.174882062419783e-06,-6.574570579687133e-05,1.3377096365729813e-05,0.0001410905533703044,-7.747481140540913e-05,0.00024622073397040367
-2.047028601737111e-06,-6.320960528682917e-05,1.4039808775123674e-05,0.00014438525249715894,-7.06785504007712e-05,0.00021409614419098943
7.483938588848105e-06,-5.749579577241093e-05,1.8579705283627845e-05,0.00012919599248562008,-5.8308236475568265e-05,0.00018770384485833347
2.2768947019358166e-05,-4.375193020678125e-05,2.6668532882467844e-05,8.460765820927918e-05,-4.471803185879253e-05,0.00026995805092155933
3.2423857192043215e-05,-3.2650234061293304e-05,3.133217614958994e-05,3.2027000997914e-05,-3.4233537007821724e-05,0.000402829929953441
3.7774585507577285e-05,-2.9159542464185506e-05,3.1670162570662796e-05,1.9717712348210625e-05,-2.883823253796436e-05,0.000454313907539472
4.485860699787736e-05,-2.6760737455333583e-05,3.525866850395687e-05,6.870261859148741e-05,-2.7717469492927194e-05,0.00035563122946769
4.95176027470734e-05,-2.6350673579145223e-05,3.7568512198049575e-05,0.00013795282575301826,-3.625702811405063e-05,0.00010792046668939292
4.8243076889775693e-05,-3.041736999875866e-05,3.4391036024317145e-05,0.00017864438996184617,-4.881957283942029e-05,-0.00018865842139348388
4.151261964580044e-05,-3.9697908505331725e-05,2.9231918233563192e-05,0.00014020677190274,-5.322360448190011e-05,-0.00039154826663434505
3.218570418539457e-05,-5.401200178312138e-05,1.817227530409582e-05,2.122704972862266e-05,-5.23390517628286e-05,-0.0004291861259844154
2.4896864488255233e-05,-6.650519935647026e-05,7.126970558601897e-06,-8.07131000328809e-05,-5.551691720029339e-05,-0.0003460015286691487
2.6008603526861407e-05,-6.753940397175029e-05,8.963603249867447e-06,-6.626377580687404e-05,-5.3777148423250765e-05,-0.00018867039761971682
2.9470849767676555e-05,-6.157404277473688e-05,2.114618655468803e-05,7.03431078363792e-06,-3.7914112908765674e-05,3.5408080293564126e-05
2.7588785087573342e-05,-5.881515971850604e-05,2.6466695999260992e-05,2.3482758479076438e-05,-2.0952233171556145e-05,0.00028888657107017934
1.9998255083919503e-05,-6.112783739808947e-05,2.157337439712137e-05,-1.666986099735368e-05,-1.3086390026728623e-05,0.0005034083733335137
1.339526534138713e-05,-6.408993795048445e-05,1.688663542154245e-05,-3.6517616536002606e-05,-1.271818018722115e-05,0.0005867459112778306
1.2927171155752148e-05,-6.564434443134815e-05,1.8200493286713026e-05,-1.4339278095576447e-05,-1.3508669326256495e-05,0.0005087958998046815
1.6788681023172103e-05,-6.412430229829624e-05,2.2800484657636844e-05,2.170861989725381e-06,-1.1628661013673991e-05,0.00037000328302383423
2.040402432612609e-05,-5.92449760006275e-05,2.773938831523992e-05,-2.13231014640769e-05,-6.687407676508883e-06,0.00029509118758141994
2.239836067019496e-05,-5.286029045237228e-05,3.1048668461153284e-05,-4.688980698119849e-05,-3.899564489984186e-06,0.0002747194084804505
2.1074181859148666e-05,-4.9234738980885595e-05,2.9227063350845128e-05,-9.490544471191242e-06,-1.2640592103707604e-05,0.00023586908355355263
1.7208358258358203e-05,-5.233881893218495e-05,2.5882956833811477e-05,5.602844976237975e-05,-2.857135586964432e-05,0.00015247779083438218
1.5396293747471645e-05,-5.655928544001654e-05,2.3369118935079314e-05,9.100919123739004e-05,-4.5200122258393094e-05,5.302726276568137e-05
1.4481412108580116e-05,-5.4851247114129364e-05,2.0409257558640093e-05,0.00011064480349887162,-6.142653728602454e-05,2.4188429961213842e-05
1.2376633094390854e-05,-5.3398915042635053e-05,1.7707508959574625e-05,0.00013415857392828912,-8.124775922624394e-05,0.00010585808922769502
9.601922101865057e-06,-5.796075129183009e-05,1.6444613720523193e-05,0.00015521800378337502,-0.00010108092101290822,0.0002095882227877155
1.0163890692638233e-05,-6.347461749101058e-05,1.4577615729649551e-05,0.00017496227519586682,-0.00010789143561851233,0.00023242057068273425
1.6640944522805512e-05,-6.433417001971975e-05,1.6039966794778593e-05,0.0002117738185916096,-0.00010131636372534558,0.00021057682170066983
2.312623109901324e-05,-5.8958092267857864e-05,2.0663270333898254e-05,0.0002772463485598564,-9.571701230015606e-05,0.00021808699239045382
2.9978318707435392e-05,-5.0637037929845974e-05,2.325496097910218e-05,0.00029740872560068965,-8.090197661658749e-05,0.0002006416762014851
3.867598206852563e-05,-4.353279291535728e-05,2.7613867132458836e-05,0.0001765367778716609,-1.9735996829695068e-05,8.692664414411411e-05
4.353816621005535e-05,-3.6401987017598e-05,4.010681004729122e-05,-2.432698238408193e-05,7.065830868668854e-05,-0.00015976974100340158
4.4886870455229655e-05,-2.6676570996642113e-05,5.7335011661052704e-05,-0.0001947968266904354,0.00013674903311766684,-0.0004145554848946631
4.043977605761029e-05,-2.0270494133001193e-05,6.901304732309654e-05,-0.00029918254585936666,0.00016124348621815443,-0.00047492270823568106
3.3262647775700316e-05,-2.005540591198951e-05,7.027071842458099e-05,-0.00029937757062725723,0.00015556045400444418,-0.00039931564242579043
2.9929100492154248e-05,-2.3726001018076204e-05,6.611112621612847e-05,-0.00023783363576512784,0.00014270459359977394,-0.0003316107322461903
3.0395956855500117e-05,-3.161718632327393e-05,5.922341006225906e-05,-0.00019318072008900344,0.00012328675074968487,-0.00029797645402140915
2.7039208362111822e-05,-4.3144915252923965e-05,4.956816337653436e-05,-0.00019340534345246851,8.385310502490029e-05,-0.00024375863722525537
2.0321311239968054e-05,-5.4649714002152905e-05,3.672059392556548e-05,-0.00017984754231292754,3.007933628396131e-05,-0.00013148492143955082
1.359687030344503e-05,-6.067518552299589e-05,2.3331936972681433e-05,-9.536487050354481e-05,-1.944313225976657e-05,2.8531307179946452e-05
9.72838643065188e-06,-6.108446541475132e-05,1.777701618266292e-05,1.0821241630765144e-05,-4.535430343821645e-05,0.00019393317052163184
1.138949937740108e-05,-5.768217670265585e-05,2.1995429051457904e-05,5.325092934072018e-05,-4.656890087062493e-05,0.00028132577426731586
1.4093522622715682e-05,-5.4152606026036665e-05,2.8511311029433273e-05,2.8351592845865525e-05,-3.7963407521601766e-05,0.0002669904788490385
1.3266154383018147e-05,-5.291042907629162e-05,3.156409729854204e-05,2.015044810832478e-05,-3.3514443202875555e-05,0.00023448416322935373
1.2571245861181524e-05,-5.176482591195963e-05,3.4015167329926044e-05,6.439868593588471e-05,-2.7152764232596382e-05,0.00023898557992652059
2.0198256606818177e-05,-4.8472353228135034e-05,3.819070479949005e-05,0.00010630382166709751,-1.2207855206725071e-06,0.00019845178758259863
3.254109833505936e-05,-4.436347080627456e-05,4.410510518937372e-05,8.865098061505705e-05,3.66844906238839e-05,6.534418935189024e-05
4.0594855818198994e-05,-4.189145329291932e-05,4.9104484787676483e-05,3.1932326237438247e-05,5.4317137255566195e-05,-3.0044253435335122e-05
4.0490940591553226e-05,-4.1461455111857504e-05,4.802487819688395e-05,-1.0385108907939866e-05,3.2590727641945705e-05,4.770102532347664e-05
3.585363447200507e-05,-4.313799581723288e-05,3.9993134123506024e-05,9.143083843810018e-06,-1.2293101463001221e-05,0.00021618632308673114
2.8958675102330744e-05,-4.8277950554620475e-05,2.9847866244381294e-05,8.659906598040834e-05,-5.757882536272518e-05,0.00025564158568158746
1.9509401681716554e-05,-5.437683648779057e-05,2.4260149075416848e-05,0.00016366966883651912,-9.286705608246848e-05,0.0001728048373479396
9.101947398448829e-06,-5.917287853662856e-05,2.2075575543567538e-05,0.00020503700943663716,-0.00011205498594790697,0.00016407541988883168
4.666420863941312e-06,-5.8689085562946275e-05,2.098355980706401e-05,0.00023137201787903905,-0.00010686439782148227,0.0002696799929253757
9.607856554794125e-06,-4.779700975632295e-05,2.7600686735240743e-05,0.0002671238617040217,-6.997082527959719e-05,0.0003129541000816971
1.7166936231660657e-05,-3.739803287317045e-05,4.39859795733355e-05,0.00028240904794074595,-1.330042869085446e-05,0.00013617129297927022
1.8588165403343737e-05,-4.0264352719532326e-05,5.297294046613388e-05,0.00017946634034160525,4.330959927756339e-05,-0.00012657968909479678
1.1924035788979381e-05,-5.593463356490247e-05,4.240894122631289e-05,-6.750589818693697e-05,7.778605504427105e-05,-0.00026702714967541397
3.0697456168127246e-06,-6.628998380620033e-05,2.965678504551761e-05,-0.0002965699532069266,8.120067650452256e-05,-0.0002399587829131633
-9.54206029746274e-07,-6.589419353986159e-05,2.2722670109942555e-05,-0.00033578756847418845,5.162986053619534e-05,-8.419946243520826e-05
-4.409544089867268e-06,-6.992887938395143e-05,1.3768806638836395e-05,-0.00022210279712453485,-3.194550572516164e-06,7.447432290064171e-05
-8.904465175874066e-06,-7.770374941173941e-05,2.914392325692461e-06,-9.84751241048798e-05,-4.8873629566514865e-05,0.0001278674026252702
-9.656740985519718e-06,-8.071123738773167e-05,-6.660462048557747e-08,-3.4858549042837694e-05,-6.945107452338561e-05,7.456778985215351e-05
-6.667442903562915e-06,-7.684728916501626e-05,7.226813522720477e-06,-1.232609156431863e-05,-6.851315993117169e-05,-3.184956585755572e-05
-6.360813813444111e-07,-6.5876345615834e-05,1.6251893612206914e-05,-2.263039095851127e-05,-5.3513922466663644e-05,-0.00013038933684583753
8.767362487560604e-06,-5.396934284362942e-05,2.0549705368466675e-05,-5.391496597439982e-05,-3.4488617529859766e-05,-0.0001928268320625648
1.8778657249640673e-05,-4.8855665227165446e-05,2.062922612822149e-05,-7.070817082421854e-05,-2.3437465642928146e-05,-0.0001864079385995865
2.7393383788876235e-05,-4.926414112560451e-05,1.9732751752599142e-05,-7.970567094162107e-05,-1.7697208022582345e-05,-0.00011398101196391508
3.490745439194143e-05,-4.86381322843954e-05,1.993250407394953e-05,-0.0001095911065931432,-8.527869795216247e-06,-2.975999996124301e-05
4.14705318689812e-05,-4.3777185055660084e-05,2.4849345209077e-05,-0.00014643296890426427,4.7894218369037844e-06,3.0672093998873606e-05
4.596251164912246e-05,-3.746126822079532e-05,3.402157744858414e-05,-0.0001291140797547996,1.934733518282883e-05,6.667542038485408e-05
4.475261812331155e-05,-3.501546962070279e-05,4.177079608780332e-05,-2.8402666430338286e-05,2.8218963052495383e-05,7.910760177765042e-05
3.6422388802748173e-05,-3.674648542073555e-05,4.5430526370182633e-05,0.00012241228250786662,2.5563756935298443e-05,4.647344030672684e-05
2.6702744435169734e-05,-3.6292505683377385e-05,4.995291237719357e-05,0.0002707618987187743,1.3248481081973296e-05,-3.638042471720837e-05
2.191712337662466e-05,-3.1491334084421396e-05,5.832226815982722e-05,0.00040188507409766316,-2.0091608803340932e-06,-0.0001269829081138596
2.0549397959257476e-05,-2.80650237982627e-05,6.452705565607175e-05,0.0004867124371230602,-1.5928588254610077e-05,-0.0001360553433187306
2.0196641344227828e-05,-3.15665420203004e-05,6.0714970459230244e-05,0.00047650322085246444,-2.9934844860690646e-05,1.3103659512125887e-05
1.6517396943527274e-05,-4.3563381041167304e-05,4.6143351937644184e-05,0.0003888739156536758,-5.288088505039923e-05,0.00022066164819989353
9.193820915243123e-06,-6.060823579900898e-05,2.5529239792376757e-05,0.0003046917845495045,-8.725735096959397e-05,0.0003078002482652664
2.011357992159901e-06,-7.882008503656834e-05,3.7033571516076336e-06,0.00026664763572625816,-0.00012367559247650206,0.00027423823485150933
-4.218236426822841e-06,-8.98571452125907e-05,-1.15890115921502e-05,0.0002642776817083359,-0.00014805825776420534,0.0002206988719990477
-5.973499355604872e-06,-8.834650361677632e-05,-1.3954191672382876e-05,0.00027947829221375287,-0.00015166350931394845,0.00021865426970180124
6.408496574294986e-06,-7.682830619160086e-05,-8.740792054595659e-07,0.000280599546385929,-0.00012339999375399202,0.00019766768673434854
2.5052595447050408e-05,-6.517305155284703e-05,1.7621152437641285e-05,0.00022475435980595648,-7.564312545582652e-05,9.138247696682811e-05
3.5146244044881314e-05,-5.863635306013748e-05,2.6220728614134714e-05,3.512503462843597e-05,-1.1116412679257337e-05,-2.995457725774031e-05
3.705743802129291e-05,-5.433266414911486e-05,2.947725988633465e-05,-0.00024854761431925,5.838096694787964e-05,-5.240725658950396e-05
3.256238778703846e-05,-5.095137748867273e-05,3.316777292639017e-05,-0.0004113732429686934,8.826528210192919e-05,5.920212424825877e-05
2.4088451027637348e-05,-4.664364314521663e-05,3.778945392696187e-05,-0.0003769101167563349,7.084133540047333e-05,0.000189481012057513
1.889350460260175e-05,-4.444550722837448e-05,4.1106846765615046e-05,-0.0002528275072108954,3.826712054433301e-05,0.00020807429973501712
1.925688593473751e-05,-4.2050265619764104e-05,4.181427357252687e-05,-0.00015488504141103476,2.383980063314084e-05,0.00011454082414275035
1.672442704148125e-05,-4.574691774905659e-05,3.6383484257385135e-05,-0.00010549239959800616,2.0943913114024326e-05,2.1907144400756806e-05
1.1551865100045688e-05,-5.1753078878391534e-05,2.962119469884783e-05,-6.853236845927313e-05,1.2769074601237662e-05,-2.135875001840759e-05
1.0790527994686272e-05,-5.33097299921792e-05,2.9631708457600325e-05,-2.0157276594545692e-05,1.767648313943937e-06,-4.310832082410343e-05
1.4324533367471304e-05,-5.1328246627235785e-05,3.44370273523964e-05,2.2198270016815513e-05,-3.0017408789717592e-06,-5.549141496885568e-05
1.8739456209004857e-05,-4.7657853428972885e-05,3.62696337106172e-05,2.7282510927761905e-05,-1.8563654293757281e-06,-3.786683737416752e-05
2.207082616223488e-05,-4.378802623250522e-05,3.2792999263620004e-05,8.401377272093669e-06,5.059190471001784e-07,7.496983471355634e-06
2.439864692860283e-05,-4.1477265767753124e-05,2.7842927011079155e-05,-1.3371546629059594e-05,-5.512591542355949e-06,5.4209886002354324e-05
2.4960445443866774e-05,-4.506517143454403e-05,2.3133943614084274e-05,-5.591227363765938e-06,-2.969625529658515e-05,6.946313806110993e-05
2.2688736862619407e-05,-5.222181789577007e-05,2.178660906793084e-05,5.853633410879411e-05,-6.222691445145756e-05,3.515088974381797e-05
2.067869354505092e-05,-5.603578028967604e-05,2.370180118305143e-05,0.00016944005619734526,-7.965114491526037e-05,-2.6366853944637114e-06
2.1700003344449215e-05,-5.276473530102521e-05,2.749766645138152e-05,0.00027392906486056745,-7.270361675182357e-05,1.493126001150813e-05
2.3903285182313994e-05,-4.7780478780623525e-05,3.120813926216215e-05,0.0003184055385645479,-5.029151725466363e-05,8.27603944344446e-05
2.647366090968717e-05,-4.18537892983295e-05,3.581838245736435e-05,0.0002700126788113266,-1.6216226867982186e-05,0.0001695419632596895
3.0196324587450363e-05,-3.4182899980805814e-05,4.264774906914681e-05,0.00013218198728282005,2.8267448215046898e-05,0.00025918366736732423
3.576739618438296e-05,-2.620825034682639e-05,5.1901708502555266e-05,-6.1255537730176e-05,7.93215076555498e-05,0.0003757605445571244
4.2019168176921085e-05,-2.2137313862913288e-05,5.8790807088371366e-05,-0.00026634824462234974,0.000123476522276178,0.0005179353174753487
4.650011396734044e-05,-2.2751839424017817e-05,5.73265970160719e-05,-0.00041269720532000065,0.0001351146202068776,0.0005972331273369491
4.3369604100007564e-05,-3.0376313588931225e-05,4.7496036131633446e-05,-0.0004243197327014059,0.0001039305207086727,0.0005447504227049649
3.483020918793045e-05,-4.5148382923798636e-05,3.27381058013998e-05,-0.0003069088270422071,4.447031824383885e-05,0.0003671499143820256
2.4613940695417114e-05,-5.90037670917809e-05,1.9984157916042022e-05,-0.00014906896103639156,-1.6358046195819043e-05,0.00017651871894486248
1.3833107914251741e-05,-6.664545799139887e-05,1.804457679099869e-05,-5.630101441056468e-06,-6.0553615185199305e-05,2.1533354811253957e-05
9.964208402379882e-06,-7.30709289200604e-05,1.9562263332773e-05,0.00011144016025355086,-8.620027074357495e-05,-0.0001927402918227017
1.2530120329756755e-05,-7.371498213615268e-05,1.7858077626442537e-05,0.00020845982362516224,-9.053491521626711e-05,-0.0004626075678970665
2.0896990463370457e-05,-6.374280201271176e-05,1.8776287106447853e-05,0.0002833264006767422,-8.22712536319159e-05,-0.000590384064707905
3.156196908093989e-05,-4.824358984478749e-05,2.8654534617089666e-05,0.0003206181572750211,-6.194288289407268e-05,-0.00047161488328129053
3.689463483169675e-05,-3.769720206037164e-05,3.90382410841994e-05,0.00032105069840326905,-2.6513866032473743e-05,-0.0002545186725910753
3.8355963624781e-05,-3.545702202245593e-05,4.201022966299206e-05,0.0002768590929917991,1.4471988833975047e-05,-8.498664101352915e-05
3.632291191024706e-05,-3.577189636416733e-05,4.078927304362878e-05,0.0001570780877955258,5.30611359863542e-05,1.9747818441828713e-05
3.298330557299778e-05,-3.6850608012173325e-05,4.097015698789619e-05,-3.056738569284789e-05,8.512750355293974e-05,8.666559006087482e-05
3.331094194436446e-05,-3.7092195270815864e-05,4.428896863828413e-05,-0.00019089574925601482,9.433369996258989e-05,9.946538921212777e-05
3.504490086925216e-05,-3.6427329177968204e-05,4.835098661715165e-05,-0.00025204053963534534,7.37287919037044e-05,6.714849587297067e-05
3.485174602246843e-05,-3.326634760014713e-05,5.135724859428592e-05,-0.00021730117441620678,3.996259329142049e-05,4.710904977400787e-05
3.349223334225826e-05,-2.974400376842823e-05,5.0019942136714235e-05,-0.00012938665167894214,9.19575359148439e-06,3.068102159886621e-05
3.303850826341659e-05,-3.184199522365816e-05,4.442095087142661e-05,-3.670672231237404e-05,-9.597853022569325e-06,-3.454774559941143e-05
3.3450658520450816e-05,-3.6243269278202206e-05,3.864624886773527e-05,2.9315993742784485e-05,-1.5493473256356083e-05,-0.00011282071500318125
3.3894630178110674e-05,-3.72412869182881e-05,3.834163726423867e-05,6.344767461996526e-05,-9.61090609052917e-06,-0.00010732526425272226
3.2768279197625816e-05,-3.6513101804303005e-05,4.04477323172614e-05,7.92744176578708e-05,-2.1819166704517556e-06,-1.0287578334100544e-05
2.8218137231306173e-05,-4.160549724474549e-05,3.889903018716723e-05,9.407148900208995e-05,-8.02571048552636e-06,9.675238834461197e-05
2.1381238184403628e-05,-5.311496352078393e-05,3.1278683309210464e-05,0.00011138219269923866,-3.0024730222066864e-05,0.00016535347094759345
1.5120390344236512e-05,-6.335375655908138e-05,2.2483549400931224e-05,9.651717118686065e-05,-4.526857810560614e-05,0.0002185600169468671
9.24267169466475e-06,-6.946099892957136e-05,1.8845175873138942e-05,2.6905781851382926e-05,-4.2804422264453024e-05,0.0002533442457206547
4.5689289436268155e-06,-6.831833889009431e-05,2.2162643290357664e-05,-5.032410263083875e-05,-3.559208562364802e-05,0.0002043070999206975
4.8275242079398595e-06,-6.242418749025092e-05,3.059254595427774e-05,-4.3175474274903536e-05,-3.2929885492194444e-05,0.00010023446520790458
1.0814946108439472e-05,-5.507481546374038e-05,3.659877984318882e-05,5.6882723583839834e-05,-3.635259417933412e-05,5.847917418577708e-05
1.6603866242803633e-05,-5.1301391067681834e-05,3.596947863115929e-05,0.00013985710393171757,-3.991244375356473e-05,8.425528358202428e-05
1.4357261534314603e-05,-5.169375435798429e-05,3.184843444614671e-05,0.00013811154349241406,-3.5100023524137214e-05,0.00012233360030222684
8.559026355214883e-06,-5.308964682626538e-05,3.235636177123524e-05,7.923197699710727e-05,-1.9686305677169003e-05,0.00017821999790612608
1.2357359082670882e-05,-5.11583020852413e-05,4.0002789319260046e-05,5.850284196640132e-06,-3.684975354190101e-06,0.0002851661411114037
2.4234483134932816e-05,-4.6585693780798465e-05,4.4024687667842954e-05,-2.1380334146670066e-05,1.4241743429010967e-06,0.00038526166463270783
3.5863722587237135e-05,-4.277600964996964e-05,4.426036684890278e-05,1.013481778500136e-05,-4.349272330728127e-06,0.00039696189924143255
4.2660380131565034e-05,-3.990104960394092e-05,4.479171184357256e-05,5.272733687888831e-05,-1.1589702808123548e-05,0.0003219431091565639
4.288554555387236e-05,-3.726692739292048e-05,4.2146883060922846e-05,6.094905984355137e-05,-1.0461637430125847e-05,0.00022852867550682276
4.5186159695731476e-05,-3.4756387321976945e-05,3.4523432987043634e-05,1.8818031094269827e-05,1.0234774663331336e-06,0.00014625019684899598
4.9915241106646135e-05,-3.374127481947653e-05,3.279926750110462e-05,-5.3981144446879625e-05,1.845703627623152e-05,2.8098022085032426e-05
5.497759411809966e-05,-2.7911622964893468e-05,3.892388122039847e-05,-0.00010864342038985342,3.4687112929532304e-05,-0.00011180421279277653
5.866443461854942e-05,-2.220501846750267e-05,4.510650978772901e-05,-0.00011372116568963975,4.242191789671779e-05,-0.00018561401520855725
5.131868238095194e-05,-2.4933417080319487e-05,4.345190245658159e-05,-6.633948214584962e-05,3.180230487487279e-05,-0.00014639832079410553
3.4421856980770826e-05,-3.4066841180901974e-05,3.693258622661233e-05,1.751935633365065e-05,7.341331183852162e-06,-3.375395681359805e-05
2.3040118321659975e-05,-3.927232319256291e-05,3.4916727599920705e-05,8.425187115790322e-05,-5.174880698177731e-06,7.62717827456072e-05
2.529748780943919e-05,-3.719230880960822e-05,3.799917612923309e-05,9.454097744310275e-05,2.9485916002158774e-06,0.00011227019422221929
3.131055200356059e-05,-3.600366471800953e-05,4.1336388676427305e-05,7.88038014434278e-05,1.0857473171199672e-05,9.757205407368019e-05
2.7225134545005858e-05,-4.6343768190126866e-05,3.691022357088514e-05,6.846841279184446e-05,2.972756476538052e-07,0.00010356923303334042
1.3719482012675144e-05,-6.932149699423462e-05,2.3310160031542182e-05,4.701026773545891e-05,-2.7779165975516662e-05,0.00013273033255245537
1.3584828195689624e-07,-9.246453555533662e-05,4.999974407837726e-06,1.7892847608891316e-05,-5.906346268602647e-05,0.00013596663484349847
-1.1820778127002995e-05,-0.0001060085414792411,-1.1832044037873857e-05,2.013518042076612e-06,-8.195948612410575e-05,8.371216972591355e-05
-2.4323959223693237e-05,-0.00010765216575236991,-2.5348308554384857e-05,-5.276359388517449e-06,-9.02655883692205e-05,-2.72275665338384e-05
-3.0693325243191794e-05,-0.00010006127558881417,-2.8727517928928137e-05,-1.910253740788903e-05,-8.306805102620274e-05,-0.00012699856597464532
-2.674292045412585e-05,-8.729141700314358e-05,-1.959256042027846e-05,-8.212197144530364e-07,-7.967880083015189e-05,-0.00010170917812502012
-2.1520287191378884e-05,-7.988027209648862e-05,-5.702635462512262e-06,9.813348879106343e-05,-9.515596320852637e-05,-9.742615247887443e-07
-1.7989341358770616e-05,-7.715968968113884e-05,2.9151619855838362e-06,0.0002292669378221035,-0.00010880829358939081,3.1450494134332985e-05
-1.3908110304328147e-05,-7.028779509710148e-05,1.0938166269625071e-05,0.0002837779757101089,-0.00010344655311200768,-4.109270594199188e-05
-7.712030310358386e-06,-5.912753476877697e-05,2.05522319447482e-05,0.00023180499556474388,-8.899884414859116e-05,-0.00012996688019484282
2.1263936105242465e-06,-4.8000361857702956e-05,2.7401638362789527e-05,0.00011386617552489042,-5.601063821814023e-05,-0.00010294360254192725
1.2631131539819762e-05,-4.2886342271231115e-05,2.8254620701773092e-05,1.7422463542970945e-06,-9.115692591876723e-06,-4.45970044893329e-06
2.1775960703962483e-05,-4.047036782139912e-05,3.072438994422555e-05,-6.134937575552613e-05,2.698699972825125e-05,2.383976061537396e-05
2.9520255338866264e-05,-3.7146019167266786e-05,3.461958112893626e-05,-8.310996054206043e-05,4.898072438663803e-05,-1.2158138815721031e-05
3.3882781281135976e-05,-3.453570752753876e-05,3.6214874853612855e-05,-7.484737579943612e-05,5.4218402510741726e-05,-4.48542668891605e-05
3.4155127650592476e-05,-3.282829493400641e-05,4.054698729305528e-05,-4.4499854993773624e-05,3.6339690268505365e-05,-4.459224874153733e-05
3.0244935260270722e-05,-3.213745731045492e-05,4.3435287807369605e-05,2.0034585759276524e-05,3.606887048590579e-06,-2.3117934233596316e-06
2.358838901272975e-05,-3.3533207897562534e-05,4.448936670087278e-05,7.641912816325203e-05,-1.7464742995798588e-05,7.579738303320482e-05
1.895865352707915e-05,-3.719290907611139e-05,4.050562347401865e-05,6.294511695159599e-05,-1.4439739970839582e-05,0.00014669106167275459
1.9128239728161134e-05,-4.072918454767205e-05,3.529409150360152e-05,6.096930519561283e-06,-1.839129367908754e-06,0.00017124573059845716
2.3659173166379333e-05,-4.366742723505013e-05,3.006644510605838e-05,-3.479048245935701e-05,6.1539330999949016e-06,0.00015541136963292956
3.085580829065293e-05,-4.37718081229832e-05,2.713998947001528e-05,-6.832421786384657e-05,1.864392834249884e-05,0.0001503565872553736
3.831075082416646e-05,-4.200427792966366e-05,3.086648212047294e-05,-0.00011390477448003367,4.297740451875143e-05,0.00018997756706085056
4.1950366721721366e-05,-3.991795165347867e-05,4.107201675651595e-05,-0.00014488147280644625,6.323630805127323e-05,0.00025472542620263994
3.9624268538318574e-05,-3.7364228774094954e-05,5.087553654448129e-05,-0.00013742172450292856,6.61889134789817e-05,0.0002783654781524092
3.442050001467578e-05,-3.512499461066909e-05,5.482462074724026e-05,-0.00010285902681061998,5.68236100662034e-05,0.0002186117199016735
3.0112030799500644e-05,-3.4576030884636566e-05,5.460048487293534e-05,-6.968124944251031e-05,4.701303623733111e-05,0.00011604005703702569
2.824801231327001e-05,-3.491305324132554e-05,5.480611071106978e-05,-6.498426228063181e-05,4.224306030664593e-05,2.0792642317246646e-05
2.9342043490032665e-05,-3.448708594078198e-05,5.536391836358234e-05,-8.211778185795993e-05,3.9886057493276894e-05,-6.096243305364624e-05
2.975301322294399e-05,-3.713131809490733e-05,4.898890256299637e-05,-9.101191244553775e-05,3.540392208378762e-05,-0.00011542269203346223
2.712683090067003e-05,-4.448615436558612e-05,3.779017424676567e-05,-0.00011044208804378286,3.195879980921745e-05,-0.00012260810763109475
2.9666853151866235e-05,-4.7760589950485155e-05,3.151217242702842e-05,-0.00013972942542750388,3.157835089950822e-05,-7.311224908335134e-05
3.893201210303232e-05,-4.271480065654032e-05,3.392772123333998e-05,-0.00012870524369645864,2.837221290974412e-05,3.636651308625005e-05
3.971013939008117e-05,-3.83351871278137e-05,3.5378823667997494e-05,-4.323123721405864e-05,1.1941475349885877e-05,0.00012778339441865683
2.5654368073446676e-05,-4.366784560261294e-05,3.1100367777980864e-05,0.00011033600458176807,-2.6360505216871388e-05,0.00012203186633996665
1.0263413059874438e-05,-5.340224743122235e-05,2.550124736444559e-05,0.0002890014147851616,-7.587546133436263e-05,4.940717917634174e-05
2.4179796582757263e-06,-5.8973128034267575e-05,2.521657370380126e-05,0.00045497508835978806,-0.00010829413804458454,-1.961342968570534e-05
-2.3472230168408714e-06,-6.295056664384902e-05,3.1790586945135146e-05,0.0005661817849613726,-0.00011127784091513604,-8.741123747313395e-05
-7.123377599782543e-06,-6.602020584978163e-05,3.653932799352333e-05,0.0005292575806379318,-9.425522148376331e-05,-0.0001278346317121759
-9.370557563670445e-06,-6.751539331162348e-05,3.1704214052297175e-05,0.000368346314644441,-7.602920231875032e-05,-0.00012200565834064037
-6.753121397196082e-06,-6.686671986244619e-05,2.5926150556188077e-05,0.00022193219047039747,-5.978076660539955e-05,-0.00012159135076217353
-6.689146516691835e-07,-6.632501754211262e-05,2.8068739993614145e-05,0.00013658471289090812,-3.6530876968754455e-05,-0.00010509715502848849
6.067535196052631e-06,-6.514317647088319e-05,3.6127174098510295e-05,8.722573693376034e-05,-1.878735565696843e-05,-6.605704402318224e-05
1.3702881915378384e-05,-6.338571984088048e-05,3.965340874856338e-05,5.5124393838923424e-05,-1.6227286323555745e-05,-1.7638274584896863e-05
2.4291548470500857e-05,-5.7821209338726476e-05,3.871843000524677e-05,4.102422826690599e-05,-1.2320867426751647e-05,7.703987648710608e-06
3.4559747291496024e-05,-4.8421352403238416e-05,4.078638812643476e-05,1.1244804909438244e-06,1.626259290787857e-05,-8.323408110300079e-06
4.074603202752769e-05,-4.068595444550738e-05,4.274100865586661e-05,-7.366473437286913e-05,5.2830968343187124e-05,-3.201519211870618e-05
4.102499588043429e-05,-3.708904478116892e-05,4.297587292967364e-05,-0.00011549847840797156,6.225955439731479e-05,-2.8350448701530695e-05
3.853039743262343e-05,-3.734868732863106e-05,4.327341230236925e-05,-9.08024376258254e-05,4.586939394357614e-05,1.632742532819975e-05
3.504592314129695e-05,-3.9955695683602244e-05,4.2590891098370776e-05,-4.2594903788995e-05,2.6963984055328183e-05,7.542304956587031e-05
3.0440016416832805e-05,-4.5490065531339496e-05,3.926783028873615e-05,-1.6971975128399208e-05,1.3801918612443842e-05,0.000130546759464778
2.5853514671325684e-05,-5.0768274377333e-05,3.690623270813376e-05,-1.2886818694823887e-05,2.667998160177376e-06,0.00017911965551320463
2.208285150118172e-05,-5.256047734292224e-05,3.59709192707669e-05,-1.1244324014114682e-05,-8.404859727306757e-06,0.0002099420817103237
2.0381188733153977e-05,-5.088610123493709e-05,3.433451638557017e-05,2.4993235001602443e-06,-1.8698267012950964e-05,0.00020161921565886587
2.001764914894011e-05,-4.942585655953735e-05,3.1784045859239995e-05,2.883222077798564e-05,-2.416789902781602e-05,0.00017429303261451423
2.1730296793975867e-05,-4.908884147880599e-05,3.1250598112819716e-05,6.077791113057174e-05,-2.5138879209407605e-05,0.00016634479106869549
2.4208740796893835e-05,-4.8600770242046565e-05,3.1512001442024484e-05,7.868765533203259e-05,-2.2555774194188416e-05,0.00019146663544233888
2.6966805307893082e-05,-4.782024188898504e-05,3.254287366871722e-05,7.500228093704209e-05,-1.839027572714258e-05,0.0002200821036240086
2.9384627850959077e-05,-4.696599717135541e-05,3.765403016586788e-05,6.734202906955034e-05,-1.6174073607544415e-05,0.000216667540371418
2.964976738439873e-05,-4.5597669668495655e-05,4.0294788050232455e-05,7.27847873349674e-05,-2.1544856281252578e-05,0.00016400570166297257
2.5133178496616893e-05,-4.8151985538424924e-05,3.259475124650635e-05,8.005324343685061e-05,-3.418081541894935e-05,8.927713497541845e-05
2.085549567709677e-05,-5.241657709120773e-05,2.2137999621918425e-05,7.060593634378165e-05,-3.9466216549044475e-05,4.4982702092966065e-05
2.395151932432782e-05,-5.371639781515114e-05,2.0008961655548774e-05,3.590475535020232e-05,-2.474029861332383e-05,4.4676169636659324e-05
2.7790360036306083e-05,-5.089820842840709e-05,2.5555887987138703e-05,-1.0855572327272967e-05,-9.200899171446508e-07,7.083473610691726e-05
2.849804332072381e-05,-4.386525688460097e-05,3.619676499511115e-05,-4.561517926049419e-05,1.2082590728823561e-05,0.00011541268759174272
2.8013213523081504e-05,-3.563689097063616e-05,4.3419051507953554e-05,-4.4661806896328926e-05,6.071137704566354e-06,0.00016620206588413566
2.93551420327276e-05,-3.4266133297933266e-05,4.067828558618203e-05,-2.638493970152922e-05,-9.277818207920063e-06,0.00018428009934723377
2.838358523149509e-05,-4.027791146654636e-05,3.346729863551445e-05,-2.47196094278479e-05,-1.9990806322311983e-05,0.00011856589117087424
2.290764132339973e-05,-4.6350061893463135e-05,2.606756788736675e-05,-3.62602477252949e-05,-2.270579534524586e-05,-1.0380542335042264e-05
1.8452574295224622e-05,-5.215385681367479e-05,2.2855001589050516e-05,-5.5169388360809535e-05,-1.7077074517146684e-05,-9.885441977530718e-05
1.84271193575114e-05,-5.4556385293835774e-05,2.5016028303070925e-05,-7.966884004417807e-05,-2.4961850613181014e-06,-0.0001026753889163956
2.471582956786733e-05,-5.615736881736666e-05,2.7843987481901422e-05,-9.454983955947682e-05,7.851389455026947e-06,-7.5227850174997e-05
2.610755109344609e-05,-6.084365304559469e-05,2.4885703169275075e-05,-6.167109677335247e-05,-9.335144568467513e-06,-7.739788998151198e-05
1.80779770744266e-05,-6.692127499263734e-05,1.8021932191913947e-05,2.8082826247555204e-05,-4.5900476834503934e-05,-7.041199569357559e-05
7.631008884345647e-06,-6.971760012675077e-05,1.3994836990605108e-05,0.00013878283789381385,-7.581603131256998e-05,1.4654120604973286e-05
1.083352572095464e-06,-7.117404311429709e-05,1.578532646817621e-05,0.0002191773965023458,-8.566038741264492e-05,0.00016477312601637095
-4.604843795164015e-08,-7.14252091711387e-05,2.3031039745546877e-05,0.00023990785120986402,-7.883924263296649e-05,0.0003044002805836499
6.05977811574121e-06,-6.820545968366787e-05,2.9600703783216886e-05,0.00020485121058300138,-5.990662248223089e-05,0.0003594663576222956
1.804128805815708e-05,-6.485921039711684e-05,3.191189534845762e-05,0.00012779876124113798,-2.91305550490506e-05,0.0003013517416547984
2.880513966374565e-05,-6.308457523118705e-05,3.0597242584917694e-05,1.442561642761575e-05,1.1624432772805449e-05,0.0001801942999009043
3.553997885319404e-05,-5.89320516155567e-05,2.8636841307161376e-05,-9.979747846955433e-05,4.780629024025984e-05,7.482242654077709e-05
3.961118636652827e-05,-4.9542311899131164e-05,2.9828475817339495e-05,-0.0001485057146055624,5.347786645870656e-05,9.756033250596374e-06
4.0003589674597606e-05,-4.119928053114563e-05,3.4209868317702785e-05,-0.00011199673463124782,2.596661761344876e-05,-1.2164202416897751e-05
3.550275869201869e-05,-3.864617974613793e-05,3.7761550629511476e-05,-4.0693674236536026e-05,-4.760119281854713e-06,2.4119597583194263e-05
2.8484431823017076e-05,-4.040470230393112e-05,3.6740377254318446e-05,9.623029654903803e-06,-1.3972624401503708e-05,8.2619626482483e-05
2.0938094166922383e-05,-4.2874820792349055e-05,3.062912219320424e-05,3.115381332463585e-05,-4.61767558590509e-06,9.757818770594895e-05
1.5058787539601326e-05,-4.7061010263860226e-05,2.392834721831605e-05,3.825213207164779e-05,6.332855264190584e-06,0.00011450758029241115
9.96823928289814e-06,-5.341156429494731e-05,2.4325932827196084e-05,2.8960128474864177e-05,9.346676961285993e-06,0.00023250568483490497
1.1142825314891525e-05,-5.316821625456214e-05,3.2885312975849956e-05,-9.912994755723048e-06,2.005013266170863e-05,0.0004021248605567962
1.6806894564069808e-05,-4.287792762625031e-05,3.9596572605660185e-05,-6.650268187513575e-05,3.593590372474864e-05,0.00045572768431156874
2.0826659238082357e-05,-3.7745165172964334e-05,3.83736114599742e-05,-0.00010730029316619039,3.9026799640851095e-05,0.00034373876405879855
2.4289192879223265e-05,-4.039182749693282e-05,3.5555123758967966e-05,-0.00010144534462597221,2.8483404094004072e-05,0.00017960104742087424
2.8290429327171296e-05,-4.1918534407159314e-05,3.5877768823411316e-05,-5.041068288846873e-05,1.8354543499299325e-05,2.1531859601964243e-05
3.079162343055941e-05,-4.0888655348680913e-05,3.4089258406311274e-05,7.19242763125294e-08,1.5790343240951188e-05,-0.00018014242232311517
2.5462215489824302e-05,-4.584795533446595e-05,2.589395262475591e-05,-8.856032707171835e-08,1.0477477189851925e-05,-0.0003565528604667634
1.637733839743305e-05,-5.993128797854297e-05,1.2405156667227857e-05,-3.564930011634715e-05,-3.6681697110907407e-06,-0.0003484167973510921
1.2766593499691226e-05,-7.160111999837682e-05,3.7129095744603546e-06,-4.6885961637599394e-05,-1.68742972164182e-05,-0.00013498244516085833
1.5174082363955677e-05,-7.284776074811816e-05,5.556802989303833e-06,-2.753868466243148e-05,-1.8856530004995875e-05,0.00020015807240270078
2.0473305994528346e-05,-6.51254813419655e-05,1.0891259080381133e-05,-3.366498276591301e-05,-8.77056118042674e-06,0.00047143720439635217
2.325406421732623e-05,-5.787100599263795e-05,1.3885739463148639e-05,-7.663355063414201e-05,5.417075954028405e-06,0.00047242737491615117
1.939390494953841e-05,-5.511039125849493e-05,1.5744317352073267e-05,-9.575472358847037e-05,3.005775852216175e-06,0.00028237991500645876
1.2304888514336199e-05,-5.435564162326045e-05,2.32200363825541e-05,-4.346910282038152e-05,-1.346095359622268e-05,0.00013502425281330943
8.518910362909082e-06,-5.2163573855068535e-05,3.45043845300097e-05,7.218949031084776e-05,-2.7517096896190196e-05,5.11756916239392e-05
9.186790521198418e-06,-4.999319207854569e-05,4.027510658488609e-05,0.0001841794146457687,-3.583681973395869e-05,-9.803517605178058e-05
1.2489798791648354e-05,-4.882318535237573e-05,3.6296121834311634e-05,0.0002516097738407552,-4.175499270786531e-05,-0.0003243312821723521
1.7291047697653994e-05,-4.696274845628068e-05,2.694155409699306e-05,0.0002790686266962439,-4.7215547965606675e-05,-0.0004538075882010162
2.28416556637967e-05,-4.7049241402419284e-05,2.2006828658049926e-05,0.0002750958956312388,-4.9097554438048974e-05,-0.0003694837505463511
2.8263877538847737e-05,-5.0564809498609975e-05,2.5724415536387824e-05,0.00025232924963347614,-4.704407911049202e-05,-0.00020117283565923572
3.084249692619778e-05,-5.458212035591714e-05,3.2205498428083956e-05,0.0002357952471356839,-4.704931779997423e-05,-0.00012564301141537726
2.9830780476913787e-05,-5.430151941254735e-05,3.5133420169586316e-05,0.00022462855849880725,-4.473244189284742e-05,-0.00013629217573907226
2.7779302399721928e-05,-5.1277424063300714e-05,3.377649045432918e-05,0.00017096490773838013,-2.7957086786045693e-05,-0.00013967456470709294
2.5031689801835455e-05,-4.9681097152642906e-05,3.1786817999091e-05,6.565770308952779e-05,-1.1892077964148484e-05,-9.619418415240943e-05
2.306950955244247e-05,-4.716973489848897e-05,3.1038711313158274e-05,-1.481652998336358e-05,-1.5532483303104527e-05,-1.1656880815280601e-05
2.590008261904586e-05,-4.3070085666840896e-05,3.0930295906728134e-05,-1.8514367184252478e-05,-2.2165202608448453e-05,5.4298372560879216e-05
3.17890226142481e-05,-3.937167639378458e-05,3.459668005234562e-05,-3.5655571082315873e-06,-9.001737453218084e-06,8.669915405334905e-05
3.61344609700609e-05,-3.7294539652066305e-05,4.039836494484916e-05,-4.104818435735069e-05,1.3564190339820925e-05,0.00013543118257075548
3.709258817252703e-05,-3.540969919413328e-05,4.1437011532252654e-05,-9.591990237822756e-05,2.0055402274010703e-05,0.00017393963935319334
3.803406798397191e-05,-3.2624549930915236e-05,4.0854629332898185e-05,-7.830598769942299e-05,1.086413612938486e-05,0.00020693615078926086
4.3349275074433535e-05,-2.9054652259219438e-05,4.1901221266016364e-05,-3.26031913573388e-05,6.232579835341312e-06,0.0002406514249742031
5.1146576879546046e-05,-2.0637877241824754e-05,4.256829197402112e-05,-3.471973104751669e-05,7.609202839375939e-06,0.0002015208883676678
5.328795305103995e-05,-1.0559512702457141e-05,4.452495704754256e-05,-3.434717291384004e-05,8.563509254599921e-06,0.0001907285040942952
4.6889526856830344e-05,-1.1120434464828577e-05,4.596566941472702e-05,6.9073380473128054e-06,4.45586829300737e-06,0.00025723164435476065
3.6762907257070765e-05,-2.5858449589577504e-05,4.345698835095391e-05,2.9048442229395732e-05,-3.9245451262104325e-06,0.00024322317040059716
2.6012146918219514e-05,-4.1030216380022466e-05,3.4940032492158934e-05,-7.645565347047523e-06,-8.046064067457337e-06,0.00015385655569843948
1.496116783528123e-05,-5.1245249778730795e-05,2.4136215870385058e-05,-6.93511901772581e-05,-1.4555743291566614e-05,0.00010608423326630145
-6.991840564296581e-07,-6.159512849990278e-05,1.4595856555388309e-05,-9.044201578944921e-05,-3.5220058634877205e-05,6.381723505910486e-05
-2.0418719941517338e-05,-7.387557707261294e-05,5.035105004935758e-06,-3.897189162671566e-05,-6.666093395324424e-05,-3.4139469789806753e-05
-3.5661640140460804e-05,-8.418164361501113e-05,1.2022014743706677e-06,3.7814839743077755e-05,-8.828160935081542e-05,-0.00010981111699948087
-3.4754171792883426e-05,-8.438232907792553e-05,8.483551027893554e-06,9.152361599262804e-05,-8.126843749778345e-05,-0.00010881646448979154
-1.7625134205445647e-05,-7.240765989990905e-05,2.592291457403917e-05,0.00011458466178737581,-5.131929719937034e-05,-9.7441348771099e-05
8.115617333714908e-07,-5.6793105613905936e-05,4.176724178250879e-05,0.00011503652058308944,-2.3999460609047674e-05,-0.00012782473640982062
1.1932203960896004e-05,-4.7916266339598224e-05,4.6591823775088415e-05,0.00010142432438442484,-1.3990099432703573e-05,-0.00014941650442779064
1.689687451289501e-05,-4.540005829767324e-05,4.4267922930885106e-05,8.942739077610895e-05,-1.3452367056743242e-05,-0.00011326700041536242
2.0659936126321554e-05,-4.215526132611558e-05,4.440592601895332e-05,7.300563447643071e-05,-5.222696472628741e-06,-3.130623372271657e-05
2.494144791853614e-05,-3.65307460015174e-05,4.910417919745669e-05,2.1847195966984145e-05,1.657798384258058e-05,5.4136242397362366e-05
2.8630212909774855e-05,-3.6393004847923294e-05,5.0571412430144846e-05,-4.6405952161876485e-05,3.224080865038559e-05,0.0001100216613849625
2.688818858587183e-05,-4.6726909204153344e-05,4.16496695834212e-05,-6.99983283993788e-05,1.7431411833968014e-05,0.0001536816416773945
1.9169065126334317e-05,-6.0217436839593574e-05,2.69664033112349e-05,-2.7384308850741945e-05,-2.2044234356144443e-05,0.0002139907010132447
1.2874710591859184e-05,-6.335548096103594e-05,2.094855699397158e-05,5.4908814490772784e-05,-5.734944352298044e-05,0.0002643264306243509
1.1892439033545088e-05,-5.676068758475594e-05,2.5325771275674924e-05,0.0001503115490777418,-7.867049862397835e-05,0.00027263083029538393
1.1132884537801147e-05,-5.014221460442059e-05,2.9548767997766845e-05,0.0002523655421100557,-9.184351802105084e-05,0.00025444847415201366
1.4193593415257055e-05,-4.645859735319391e-05,3.0476398023893125e-05,0.0003369146725162864,-8.209589577745646e-05,0.00019532203441485763
2.6701482056523673e-05,-3.9427111914847046e-05,3.504033884382807e-05,0.00029260755400173366,-2.187150857935194e-05,7.20050884410739e-05
4.410586188896559e-05,-2.6620826247381046e-05,4.4607644667848945e-05,4.592247569235042e-05,7.61385090299882e-05,-9.551340190228075e-05
6.132887210696936e-05,-1.0523447599553037e-05,5.497818347066641e-05,-0.0002405256818747148,0.00014735956210643053,-0.00023393183073494583
7.171532342908904e-05,-7.296236503862019e-08,6.238932837732136e-05,-0.0003431785444263369,0.00015466465265490115,-0.0002703358477447182
6.510044477181509e-05,-7.117399036360439e-06,5.785458051832393e-05,-0.00026927865110337734,0.00011572126095416024,-0.0002197524008806795
4.44818870164454e-05,-2.5466055376455188e-05,3.997620297013782e-05,-0.00016520968347322196,6.456117989728227e-05,-0.0001241006830241531
2.4349916202481836e-05,-4.448384788702242e-05,1.917548979690764e-05,-9.803055581869557e-05,2.1646474124281667e-05,-2.7951717129326425e-05
1.2157761375419796e-05,-5.6923676311271265e-05,5.744593181589153e-06,-6.553911953233182e-05,-6.736248451488791e-06,6.228755228221416e-05
1.1789316886279266e-05,-6.045537884347141e-05,4.0889312913350295e-06,-6.614869926124811e-05,-1.6010430044843815e-05,0.00016269453044515103
1.4387431292561814e-05,-6.026857954566367e-05,4.928054750052979e-06,-9.217519254889339e-05,-8.578838787798304e-06,0.0002414962655166164
1.447285194444703e-05,-5.8169913245365024e-05,9.013352610054426e-06,-9.205133392242715e-05,-1.0642164625096484e-06,0.0003003277233801782
1.46616175698e-05,-5.449040691019036e-05,1.8480555809219368e-05,-1.4497784832201432e-05,-9.42012502491707e-06,0.00035441730869933963
1.861866439867299e-05,-5.031131877331063e-05,3.22057276207488e-05,9.466156188864261e-05,-1.661687383602839e-05,0.00036064215237274766
2.4021381250349805e-05,-4.623863787855953e-05,4.659242767957039e-05,0.0001551341119920835,-7.321406428673072e-06,0.00027596743893809617
2.2923994038137607e-05,-4.873518264503218e-05,4.907066249870695e-05,0.00014555010420735925,-7.768748560010863e-07,0.00011875493510160595
1.3533677702071145e-05,-6.110961840022355e-05,3.785247099585831e-05,0.00011050752073060721,-1.8740931409411132e-05,-1.3951291293778922e-05
1.927803623402724e-06,-7.460269262082875e-05,2.193062573496718e-05,9.447561751585454e-05,-4.8779362259665504e-05,-1.171304757008329e-05
-6.563543138327077e-06,-7.936960173537955e-05,1.250715649803169e-05,0.00010299772111466154,-7.029136759229004e-05,7.831463153706864e-05
-9.629397936805617e-06,-7.508650742238387e-05,1.1885472304129507e-05,0.00011851421004394069,-7.699555135332048e-05,8.939059625845402e-05
-6.106964519858593e-06,-6.8472079874482e-05,1.5424415323650464e-05,0.00013076858886051923,-7.484915113309398e-05,-3.5983757697977126e-05
1.4171531574902474e-06,-6.568352546310052e-05,1.8577682567411102e-05,0.00014333748549688607,-7.101988740032539e-05,-0.00017399151693098247
1.0824906894413289e-05,-6.590323755517602e-05,2.2165810150909238e-05,0.00014981911226641387,-6.31360526313074e-05,-0.00019756458641495556
1.97946992557263e-05,-6.263747491175309e-05,2.592151940916665e-05,0.00013332156231626868,-4.569275915855542e-05,-0.00010129140719072893
2.991503060911782e-05,-5.213187978370115e-05,2.9443985113175586e-05,9.076010610442609e-05,-2.8225280402693897e-05,7.779437873978168e-05
3.7710866308771074e-05,-4.087217530468479e-05,3.363503492437303e-05,6.175284215714782e-05,-2.6916601200355217e-05,0.0003388349141459912
4.0821316360961646e-05,-3.289999222033657e-05,3.597164686652832e-05,9.245321416528895e-05,-3.448907955316827e-05,0.0006420596619136631
4.240828275214881e-05,-2.8787966584786773e-05,3.261213350924663e-05,0.00014269910752773285,-3.6009601899422705e-05,0.000826345116365701
4.076862387591973e-05,-3.507857763906941e-05,2.517109714972321e-05,0.00012332777259871364,-2.5791499865590595e-05,0.0007497702026739717
3.105685391346924e-05,-4.7825087676756084e-05,2.008179399126675e-05,3.27654488501139e-05,-1.4455958989856299e-05,0.0004867962561547756
2.13898420042824e-05,-5.844785482622683e-05,2.0815321477130055e-05,-6.989933172008023e-05,-8.168257409124635e-06,0.00020448114082682878
2.7250634957454167e-05,-5.790446084574796e-05,3.0909992347005755e-05,-0.00015518446161877364,1.5046535736473743e-05,-5.0871294661192223e-05
3.9583577745361254e-05,-5.1106937462463975e-05,4.412529233377427e-05,-0.00019777387205976993,4.016751699964516e-05,-0.00032822979846969247
4.371480463305488e-05,-4.923617234453559e-05,5.224184496910311e-05,-0.00015496044943574816,3.291766915936023e-05,-0.000700234028045088
4.0890168747864664e-05,-4.895038728136569e-05,5.348413105821237e-05,-9.770212272997014e-06,1.3232777746452484e-05,-0.0009555368451401591
3.665844997158274e-05,-4.930289651383646e-05,5.051026528235525e-05,0.00012986089859623462,9.224138921126723e-06,-0.0008560140850022435
3.4010125091299415e-05,-4.887464820058085e-05,4.792791878571734e-05,0.00011965709563810378,2.9020633519394323e-05,-0.0005648665246553719
2.7713555027730763e-05,-4.616873775376007e-05,4.744773104903288e-05,6.332279099297011e-06,4.2912652133964e-05,-0.0003131819539703429
2.0970797777408734e-05,-4.394852658151649e-05,4.760078081744723e-05,-9.297220094595104e-05,3.3975051337620243e-05,-0.00014888521400280297
1.6910204067244194e-05,-4.6141398343024775e-05,4.3329575419193134e-05,-0.00012038389104418457,1.3529731404560152e-05,-2.453998604323715e-05
1.1453338629507925e-05,-5.238242374616675e-05,3.50946284015663e-05,-8.363378583453596e-05,-9.715418855194002e-06,4.594022539095022e-05
5.022726327297278e-06,-5.9685178712243214e-05,2.4481683794874698e-05,-1.0003268471336924e-05,-2.946709719253704e-05,7.613818161189556e-05
7.376501685030235e-07,-6.417632539523765e-05,2.0447276256163605e-05,7.507763075409457e-05,-4.195879228063859e-05,8.721336780581623e-05
-2.964528107440856e-07,-6.402185681508854e-05,2.5685674700071104e-05,0.00014786454266868532,-4.4222706492291763e-05,8.620190783403814e-05
2.2652908171494346e-07,-5.9908990806434304e-05,3.437904888414778e-05,0.0001861411874415353,-4.133603579248302e-05,8.186946797650307e-05
2.1328819457266945e-06,-5.468426024890505e-05,3.9831727917771786e-05,0.0001802373444661498,-3.92232759622857e-05,7.817323785275221e-05
5.165450147615047e-06,-5.086990859126672e-05,3.7646666896762326e-05,0.00015078762953635305,-4.019144762423821e-05,8.629944204585627e-05
1.0591058526188135e-05,-4.911017094855197e-05,3.2092280889628455e-05,0.00011457809887360781,-3.314376954222098e-05,0.00011654925037873909
1.9051676645176485e-05,-4.722109224530868e-05,3.17797384923324e-05,6.485476478701457e-05,-9.278577635996044e-06,0.00016208043962251395
2.7471342036733404e-05,-4.176359288976528e-05,3.85648527299054e-05,-1.545937811897602e-05,2.3093412892194465e-05,0.00020376115571707487
3.223400199203752e-05,-3.352008934598416e-05,4.5662880438612774e-05,-9.436885738978162e-05,4.1622221033321694e-05,0.00024228598340414464
3.579305121093057e-05,-2.5182585886796005e-05,4.934709068038501e-05,-0.0001164414788945578,4.055471799802035e-05,0.0002585904148872942
4.141894532949664e-05,-2.1014975573052652e-05,4.938584243063815e-05,-8.587791671743616e-05,3.185197783750482e-05,0.00023516382498200983
4.7507008275715634e-05,-2.379380566708278e-05,4.579544111038558e-05,-7.084638491505757e-05,2.531276550143957e-05,0.0001941052614711225
5.3265604947227985e-05,-2.7089776267530397e-05,4.106448250240646e-05,-8.653454278828576e-05,2.342248262721114e-05,0.00018246888066641986
5.5650598369538784e-05,-3.0487082767649554e-05,3.6865832953481004e-05,-0.00010624829883454368,1.7759690308594145e-05,0.00018151792755816132
5.067530582891777e-05,-4.101744343643077e-05,2.8232385375304148e-05,-9.784437133930624e-05,-5.075487479189178e-06,0.0001442789944121614
4.259107299731113e-05,-5.0882950745290145e-05,1.9120734577882104e-05,-5.078011236037128e-05,-3.931144965463318e-05,7.518416532548144e-05
3.425193062867038e-05,-5.60759763175156e-05,1.5037396224215627e-05,2.5568395358277485e-05,-6.488973303930834e-05,2.7967198548140004e-05
3.105137875536457e-05,-5.63956236874219e-05,1.9580773368943483e-05,0.00011405075929360464,-6.66452178847976e-05,2.903209133364726e-05
3.0384735509869643e-05,-5.525953383767046e-05,2.636595490912441e-05,0.00019482904463075101,-5.889832755201496e-05,4.576529318001121e-05
2.367888009757735e-05,-5.758936094935052e-05,3.020185249624774e-05,0.0002573761739768088,-5.64668262086343e-05,3.668717545224354e-05
1.6084977687569335e-05,-6.015270628267899e-05,3.2773859857115895e-05,0.0002700400073081255,-4.1705665353219956e-05,2.8989157726755366e-05
1.393905495206127e-05,-5.8540466852718964e-05,3.233856477891095e-05,0.00019171040912624449,-5.352446237338881e-07,8.185738261090592e-05
1.5407775208586827e-05,-5.616975613520481e-05,2.9978213206049986e-05,5.3621311963070184e-05,4.124568295083009e-05,0.00021381171245593578
1.1474884558992926e-05,-6.093668343964964e-05,2.892327574954834e-05,-3.433320307522081e-05,4.2034978832816705e-05,0.00036490452475845814
3.6895444281981327e-06,-6.792721978854388e-05,2.911931551352609e-05,-6.367081368807703e-06,1.0775200280477293e-05,0.0004660224949475378
3.910568580067775e-07,-7.078849012032151e-05,2.994037640746683e-05,8.686527871759608e-05,-1.7880016457638703e-05,0.0004291548393666744
2.5633187306084437e-06,-6.877828855067492e-05,3.0806055292487144e-05,0.00014139417908154428,-2.8534095690702088e-05,0.00024805075372569263
5.436744231701596e-06,-6.624883826589212e-05,2.82708351733163e-05,0.0001305741025134921,-3.093920895480551e-05,6.826122262282297e-05
8.910976248444058e-06,-6.452099478337914e-05,2.2007026927894913e-05,7.589444430777803e-05,-2.772866173472721e-05,3.958155957661802e-06
1.5214605809887871e-05,-6.252542516449466e-05,1.5384288417408243e-05,7.119227575458353e-06,-1.86826910066884e-05,3.169900082866661e-05
2.1600422769552097e-05,-6.0644179029623047e-05,1.3444324395095464e-05,-3.2564497814746574e-05,-1.2742545550281648e-05,4.843527131015435e-05
2.597808816062752e-05,-5.59654290555045e-05,1.9531076759449206e-05,-1.983330730581656e-05,-1.0769485015771352e-05,3.6656594602391124e-05
2.826244235620834e-05,-4.837713640881702e-05,3.0902949220035225e-05,1.6786287233117037e-05,-6.159931672300445e-06,3.86022511520423e-05
2.9217582778073847e-05,-4.4734024413628504e-05,3.7457481084857136e-05,2.3407665139529854e-05,-2.1768238411823404e-07,2.8572912924573757e-05
2.8812421078328043e-05,-4.688000990427099e-05,3.529180685291067e-05,-1.1845017070299946e-05,2.7814410259452416e-06,-4.380158134154044e-05
2.7521391530171968e-05,-4.79625268781092e-05,2.972410038637463e-05,-4.469823034014553e-05,2.5991064376285067e-06,-0.00011615530092967674
2.585077345429454e-05,-4.6122921048663557e-05,2.661628241185099e-05,-3.6212437407812104e-05,-5.601815246336628e-06,-0.0001072561863111332
2.3897067876532674e-05,-4.645947046810761e-05,2.630964809213765e-05,-1.0994704098266084e-06,-1.994893500523176e-05,-1.833858732425142e-05
1.97205208678497e-05,-5.08162374899257e-05,2.597672755655367e-05,2.881574800994713e-05,-3.290871245553717e-05,0.00010378722072346136
1.2634475751838181e-05,-5.303597208694555e-05,2.6378867914900184e-05,3.274268237873912e-05,-3.466433918219991e-05,0.00022463120694737881
9.689115358924028e-06,-5.05266543768812e-05,3.105105861322954e-05,1.5792502381373197e-05,-2.831680467352271e-05,0.00028231568285264075
1.4266818652686197e-05,-4.631190313375555e-05,3.705355993588455e-05,-7.956099921102577e-07,-2.7356411010259762e-05,0.00020713194680865854
1.8325627024751157e-05,-4.6028293581912294e-05,3.9622904296265915e-05,-1.8664562958292663e-05,-3.079539237660356e-05,9.676437912276015e-05
2.0874467736575752e-05,-5.0885540986200795e-05,3.3576136047486216e-05,-7.287934568012133e-05,-2.6651225198293105e-05,0.00014360452769324183
2.2491243726108223e-05,-4.955555414198898e-05,3.00436258839909e-05,-0.0001344533811789006,-1.742892163747456e-05,0.00030841602711007
2.456858055666089e-05,-4.1651877836557105e-05,3.476526035228744e-05,-0.0001364888739772141,-8.026335081012803e-07,0.00038922237581573427
3.162197390338406e-05,-3.7520501791732386e-05,3.991824632976204e-05,-8.018869266379625e-05,2.0311043044785038e-05,0.00034667286672629416
3.7138564948691055e-05,-3.8059304642956704e-05,4.446733510121703e-05,1.6399133073718986e-06,2.4752222088864073e-05,0.00024465075694024563
3.7218935176497325e-05,-3.8813934224890545e-05,4.6298860979732126e-05,9.011678048409522e-05,7.710632417001761e-06,0.00022140111832413822
3.529832247295417e-05,-3.799192563747056e-05,4.362964318715967e-05,0.00017324916552752256,-1.973145845113322e-05,0.0003073447442147881
3.3209573302883655e-05,-4.142420584685169e-05,3.454012403381057e-05,0.00020807345572393388,-4.686658940045163e-05,0.00026608779444359243
3.1316885724663734e-05,-4.6762172132730484e-05,2.9845168683095835e-05,0.00017700246826279908,-6.424691673601046e-05,4.672795330407098e-05
2.896071418945212e-05,-4.775431807502173e-05,2.9658862331416458e-05,0.00011685756908264011,-5.9058689657831565e-05,-0.0001802482729544863
2.5466926672379486e-05,-4.746478225570172e-05,2.511980892450083e-05,5.033129855291918e-05,-3.053682667086832e-05,-0.00031514305737800896
1.969355798792094e-05,-5.131335274199955e-05,1.828857057262212e-05,-4.028257171739824e-05,1.6817835785332136e-05,-0.0003900231095030904
1.207238710776437e-05,-5.4897718655411154e-05,1.962496025953442e-05,-0.00014290188846644014,6.916678830748424e-05,-0.00047098545474000275
6.3945526562747546e-06,-5.207956928643398e-05,3.161210406688042e-05,-0.00020189433416817337,9.842795407166705e-05,-0.0005818817298859358
4.0105273910739925e-06,-4.642975909519009e-05,4.722154699265957e-05,-0.00017330430273432285,8.960151171777397e-05,-0.0006678954814560711
3.5599564398580696e-06,-4.268124757800251e-05,5.84033623454161e-05,-4.6947679948061705e-05,5.758819679613225e-05,-0.0006153061403892934
5.003384103474673e-06,-4.096579868928529e-05,6.01083374931477e-05,0.0001179253522423096,2.8346410545054823e-05,-0.0003855877439491451
6.363245120155625e-06,-4.243765943101607e-05,5.3421841585077345e-05,0.0002177988353651017,7.306941824936075e-06,-9.747275908011943e-05
5.622889148071408e-06,-4.611507756635547e-05,4.554336192086339e-05,0.00020229013171046972,-7.505880148528377e-06,8.478452946292236e-05
3.2401715088781202e-06,-4.796736902790144e-05,4.201888805255294e-05,0.00012201090430608019,-1.4676660612167325e-05,0.00012088257062714547
5.534043339139316e-07,-4.869724580203183e-05,3.8807316741440445e-05,5.39390166522935e-05,-1.9248294847784564e-05,6.533798296004534e-05
-2.3505574517912464e-06,-5.361549119697884e-05,3.1031217076815665e-05,3.4760414564516395e-05,-2.825109550030902e-05,-2.8348944397293963e-05
-3.2641694360791007e-06,-6.02434593020007e-05,2.0987732568755746e-05,5.653475454892032e-05,-3.7966936361044645e-05,-8.798912313068286e-05
4.524650023540744e-07,-5.96041718381457e-05,1.8555439964984544e-05,9.658418275648728e-05,-3.9417831430910155e-05,-4.5288070396054536e-05
7.83954055805225e-06,-5.303098805597983e-05,2.558822052378673e-05,0.00013951247092336416,-3.396231113583781e-05,3.247342829126865e-05
1.5570360119454563e-05,-4.901129796053283e-05,2.9466775231412612e-05,0.0001562865945743397,-3.65448540833313e-05,6.41436199657619e-05
1.845377300924156e-05,-5.118886838317849e-05,2.2750606149202213e-05,0.00014785568055231124,-5.098321344121359e-05,5.318616604199633e-05
1.6746211258578114e-05,-5.323915320332162e-05,1.905873796204105e-05,0.0001480831706430763,-6.502798350993544e-05,5.0136386562371626e-05
1.039401649904903e-05,-5.4867672588443384e-05,1.97574045159854e-05,0.00015369516040664166,-7.226592424558476e-05,8.309412805829197e-05
5.355069788492983e-06,-5.675453212461434e-05,1.981779314519372e-05,0.00016962320660240948,-8.184828038793057e-05,0.00013102477532811463
6.870682682347251e-06,-5.641381358145736e-05,1.929172685777303e-05,0.0002035480283666402,-9.406429308000952e-05,0.00019794686522800475
1.416769464412937e-05,-5.196981874178164e-05,1.662362956267316e-05,0.00019957243057433516,-7.969685975695029e-05,0.0003223950625397265
3.108827513642609e-05,-4.149450978729874e-05,2.0240197045495734e-05,7.402261690003797e-05,-1.2998448255530093e-05,0.0004969673464074731
5.631899693980813e-05,-2.520860653021373e-05,3.119549000984989e-05,-0.00013749902427662164,6.459456199081615e-05,0.0006516473367810249
7.766837370581925e-05,-1.3040497833571862e-05,4.2027910239994526e-05,-0.00028789928182959557,9.529780800221488e-05,0.0007382897892966866
8.297280874103308e-05,-1.2286533092265017e-05,4.9632199079496786e-05,-0.0002954845258500427,8.742307545617223e-05,0.000748047954402864
7.455807644873857e-05,-1.851486013038084e-05,5.0504790124250576e-05,-0.0002129139465978369,7.297072443179786e-05,0.0006323562120087445
6.094894706620835e-05,-2.829629920597654e-05,4.713843736681156e-05,-0.00015336931392084807,6.041001688572578e-05,0.0003760108957067132
4.488100603339262e-05,-4.477451875573024e-05,3.8575912185478956e-05,-0.00011691179679473862,3.647682024165988e-05,5.913749919272959e-05
2.2707341486238874e-05,-6.722407852066681e-05,2.7868010874954052e-05,-2.0952100385329686e-05,-3.41122290592466e-06,-0.0002112857036991045
-5.902601515117567e-06,-8.876258652890101e-05,2.0158558982075192e-05,0.0001620233233552426,-5.6148532166844234e-05,-0.00038058371865190566
-2.931009657913819e-05,-0.00010302582086296752,1.6261132259387523e-05,0.00034134089946746826,-9.715040505398065e-05,-0.0004395579162519425
-3.308765008114278e-05,-0.00010467124229762703,1.581922515470069e-05,0.000380009034415707,-9.546805813442916e-05,-0.00040798704139888287
-1.8700833606999367e-05,-9.605978266336024e-05,1.8883529264712706e-05,0.00023807941761333495,-4.884602822130546e-05,-0.0003387774631846696
6.858148822175281e-07,-8.253542910097167e-05,2.709752880036831e-05,-1.3624935490952339e-05,1.326208257523831e-05,-0.0002750004059635103
1.4625567928305827e-05,-6.798960384912789e-05,3.8095167838037014e-05,-0.0002467167214490473,5.111400241730735e-05,-0.00022253571660257876
1.9161347154295072e-05,-5.6307446357095614e-05,4.456045644474216e-05,-0.00031758195837028325,4.462049400899559e-05,-0.00017598626436665654
1.758203870849684e-05,-5.035733920522034e-05,4.093218740308657e-05,-0.00020528903405647725,1.2686075933743268e-05,-0.00010591937461867929
1.6908024917938747e-05,-4.516226181294769e-05,3.277752693975344e-05,-5.822806997457519e-05,-1.0148321962333284e-05,8.35144874145044e-06
1.710156720946543e-05,-4.2572752136038616e-05,2.5237552108592354e-05,1.6062236682046205e-05,-1.5319366866606288e-05,0.00010584750270936638
1.8285249097971246e-05,-4.4844691728940234e-05,2.2254072973737493e-05,2.7708627385436557e-05,-1.2064212569384836e-05,0.00013293117808643728
2.382727325311862e-05,-4.698474731412716e-05,2.480824332451448e-05,2.1371530237956904e-05,-1.021939988277154e-05,9.984954522224143e-05
3.104045754298568e-05,-4.5384866098174825e-05,3.15082652377896e-05,2.8816675694542937e-05,-1.1317606549710035e-05,6.509946251753718e-05
3.667314740596339e-05,-4.090118454769254e-05,3.814293449977413e-05,4.793957850779407e-05,-1.2750638234138023e-05,6.952259718673304e-05
3.628461854532361e-05,-3.2909752917476e-05,4.187258309684694e-05,5.944925578660332e-05,-1.2755669558828231e-05,0.00010657845996320248
3.173764707753435e-05,-3.1862189644016325e-05,3.872052184306085e-05,6.250489968806505e-05,-1.5251023796736263e-05,0.00013904830848332494
3.0953411624068394e-05,-3.957526496378705e-05,3.2630367059027776e-05,6.714696064591408e-05,-1.983039874176029e-05,0.00015448288468178362
3.348509198985994e-05,-4.2914725781884044e-05,2.762068106676452e-05,7.013190042925999e-05,-1.9156479538651183e-05,0.00015976846043486148
3.348123937030323e-05,-4.5089465857017785e-05,2.6182115107076243e-05,6.26297332928516e-05,-1.5404024452436715e-05,0.00017327771638520062
3.45237749570515e-05,-4.8564805183559656e-05,2.9139997423044406e-05,3.952633051085286e-05,-1.6179830709006637e-05,0.00021346162247937173
3.4600787330418825e-05,-4.991906462237239e-05,2.944672087323852e-05,1.9546916519175284e-05,-2.0501320250332355e-05,0.0002760147617664188
3.106159783783369e-05,-4.3720905523514375e-05,2.999375283252448e-05,3.475833364063874e-05,-2.194915032305289e-05,0.0003335520741529763
2.788446181511972e-05,-3.811466376646422e-05,3.310314423288219e-05,7.093325984897092e-05,-1.7024800399667583e-05,0.000371013768017292
2.5588980861357413e-05,-3.775483128265478e-05,3.6552755773300305e-05,9.730028250487521e-05,-1.6411993783549406e-05,0.00037687033182010055
2.4542678147554398e-05,-4.080492362845689e-05,3.510616079438478e-05,9.872944792732596e-05,-3.264522092649713e-05,0.00033467242610640824
2.3394912204821594e-05,-4.4939883082406595e-05,2.7955611585639417e-05,7.928793638711795e-05,-6.089785892982036e-05,0.00028182243113406
2.7376876460039057e-05,-4.695661846199073e-05,2.2910127881914377e-05,6.23374871793203e-05,-7.658954564249143e-05,0.0002473454806022346
3.6194571293890476e-05,-4.5417204091791064e-05,2.3570690245833248e-05,6.018799467710778e-05,-6.865987234050408e-05,0.00019425152277108282
4.00548342440743e-05,-4.339699444244616e-05,2.7236223104409873e-05,6.14345190115273e-05,-4.843146598432213e-05,9.38042503548786e-05
3.664242831291631e-05,-4.407405140227638e-05,3.0172974220477045e-05,3.175059100612998e-05,-1.545246777823195e-05,1.405834609613521e-05
3.434765312704258e-05,-4.386244836496189e-05,3.1864528864389285e-05,-3.554556315066293e-05,3.152110366499983e-05,9.172660611511674e-06
3.202943116775714e-05,-4.406653170008212e-05,3.021736119990237e-05,-8.571198850404471e-05,6.228091660887003e-05,1.7792957805795595e-05
2.1804462448926643e-05,-5.09266355948057e-05,2.3866341507527977e-05,-7.03552141203545e-05,4.9137019232148305e-05,9.216094440489542e-06
7.292030204553157e-06,-6.438234413508326e-05,1.6487212633364834e-05,-4.316172180551803e-06,1.0939680578303523e-05,3.570399712771177e-05
1.0315958434148342e-06,-6.891199154779315e-05,1.769455775502138e-05,4.90816128149163e-05,-1.257331678061746e-05,0.00010543528333073482
4.1225439417758025e-06,-5.890539614483714e-05,2.9151127819204703e-05,4.3013322283513844e-05,-9.266454981116112e-06,0.00018479528080206364
6.086746907385532e-06,-5.0549035222502425e-05,3.8541285903193057e-05,1.6350733858416788e-05,-4.237988832755946e-06,0.0002216414432041347
2.0339798538770992e-06,-5.796797631774098e-05,4.006266317446716e-05,1.967054595297668e-05,-1.0150013622478582e-05,0.00019312473887111992
4.714607655387226e-07,-6.630016287090257e-05,3.984591967309825e-05,1.7851562006399035e-05,-4.961073045706144e-06,0.0001169662136817351
1.093955597752938e-05,-6.051897071301937e-05,3.98685660911724e-05,-3.7318288377719e-05,2.4378659873036668e-05,4.718671698356047e-05
2.0863275494775735e-05,-5.19274253747426e-05,3.751811891561374e-05,-9.70777909969911e-05,4.393555718706921e-05,2.026168476731982e-05
2.225618482043501e-05,-5.1210710807936266e-05,3.388962068129331e-05,-9.990167745854706e-05,2.6180694476352073e-05,-2.263058559037745e-05
2.3452865207218565e-05,-4.485739191295579e-05,3.5507240681909025e-05,-6.20693463133648e-05,9.87311614153441e-06,-5.060740659246221e-05
2.8349812055239454e-05,-3.218134224880487e-05,4.077895209775306e-05,-1.9947192413383164e-05,1.1447836186562199e-05,-0.00011356291361153126
3.0560000595869496e-05,-3.009520696650725e-05,4.493302185437642e-05,3.1902545742923394e-05,1.0611236120894318e-06,-0.00031961590866558254
2.79458563454682e-05,-3.973889397457242e-05,4.758719660458155e-05,0.00010650130570866168,-2.3694943593000062e-05,-0.0005588214262388647
2.5172299501718953e-05,-4.775806519319303e-05,4.679936319007538e-05,0.00016196312208194286,-3.931355240638368e-05,-0.0006543191848322749
2.086117456201464e-05,-4.9578913603909314e-05,4.4040087232133374e-05,0.00016488473920617253,-3.3802713005570695e-05,-0.0005558174452744424
1.5878043996053748e-05,-5.378048444981687e-05,4.170370084466413e-05,0.0001267652987735346,-2.695135844987817e-05,-0.00036676775198429823
1.7245998606085777e-05,-5.8539601013762876e-05,4.241049100528471e-05,6.618007319048047e-05,-2.5802099116845056e-05,-0.0001384638308081776
2.5098279365920462e-05,-5.705595322069712e-05,4.0629965951666236e-05,4.5575980038847774e-06,-2.1375306459958665e-05,9.052074165083468e-05
3.297330840723589e-05,-4.891469143331051e-05,3.6329958675196394e-05,-2.8575959731824696e-05,-1.1432300198066514e-05,0.00022776499099563807
3.69747394870501e-05,-3.946364813600667e-05,3.315984577056952e-05,-1.998281732085161e-05,-4.708805590780685e-06,0.00022534250456374139
3.872955858241767e-05,-3.182650470989756e-05,3.305916834506206e-05,8.18397256807657e-06,-3.789714583035675e-06,0.00012859365961048752
4.096217890037224e-05,-2.601867527118884e-05,3.580983684514649e-05,2.4278237106045708e-05,-6.243040502340591e-07,2.1521005692193285e-05
4.0394046664005145e-05,-2.5894476493704133e-05,3.951932740164921e-05,4.022847497253679e-05,-2.0813772607652936e-06,-2.3630938812857494e-05
3.278069561929442e-05,-3.54256626451388e-05,3.753705823328346e-05,8.541293209418654e-05,-2.2280017219600268e-05,1.1274521057202946e-05
2.4922299417085014e-05,-4.747416824102402e-05,2.962963844765909e-05,0.00013853699783794582,-4.4355212594382465e-05,5.2831030188826844e-05
2.8060556360287592e-05,-5.453054836834781e-05,2.4195942387450486e-05,0.00012327468721196055,-3.2877396733965725e-05,5.698083623428829e-05
3.823044607997872e-05,-5.658730151480995e-05,2.1351443137973547e-05,1.655928645050153e-05,-1.0589043313302682e-06,9.772812336450443e-05
3.8359470636351034e-05,-6.015396866132505e-05,1.7077079974114895e-05,-6.272762402659282e-05,1.262699811377388e-06,0.00019835785496979952
2.4109522200888023e-05,-6.853919330751523e-05,1.2219855307193939e-05,3.0954565772844944e-06,-3.6489709600573406e-05,0.0002379728975938633
7.227044534374727e-06,-7.201118569355458e-05,1.2946423339599278e-05,0.00015882463776506484,-7.489557174267247e-05,0.00016647388110868633
6.137307195785979e-07,-6.453879177570343e-05,2.0010389562230557e-05,0.00026355774025432765,-8.42683803057298e-05,6.743182893842459e-05
2.4192875116568757e-06,-5.5430777138099074e-05,2.966934334835969e-05,0.0002824396942742169,-6.756586662959307e-05,4.7770445235073566e-05
-2.6047132450912613e-07,-5.263234197627753e-05,3.482869942672551e-05,0.00023144726583268493,-2.87651018879842e-05,0.00015282852109521627
-1.5706007161497837e-06,-5.233204137766734e-05,3.243665923946537e-05,7.107495184754953e-05,3.172920332872309e-05,0.00030396346119232476
4.465549409360392e-06,-5.084471922600642e-05,3.2356158044422045e-05,-0.0002104177256114781,9.62836347753182e-05,0.0003934976120945066
1.2699963008344639e-05,-4.538749999483116e-05,3.910408486262895e-05,-0.00046686024870723486,0.0001263417798327282,0.0004622487467713654
1.542791142128408e-05,-3.904728509951383e-05,4.474484012462199e-05,-0.0004146962019149214,9.013424278236926e-05,0.0005312128341756761
7.865398401918355e-06,-4.003952562925406e-05,4.2939493141602725e-05,-0.00013714957458432764,2.1728863430325873e-05,0.00043060741154477
-2.670858066267101e-06,-5.117834734846838e-05,3.0918959964765236e-05,7.066682883305475e-05,-3.420315988478251e-05,0.00010660876432666555
-1.3757193300989456e-05,-6.96706265443936e-05,1.150409116235096e-05,0.00014128829934634268,-6.622886576224118e-05,-0.00023123437131289393
-2.215767017332837e-05,-8.302575588459149e-05,-2.9461514259310206e-06,0.00012175743177067488,-7.614796049892902e-05,-0.00039563438622280955
-1.764602893672418e-05,-8.099964179564267e-05,-1.710538185761834e-06,0.00011351931607350707,-7.471856952179223e-05,-0.00035094821942038834
6.737844842064078e-07,-6.761780969100073e-05,9.425227290194016e-06,0.00011611724767135456,-5.6892567954491824e-05,-0.00016697229875717312
1.8366645235801116e-05,-5.3569972806144506e-05,2.142197081411723e-05,0.00010838622984010726,-2.7143327315570787e-05,3.612016007537022e-05
2.4315484552062117e-05,-4.5414763008011505e-05,2.579752435849514e-05,7.477796316379681e-05,-7.481727152480744e-06,0.00015465194883290678
2.3364098524325527e-05,-4.3828171328641474e-05,2.4173994461307302e-05,3.8629790651611984e-05,-6.158394171507098e-06,0.00019554428581614047
2.2319136405712925e-05,-4.384656131151132e-05,2.2100177375250496e-05,2.9403741791611537e-05,-1.4967193237680476e-05,0.00021615119476336986
2.1996351279085502e-05,-4.1335726564284414e-05,2.119687087542843e-05,5.120256173540838e-05,-2.5961511710193008e-05,0.0002071150956908241
2.151927401428111e-05,-4.0501487092114985e-05,1.8395265215076506e-05,7.569272565888241e-05,-3.7990328564774245e-05,0.0001278416602872312
2.1157880837563425e-05,-4.384862040751614e-05,1.6199788660742342e-05,6.97854338795878e-05,-4.84823904116638e-05,1.1123753210995346e-05
2.3436465198756196e-05,-4.7654477384639904e-05,1.8310414816369303e-05,2.5055051082745194e-05,-4.9470094381831586e-05,-4.054941746289842e-05
2.9384405934251845e-05,-4.9768474127631634e-05,2.2336225811159238e-05,-4.170704050920904e-05,-3.813360308413394e-05,2.3248669094755314e-05
3.3790965972002596e-05,-5.1217055442975834e-05,2.577787745394744e-05,-8.43021844048053e-05,-2.0334447981440462e-05,0.00016453130228910595
3.29525901179295e-05,-5.2773451898247004e-05,2.6028619686258025e-05,-8.641159365652129e-05,-5.2315403991087805e-06,0.00029475754126906395
2.9906679628766142e-05,-5.308312756824307e-05,2.546967880334705e-05,-5.918422175454907e-05,1.7354298051941441e-06,0.00033899376285262406
2.8244732675375417e-05,-4.9503621994517744e-05,2.8398080758051947e-05,-3.327368904137984e-05,5.725612027163152e-06,0.0002860499662347138
2.7731975933420472e-05,-4.477163020055741e-05,3.599142291932367e-05,-1.0650624972186051e-05,1.1542700121935923e-05,0.000181001189048402
2.995295108121354e-05,-4.175486901658587e-05,4.288278068997897e-05,2.9282209652592428e-05,8.769641681283247e-06,5.1077255193376914e-05
3.453500539762899e-05,-4.108462962904014e-05,4.631281262845732e-05,0.00010648968600435182,-1.6652843441988807e-06,-7.593877671752125e-05
3.999175532953814e-05,-4.066309702466242e-05,4.647640525945462e-05,0.0001579483359819278,5.822533694299636e-06,-0.00013867791858501732
4.2841533286264166e-05,-3.9203889173222706e-05,4.4753272959496826e-05,0.00011929915490327403,2.363726707699243e-05,-0.00013178786321077496
4.308702773414552e-05,-3.808695691986941e-05,4.268223710823804e-05,5.734009755542502e-05,1.9330480427015573e-05,-0.00012144233187427744
4.750265725306235e-05,-3.694686893140897e-05,4.489252023631707e-05,7.58946844143793e-05,6.142709480627673e-06,-0.00012164163490524516
5.175662226974964e-05,-3.579881740733981e-05,5.010197128285654e-05,9.838634287007153e-05,9.20547972782515e-06,-5.91399148106575e-05
4.945689579471946e-05,-3.519036545185372e-05,4.621135667548515e-05,4.2952426156261936e-05,1.311126834480092e-05,7.848684617783874e-05
4.520425864029676e-05,-3.4039894671877846e-05,3.6620527680497617e-05,-5.162363959243521e-05,5.9128333305125125e-06,0.00016709078045096248
4.265419556759298e-05,-3.09174029098358e-05,3.7803158193128183e-05,-6.357068923534825e-05,-1.4181656524669961e-06,0.00010155143536394462
4.6224835386965424e-05,-3.0100636649876833e-05,4.7089630243135616e-05,3.824009036179632e-05,1.1688821359712165e-05,-7.260034908540547e-05
5.386290285969153e-05,-3.1877778383204713e-05,5.2249786676838994e-05,6.817314715590328e-05,5.039006282459013e-05,-0.00023991467605810612
5.4206542699830607e-05,-3.559737524483353e-05,4.9956459406530485e-05,-5.830928421346471e-05,8.155268005793914e-05,-0.00032747400109656155
4.982525570085272e-05,-3.949135498260148e-05,4.7403307689819485e-05,-0.00019568382413126528,8.315194281749427e-05,-0.0002777853514999151
4.4662996515398845e-05,-4.0203660319093615e-05,4.8933572543319315e-05,-0.00020184507593512535,6.108888192102313e-05,-0.00010522297088755295
3.966905569541268e-05,-3.995666338596493e-05,5.372754458221607e-05,-9.308403969043866e-05,3.568226384231821e-05,0.00011128550249850377
3.3978463761741295e-05,-4.2490217310842127e-05,5.693201092071831e-05,3.30995098920539e-05,1.789857924450189e-05,0.00030322937527671456
2.7473404770717025e-05,-4.9370497436029837e-05,5.406496347859502e-05,0.00011368781269993633,4.433014964888571e-06,0.000429943494964391
2.0149973352090456e-05,-5.639738083118573e-05,4.301144872442819e-05,0.00013425160432234406,-8.88725116965361e-06,0.00047067058039829135
1.1160272151755635e-05,-6.0522805142682046e-05,2.7000889531336725e-05,0.00011320908379275352,-2.5888568416121416e-05,0.0004018592298962176
2.9115803954482544e-06,-6.257327913772315e-05,1.4244743397284765e-05,8.72973250807263e-05,-4.663115396397188e-05,0.00022393546532839537
-8.95063010375452e-07,-6.309755553957075e-05,1.1551192983461078e-05,8.493870700476691e-05,-5.8223977248417214e-05,6.205356839927845e-06
-4.5721225205852534e-07,-6.17304103798233e-05,1.645337397349067e-05,9.554443386150524e-05,-4.798034206032753e-05,-0.00013880521873943508
2.468032107572071e-07,-5.892285844311118e-05,2.3124819563236088e-05,9.41559046623297e-05,-2.664024941623211e-05,-0.0002080673148157075
2.864866246454767e-06,-5.4116393584990874e-05,3.060236122109927e-05,8.167616033460945e-05,-1.2168527973699383e-05,-0.0002750646381173283
1.014725785353221e-05,-4.7794939746381715e-05,3.701146488310769e-05,7.481572538381442e-05,-8.627771421743091e-06,-0.0003331148182041943
1.811745278246235e-05,-4.3956639274256304e-05,3.9726615796098486e-05,9.871485235635191e-05,-1.161197815235937e-05,-0.00031987178954295814
1.7214008039445616e-05,-4.7978974180296063e-05,3.66627900802996e-05,0.00014031345199327916,-2.6598412659950554e-05,-0.0002248932287329808
8.133785740938038e-06,-6.088873487897217e-05,2.55573741014814e-05,0.0001616509398445487,-5.274857539916411e-05,-8.6471569375135e-05
-8.365053076886397e-07,-6.993536226218566e-05,1.4775115232623648e-05,0.00016896717716008425,-7.403454219456762e-05,3.45260305039119e-05
-1.1936554074054584e-06,-6.569278775714338e-05,1.5354844435933046e-05,0.00019311982032377273,-8.145077299559489e-05,9.970589599106461e-05
2.890099722208106e-06,-5.9021749621024355e-05,1.4891114915371872e-05,0.00022098941553849727,-8.573909872211516e-05,0.00012342359696049243
3.138182364637032e-06,-6.483330798801035e-05,6.5834715314849745e-06,0.00021762034157291055,-9.24699634197168e-05,0.00012432945368345827
9.827029998632497e-07,-7.358769653365016e-05,4.40855001215823e-06,0.00016996852355077863,-8.375406468985602e-05,7.692460349062458e-05
7.626571232322021e-07,-6.769616447854787e-05,1.1700582945195492e-05,7.439316686941311e-05,-4.923389133182354e-05,5.286828309181146e-05
4.758433533424977e-06,-5.8724399423226714e-05,1.7944248611456715e-05,-5.8001289289677516e-05,-1.3657245290232822e-05,0.00015014670498203486
1.2846502613683697e-05,-5.578725176746957e-05,2.0900324670947157e-05,-0.00014902111433912069,5.253142489891616e-07,0.00030453887302428484
2.4060378564172424e-05,-5.440469612949528e-05,2.2011665350873955e-05,-0.00014739161997567862,-4.860972353526449e-07,0.0004174581845290959
3.477907011983916e-05,-5.06498254253529e-05,2.5318975531263277e-05,-0.00010402608313597739,-5.926832272962201e-06,0.0004399215686134994
4.291727964300662e-05,-4.681164864450693e-05,2.8791471777367406e-05,-5.8753492339747027e-05,-1.1989936865575146e-05,0.000372469425201416
4.3844993342645466e-05,-4.5469740143744275e-05,3.0325516490847804e-05,-7.035426733636996e-06,-1.1386455298634246e-05,0.0002481905685272068
3.569533146219328e-05,-4.428981264936738e-05,3.1319937988882884e-05,1.553402944409754e-05,2.3578450054628775e-06,0.0001355064014205709
2.6171821446041577e-05,-4.2960997234331444e-05,3.191767609678209e-05,-4.186001751804724e-05,2.965585190395359e-05,7.3394832725171e-05
2.075044540106319e-05,-4.083425665157847e-05,3.392562211956829e-05,-0.00014495424693450332,5.609698928310536e-05,2.1166735677979887e-05
1.8803852071869187e-05,-4.016946331830695e-05,3.724248745129444e-05,-0.00020083051640540361,6.372539064614102e-05,-5.141162546351552e-05
1.966006493603345e-05,-3.934052074328065e-05,3.978452514274977e-05,-0.00019167744903825223,4.961220474797301e-05,-0.00010312211088603362
2.251159276056569e-05,-3.7631431041518226e-05,3.9609756640857086e-05,-0.00013528819545172155,1.9671846530400217e-05,-0.0001067291887011379
2.625624620122835e-05,-3.7467525544343516e-05,3.532120172167197e-05,-4.102629463886842e-05,-1.4579540220438503e-05,-9.165124356513843e-05
3.063670374103822e-05,-3.9008526073303074e-05,3.25117762258742e-05,5.637916547129862e-05,-3.799625119427219e-05,-7.198219827841967e-05
3.381037095095962e-05,-3.9523769373772666e-05,3.5514382034307346e-05,0.00012145403889007866,-4.7025885578477755e-05,-2.5080209525185637e-05
3.191840369254351e-05,-4.237286339048296e-05,3.8176374800968915e-05,0.0001660088455537334,-5.404088005889207e-05,3.423860835027881e-05
2.261971530970186e-05,-5.0971328164450824e-05,3.271299283369444e-05,0.00021553327678702772,-6.659558130195364e-05,4.302265006117523e-05
1.3303012565302197e-05,-5.959769623586908e-05,2.4743814719840884e-05,0.00025277293752878904,-6.798050890211016e-05,2.8137521439930424e-05
1.3183619557821658e-05,-6.0548787587322295e-05,2.249964927614201e-05,0.00022348227503243834,-3.794231452047825e-05,8.88397844391875e-05
1.7978432879317552e-05,-5.3725496400147676e-05,2.3551969206891954e-05,0.0001095515035558492,8.121427526930347e-06,0.00016626909200567752
2.07252123800572e-05,-4.503010131884366e-05,3.243902028771117e-05,-1.1764527698687743e-05,3.685964838950895e-05,0.00014275497233029455
2.2845844796393067e-05,-3.934117921744473e-05,4.6843804739182815e-05,-5.9781421441584826e-05,3.76114621758461e-05,7.589700544485822e-05
2.4699251298443414e-05,-3.790168557316065e-05,5.254222560324706e-05,-4.503273157752119e-05,2.809896250255406e-05,5.672654151567258e-05
1.997066465264652e-05,-4.1701889131218195e-05,4.691612411988899e-05,-4.99599045724608e-05,2.2046471713110805e-05,0.00011475706560304388
1.2397312275425065e-05,-4.625282599590719e-05,4.1231851355405524e-05,-9.209802374243736e-05,1.5310168237192556e-05,0.00024202611530199647
6.836517513875151e-06,-4.860152694163844e-05,3.62935898010619e-05,-0.00011090829502791166,5.123075879964745e-06,0.0003155590675305575
1.6090017425085534e-06,-5.324851008481346e-05,2.8268443202250637e-05,-8.291595440823585e-05,-1.0083943379868288e-05,0.00028294281219132245
-4.24708105128957e-06,-5.690944817615673e-05,1.8639786503626965e-05,-4.665878077503294e-05,-2.5098655896726996e-05,0.0002295922313351184
-1.0353584912081715e-05,-5.818817953695543e-05,9.716708518681116e-06,-4.485380122787319e-05,-3.0119537768769078e-05,0.00019602310203481466
-7.509652732551331e-06,-5.798529673484154e-05,9.69957636698382e-06,-5.9655554650817066e-05,-3.1677333026891574e-05,0.00018157069280277938
3.2697291771910386e-06,-5.296601739246398e-05,2.0558170945150778e-05,-3.334992652526125e-05,-3.6816858482779935e-05,0.00015968707157298923
1.7644140825723298e-05,-4.223365249345079e-05,3.255785850342363e-05,5.951607818133198e-05,-4.6522683987859637e-05,0.0001337960420642048
3.34059186570812e-05,-2.8474325517890975e-05,4.356514909886755e-05,0.0001827316009439528,-5.024105848860927e-05,0.00013004886568523943
4.7553392505506054e-05,-1.6546449842280708e-05,5.0389095122227445e-05,0.0002444387646391988,-3.392665894352831e-05,0.0001519065408501774
5.889941530767828e-05,-1.1636543604254257e-05,4.9086906074080616e-05,0.000189714934094809,6.248569206945831e-06,0.00016035807493608445
6.327342998702079e-05,-1.3481633686751593e-05,4.5906279410701245e-05,5.6091063015628606e-05,4.666472159442492e-05,0.00014275667490437627
6.234644388314337e-05,-1.9331337171024643e-05,4.5993056119186804e-05,-6.524154014186934e-05,5.774717647000216e-05,6.344381108647212e-05
5.734856313210912e-05,-2.747634607658256e-05,4.590179742081091e-05,-0.00012814418005291373,3.681355156004429e-05,-8.763756341068074e-05
4.531507511273958e-05,-3.9339789509540424e-05,4.18189047195483e-05,-0.00013395609857980162,-1.9543179519132536e-07,-0.00021735677728429437
2.892654993047472e-05,-5.3326886700233445e-05,3.610530620790087e-05,-8.528551552444696e-05,-3.1712606869405136e-05,-0.00022035115398466587
1.8525111954659224e-05,-6.244344695005566e-05,3.458136779954657e-05,-4.379297479317756e-06,-3.340357943670824e-05,-9.045156184583902e-05
1.8494831238058396e-05,-6.427800690289587e-05,3.619793278630823e-05,4.7901539801387116e-05,8.957435966294724e-06,5.3801191825186834e-05
2.2315396563499235e-05,-6.192471482791007e-05,3.700328670674935e-05,1.7954720533452928e-05,6.976917939027771e-05,0.0001133484547608532
2.085666528728325e-05,-5.9282712754793465e-05,3.59072582796216e-05,-4.9111637054011226e-05,9.357957605971023e-05,7.113682659110054e-05
1.4211680536391214e-05,-6.0875572671648115e-05,2.9624978196807206e-05,-4.795376298716292e-05,5.541908467421308e-05,6.582464720850112e-06
7.490870757465018e-06,-6.593087164219469e-05,1.8895854736911133e-05,5.604440229944885e-05,-1.1255099707341287e-05,2.6957366571878083e-05
1.2180051953691873e-06,-7.306788029382005e-05,1.0075586033053696e-05,0.0001843675272539258,-6.948185182409361e-05,0.00012116509606130421
-7.172820460255025e-06,-8.496482769260183e-05,6.462669716711389e-06,0.00024895044043660164,-0.00010916600149357691,0.00012807580060325563
-1.43891684274422e-05,-9.594081348041072e-05,6.4423561525472905e-06,0.0002495447115506977,-0.00012826970487367362,5.279744982544798e-06
-1.132175384555012e-05,-9.75889342953451e-05,1.129392421717057e-05,0.00022707910102326423,-0.00011812659067800269,-0.00010052509605884552
6.67676260945882e-07,-8.779337076703086e-05,2.1492667656275444e-05,0.00019342632731422782,-8.701290789758787e-05,-0.00013489283446688205
1.83347292477265e-05,-7.182085391832516e-05,3.310844476800412e-05,9.985812357626855e-05,-3.884561738232151e-05,-0.00018722418462857604
3.134955113637261e-05,-6.162884528748691e-05,4.094072573934682e-05,-4.7463639930356294e-05,1.3143731848686002e-05,-0.0002379284123890102
3.3529751817695796e-05,-5.9124075050931424e-05,4.272705700714141e-05,-0.00015507954230997711,3.1104020308703184e-05,-0.00022032440756447613
3.355034641572274e-05,-5.8095658459933475e-05,4.09476924687624e-05,-0.00015204845112748444,1.205995704367524e-05,-0.0001884551311377436
3.232359085814096e-05,-5.714744111173786e-05,3.6160512536298484e-05,-5.2078288717893884e-05,-1.8801500118570402e-05,-0.00017140772251877934
3.2742223993409425e-05,-5.401345333666541e-05,3.271988680353388e-05,3.77968572138343e-05,-3.126602678094059e-05,-7.66144585213624e-05
3.2256550184683874e-05,-4.998177973902784e-05,3.5696262784767896e-05,6.789495091652498e-05,-1.634717955312226e-05,8.393038297072053e-05
3.178567931172438e-05,-4.853916107094847e-05,3.935550557798706e-05,3.9243906940100715e-05,5.993872491671937e-06,0.00018916476983577013
3.341185947647318e-05,-4.676209209719673e-05,4.1946401324821636e-05,-1.3623057384393178e-05,1.750533192534931e-05,0.00020782402134500444
3.672653838293627e-05,-4.1840401536319405e-05,4.263341907062568e-05,-2.68009134742897e-05,1.534021612314973e-05,0.0001819369790609926
3.9854319766163826e-05,-4.0682265534996986e-05,3.8105412386357784e-05,1.1499101674417034e-05,6.3131565184448846e-06,0.0001676587708061561
3.915528577635996e-05,-4.6972570999059826e-05,2.6743384296423756e-05,3.822205326287076e-05,-7.14046882421826e-06,0.00019445746147539467
3.6559711588779464e-05,-5.6572211178718135e-05,1.60784438776318e-05,2.041970037680585e-05,-1.935773980221711e-05,0.0002552607038524002
3.409361306694336e-05,-6.142263009678572e-05,1.3005488654016517e-05,-2.4628345727251144e-06,-2.512715400371235e-05,0.00029005948454141617
3.442156594246626e-05,-5.797571429866366e-05,1.8062359231407754e-05,8.252679435827304e-06,-2.493970896466635e-05,0.00026385579258203506
3.886283593601547e-05,-4.731457374873571e-05,2.832344762282446e-05,4.2164370825048536e-05,-1.9411896573728882e-05,0.0001872029242804274
4.41105330537539e-05,-3.400246350793168e-05,3.732781988219358e-05,7.3499686550349e-05,-1.6656604202580638e-05,7.924156670924276e-05
4.279270433471538e-05,-2.6696372515289113e-05,3.959477908210829e-05,0.0001030088315019384,-2.334490454813931e-05,2.8805163765355246e-06
3.615386231103912e-05,-2.904020220739767e-05,3.536541044013575e-05,0.00013186682190280408,-3.3498192351544276e-05,4.701543366536498e-05
2.8254236895008944e-05,-3.8433470763266087e-05,2.847329778887797e-05,0.00015506705676671118,-4.190317849861458e-05,0.00019219024397898465
2.444698657200206e-05,-4.839257235289551e-05,2.2046617232263088e-05,0.00017365044914186,-5.526046879822388e-05,0.00031315587693825364
2.524517367419321e-05,-5.468042945722118e-05,2.1150663087610155e-05,0.0002005607821047306,-6.877056148368865e-05,0.00028705631848424673
2.5726456442498602e-05,-5.7522320275893435e-05,2.4554068659199402e-05,0.00022008660016581416,-6.178860348882154e-05,0.00010527220001677051
2.3348460672423244e-05,-5.637171125272289e-05,2.6522511689108796e-05,0.00019937542674597353,-2.883292836486362e-05,-0.0001175286597572267
2.2300217096926644e-05,-5.5251297453651205e-05,2.608214163046796e-05,0.0001324705226579681,8.146434083755594e-06,-0.00031487486558035016
2.2477963284472935e-05,-5.637729918817058e-05,2.530183883209247e-05,5.107992183184251e-05,2.9776339943055063e-05,-0.000440041912952438
2.406796920695342e-05,-5.080310074845329e-05,2.506934652046766e-05,-5.445904389489442e-05,4.868124597123824e-05,-0.000419245392549783
3.004236896231305e-05,-3.958667002734728e-05,3.043853575945832e-05,-0.00016113775200210512,7.07724757376127e-05,-0.0002854595659300685
3.56838500010781e-05,-3.362683855812065e-05,4.072942101629451e-05,-0.00017705255595501512,7.779938459862024e-05,-0.0001146041540778242
3.8389367546187714e-05,-3.502695471979678e-05,4.7403646021848544e-05,-0.00012899730063509196,6.650022260146216e-05,8.90276423888281e-05
3.5301865864312276e-05,-3.7619822251144797e-05,4.909245762974024e-05,-6.371374183800071e-05,4.1644598240964115e-05,0.0002625315391924232
2.746105019468814e-05,-4.092334711458534e-05,4.696948599303141e-05,1.7035328710335307e-05,1.0934658348560333e-05,0.0003242667007725686
1.976275962078944e-05,-4.501693183556199e-05,3.9339774957625195e-05,6.979811587370932e-05,-1.4697207006975077e-05,0.000267350667854771
1.3964152458356693e-05,-4.901806823909283e-05,3.185196328558959e-05,7.299170829355717e-05,-3.1372826924780384e-05,0.0001560500095365569
1.3997640053275973e-05,-4.815336433239281e-05,3.1034305720822886e-05,3.4469907404854894e-05,-3.203225787729025e-05,6.350289913825691e-05
1.878833063528873e-05,-4.41564989159815e-05,3.573250796762295e-05,-1.8188236936111934e-05,-1.4273454326030333e-05,3.924862539861351e-06
1.8750684830592945e-05,-4.5698390749748796e-05,3.802969877142459e-05,-6.807497993577272e-05,2.711157549128984e-06,-1.5842255379538983e-05
9.727561518957373e-06,-5.431841054814868e-05,3.4233758924528956e-05,-8.471191540593281e-05,-3.4471113394829445e-06,-5.00882015330717e-06
-1.0825408480741316e-06,-6.36450422462076e-05,2.9945067581138574e-05,-6.951287650736049e-05,-1.9022185369976796e-05,5.268393942969851e-05
-4.2320334614487365e-06,-6.665948603767902e-05,2.874202618841082e-05,-4.263416485628113e-05,-2.1432562789414078e-05,9.690423030406237e-05
-3.4994155839740415e-07,-6.0904705605935305e-05,2.8810667572543025e-05,-8.45499016577378e-06,-1.5562973203486763e-05,7.831203402020037e-05
