3.536218355293386e-05,-5.275306466501206e-05,-0.00019318958220537752,1.1640353477559984e-05,-2.0945075448253192e-05,5.397023051045835e-05
4.9248938012169674e-05,-7.506141264457256e-05,-7.69486723584123e-05,-1.628915561013855e-05,-3.0382592740352266e-05,4.4777942093787715e-05
5.2993920689914376e-05,-8.526031160727143e-05,5.9064768720418215e-06,-4.4506210542749614e-05,-3.0721406801603734e-05,4.3632193410303444e-05
5.027344741392881e-05,-9.118306479649618e-05,1.937283741426654e-05,-4.530962178250775e-05,-2.3793321815901436e-05,4.758059367304668e-05
5.302687350194901e-05,-9.348385356133804e-05,4.588107458403101e-06,-5.669769507221645e-06,-1.4504197679343633e-05,4.582078327075578e-05
5.830578811583109e-05,-9.277428762288764e-05,-3.003247456945246e-06,3.951298276660964e-05,-1.0496485629118979e-05,3.998079409939237e-05
5.680108006345108e-05,-9.030255023390055e-05,6.5495428316353355e-06,6.852525984868407e-05,-9.648043487686664e-06,4.2569452489260584e-05
4.675091986428015e-05,-8.909167809179053e-05,4.6680375817231834e-05,7.443463255185634e-05,-9.591722118784674e-06,5.145554314367473e-05
2.696800402191002e-05,-7.609658496221527e-05,0.00011164705938426778,6.431178917409852e-05,-9.126744771492667e-06,5.793199670733884e-05
-1.8995115169673227e-06,-4.9108773964690045e-05,0.0001648895995458588,5.164595859241672e-05,-9.48533670452889e-06,6.211348227225244e-05
-1.9858460291288793e-05,-1.9250659534009174e-05,0.00017865934933070093,4.225890734232962e-05,-9.912909263221081e-06,6.694257172057405e-05
-1.7072392438421957e-05,9.445192858947848e-07,0.00015943258767947555,2.9231485314085148e-05,-9.053615031007212e-06,7.227188325487077e-05
-7.84112580731744e-06,1.4317675777419936e-05,0.00014235288836061954,1.5798570530023426e-05,-7.874064067436848e-06,7.329283835133538e-05
-6.74052125759772e-06,2.654962554515805e-05,0.00012178120232420042,1.0262086107104551e-05,-1.0410576578578912e-05,6.93829424562864e-05
-1.262553905689856e-05,3.172682045260444e-05,8.231389801949263e-05,1.2840408999181818e-05,-1.4141629435471259e-05,6.492622196674347e-05
-1.705426439002622e-05,2.3168275220086798e-05,6.185931124491617e-05,1.8201046259491704e-05,-1.3887873137718998e-05,6.0216061683604494e-05
-1.7643385945120826e-05,1.280227138522605e-06,8.907834853744134e-05,1.9173994587617926e-05,-1.2361329027044121e-05,5.2845825848635286e-05
-1.652745959290769e-05,-2.8156080588814802e-05,0.00014618407294619828,1.4475564967142418e-05,-1.076575426850468e-05,4.457882096176036e-05
-1.6061063433880918e-05,-5.323170989868231e-05,0.00020440817752387375,1.2050760233250912e-05,-6.177618161018472e-06,4.5066986785968766e-05
-1.8513672330300324e-05,-6.077105717849918e-05,0.0002116633258992806,1.5981060641934164e-05,-9.686419844001648e-07,5.281407356960699e-05
-2.3652342861169018e-05,-5.600132135441527e-05,0.00012017402332276106,1.6889211110537872e-05,-2.891441226893221e-06,6.0082500567659736e-05
-2.3699552912148647e-05,-5.760158455814235e-05,-7.940637260617223e-06,1.0685731467674486e-05,-1.0884959010581952e-05,5.861570025444962e-05
-1.5110804270079825e-05,-7.112693128874525e-05,-4.474257366382517e-05,5.703890110453358e-06,-1.5680258002248593e-05,4.90282618557103e-05
2.1553673832386266e-06,-8.241091563832015e-05,-4.6042863687034696e-05,1.0800557902257424e-05,-1.5459743735846132e-05,4.333203469286673e-05
2.7586194846662693e-05,-8.364424866158515e-05,-7.311000081244856e-05,1.8849363186745904e-05,-1.754569348122459e-05,4.652521965908818e-05
4.9476086132926866e-05,-7.914090383565053e-05,-4.3712250771932304e-05,2.5932866265065968e-05,-2.17587839870248e-05,5.738884283346124e-05
5.859847442479804e-05,-7.242906576720998e-05,2.040825529547874e-05,3.5440818464849144e-05,-2.842699541361071e-05,6.553037383127958e-05
6.552065315190703e-05,-8.278387394966558e-05,1.5645464372937568e-05,4.011081546195783e-05,-5.053848144598305e-05,6.286238203756511e-05
6.831644714111462e-05,-0.00011230850213905796,-1.2619849258044269e-05,3.262184691266157e-05,-6.988582026679069e-05,5.400095324148424e-05
5.596332994173281e-05,-0.00012660218635573983,3.891951928380877e-05,2.0248493456165306e-05,-7.226577872643247e-05,5.068841346655972e-05
3.508559166220948e-05,-0.00012446755135897547,9.331996989203617e-05,1.788233930710703e-05,-6.855156243545935e-05,5.903694182052277e-05
2.030566247412935e-05,-0.00011142228322569281,5.474495264934376e-05,2.678093733265996e-05,-5.671923281624913e-05,6.863407179480419e-05
1.683567461441271e-05,-8.723988867131993e-05,-1.7553416910232045e-05,3.413314334466122e-05,-4.239558256813325e-05,6.92498215357773e-05
2.0761612177011557e-05,-5.815746771986596e-05,-3.315968933748081e-05,3.2738334994064644e-05,-2.5751198336365633e-05,6.533793930429965e-05
1.9689932742039673e-05,-3.446466871537268e-05,-1.9582621462177485e-05,2.834633778547868e-05,-8.24204289529007e-06,5.8905614423565567e-05
2.269464857818093e-06,-1.584059646120295e-05,-1.4411445590667427e-05,2.54227652476402e-05,6.206184480106458e-06,5.7573419326217845e-05
-2.3701019017607905e-05,-4.403609636938199e-06,-2.820513691403903e-05,2.0367500837892294e-05,1.083792176359566e-05,6.422634760383517e-05
-3.0091105145402253e-05,-1.268212145077996e-05,-3.1504609069088474e-05,1.1561846804397646e-05,1.0300906978955027e-05,7.381448085652664e-05
-5.233373940427555e-06,-4.119450750295073e-05,9.923670404532459e-06,6.016997758706566e-06,1.420804164808942e-05,8.661199535708874e-05
3.0150173188303597e-05,-7.373884000116959e-05,6.864979513920844e-05,7.620059477631003e-06,2.1378185920184478e-05,8.983451698441058e-05
4.91802093165461e-05,-8.807527046883479e-05,0.00010655555524863303,9.269607289752457e-06,2.333984593860805e-05,6.771123298676684e-05
5.397038330556825e-05,-7.057315815472975e-05,0.00010679673869162798,1.4770454072277062e-05,2.205863711424172e-05,3.2304997148457915e-05
6.458227289840579e-05,-2.8318392651272006e-05,8.451185567537323e-05,2.414594746369403e-05,2.2543574232258834e-05,2.141673212463502e-05
8.313210855703801e-05,8.76025023899274e-06,4.579681626637466e-05,2.5618279323680326e-05,2.0899347873637453e-05,4.5258988393470645e-05
8.992811490315944e-05,2.22037524508778e-05,5.9621065702231135e-06,2.2258403987507336e-05,1.6350009900634177e-05,6.974991993047297e-05
6.68223001412116e-05,1.807006265153177e-05,3.0684009288961533e-06,3.2581858249614015e-05,1.2001293725916184e-05,7.414454012177885e-05
2.165676050935872e-05,1.1557577636267524e-05,6.005971954436973e-05,5.3906853281660005e-05,1.3882553503208328e-05,7.281937723746523e-05
-1.8651837308425456e-05,2.975972165586427e-06,0.00011625134357018396,6.241467053769156e-05,1.766239438438788e-05,7.361394818872213e-05
-3.2349042157875374e-05,-2.000302993110381e-05,0.00010349430522182956,5.07930526509881e-05,1.4431145245907828e-05,6.288116856012493e-05
-2.3298198357224464e-05,-5.859472003066912e-05,4.7706162149552256e-05,3.234751056879759e-05,2.7319456421537325e-06,3.463167013251223e-05
-8.094226359389722e-06,-9.032603702507913e-05,-1.905600947793573e-05,1.646847704250831e-05,-4.487455498747295e-06,1.55934121721657e-05
6.328823019430274e-06,-9.810534538701177e-05,-5.581593723036349e-05,1.2341390174697153e-05,-3.1386380214826204e-06,2.9922275643912144e-05
1.7267440853174776e-05,-8.962277206592262e-05,-2.1754806311946595e-06,2.1172707420191728e-05,-5.978152330499142e-06,5.7170203945133835e-05
2.3859292923589237e-05,-8.183084719348699e-05,4.27693230449222e-05,2.9241893571452238e-05,-2.1069688955321908e-05,6.0721147747244686e-05
3.3379506930941716e-05,-6.926138303242624e-05,1.4577961337636225e-05,3.90273162338417e-05,-3.231599839637056e-05,3.907713835360482e-05
4.9632399168331176e-05,-4.0301190892932937e-05,-3.732370532816276e-05,4.598871964844875e-05,-2.503452924429439e-05,3.647925041150302e-05
7.521334191551432e-05,-1.480382593399554e-06,-7.306104816962034e-05,4.345360866864212e-05,-1.2351808436505962e-05,6.213462620507926e-05
9.884605242405087e-05,3.216349068679847e-05,-8.270070247817785e-05,3.710754026542418e-05,-1.1639440344879404e-05,8.130619971780106e-05
9.758897795109078e-05,4.654653821489774e-05,-7.7051532571204e-05,3.0755105399293825e-05,-1.3340671102923807e-05,8.622166933491826e-05
6.601099448744208e-05,3.8844344089739025e-05,-5.7521545386407524e-05,3.005315738846548e-05,-7.91488400864182e-06,8.534040534868836e-05
2.5446555810049176e-05,2.4962711904663593e-05,-3.078771260334179e-05,3.5514356568455696e-05,5.430822511698352e-07,8.023304690141231e-05
-1.242117377842078e-06,1.0670613846741617e-05,-4.302503384678857e-06,3.883970930473879e-05,4.914008513878798e-06,7.486758840968832e-05
-8.281539521703962e-06,-6.853323156974511e-06,1.9962819351349026e-05,3.722734618349932e-05,4.464090125111397e-06,8.293438440887257e-05
-5.215780220169108e-06,-2.7551508537726477e-05,4.546453419607133e-05,3.557974559953436e-05,7.72520820646605e-07,8.717973105376586e-05
3.0614020829489164e-07,-4.5453893108060583e-05,6.705620035063475e-05,3.8249763747444376e-05,-9.416691568731039e-07,7.46506339055486e-05
7.5387520155345555e-06,-5.7686902437126264e-05,7.611257024109364e-05,4.298800558899529e-05,2.2001681827532593e-06,5.110869096824899e-05
1.816119038267061e-05,-6.737459625583142e-05,7.765017653582618e-05,4.7511774027952924e-05,3.6514763905870495e-06,2.6317857191315852e-05
3.1320010748459026e-05,-7.535491022281349e-05,8.909767348086461e-05,4.658960460801609e-05,-1.6744056665629614e-06,2.2724556401954032e-05
3.868062776746228e-05,-8.459643868263811e-05,8.938818064052612e-05,4.0785693272482604e-05,-1.5189199075393844e-05,3.527149965520948e-05
3.4643817343749106e-05,-9.725562267703936e-05,6.990743713686243e-05,3.782746716751717e-05,-2.938121724582743e-05,4.0228540456155315e-05
2.2411069949157536e-05,-0.00010891853889916092,5.03594710608013e-05,4.049286144436337e-05,-3.5454802855383605e-05,3.489269147394225e-05
5.387073088058969e-06,-0.00011090589396189898,2.683155980776064e-05,4.375477146822959e-05,-3.451126758591272e-05,3.243510582251474e-05
-1.4597780136682559e-05,-0.00010417646262794733,-1.7154789020423777e-05,4.462370998226106e-05,-3.4130349376937374e-05,3.693353210110217e-05
-2.822329588525463e-05,-9.021926234709099e-05,-2.1853009457117878e-05,3.966523945564404e-05,-3.291203756816685e-05,4.964377512806095e-05
-2.472635605954565e-05,-6.788887549191713e-05,6.77492716931738e-05,2.998510535690002e-05,-2.922832572949119e-05,6.445412145694718e-05
-7.796996214892715e-06,-4.444058868102729e-05,0.0001962010865099728,2.513245453883428e-05,-2.5685299988253973e-05,6.841098365839571e-05
2.5480037493252894e-06,-3.8378184399334714e-05,0.0002756274479907006,2.8752265279763378e-05,-2.486311313987244e-05,6.097417644923553e-05
9.966876177713857e-07,-4.891284697805531e-05,0.00029608182376250625,3.725849455804564e-05,-2.6421801521792077e-05,5.200996019993909e-05
-6.606887836824171e-07,-5.631440944853239e-05,0.0002604432520456612,4.194952271063812e-05,-2.758254049695097e-05,4.240705311531201e-05
9.194829544867389e-06,-5.43346322956495e-05,0.00011938448733417317,3.849381391773932e-05,-2.7114758267998695e-05,3.4902128390967846e-05
2.890659925469663e-05,-5.161295484867878e-05,-8.868635632097721e-05,3.059500522795133e-05,-2.6630941647454165e-05,3.6494326195679605e-05
4.314943726058118e-05,-5.230242823017761e-05,-0.0002516248496249318,2.9309285309864208e-05,-2.3557706299470738e-05,4.79518057545647e-05
3.6869871109956875e-05,-5.8014611568069085e-05,-0.00026700040325522423,3.250601366744377e-05,-1.7848355128080584e-05,5.4627435019938275e-05
1.76263929461129e-05,-5.968888581264764e-05,-0.00019886397058144212,3.071296669077128e-05,-1.4866107449051924e-05,5.032472836319357e-05
1.2540258467197418e-05,-6.040934022166766e-05,-0.00011638393334578723,2.4291548470500857e-05,-1.3070342902210541e-05,4.5348977437242866e-05
3.331534389872104e-05,-6.663589738309383e-05,-5.294495167618152e-06,2.0001729353680275e-05,-8.222801625379361e-06,4.9940885219257325e-05
6.782643322367221e-05,-7.096329500200227e-05,6.392757495632395e-05,1.1045212886529043e-05,-2.6239051749143982e-06,6.115302676334977e-05
9.675871842773631e-05,-7.257870311150327e-05,8.117387187667191e-05,-5.2908521865902e-06,3.6213165799381386e-07,6.597215542569757e-05
0.0001083656243281439,-7.64634387451224e-05,4.6486959035973996e-05,-1.2566659279400483e-05,-2.6155205432587536e-06,6.680400838376954e-05
9.484359179623425e-05,-8.552845974918455e-05,1.483425876358524e-05,3.7530710415012436e-06,-1.0017740351031534e-05,6.623302033403888e-05
6.003909948049113e-05,-9.329767635790631e-05,1.2729806257993914e-06,2.8001759346807376e-05,-1.843043719418347e-05,6.492724787676707e-05
2.389440851402469e-05,-9.298406803281978e-05,1.6572239474044181e-06,3.423455564188771e-05,-2.3016136765363626e-05,6.651092553511262e-05
-3.014703509052197e-08,-8.233077096519992e-05,3.380511770956218e-05,2.716767085075844e-05,-2.156727532565128e-05,7.138772343751043e-05
-4.599791282089427e-06,-6.596915773116052e-05,5.3055253374623135e-05,2.328256596229039e-05,-1.6276624592137523e-05,8.052722114371136e-05
9.844148735282943e-06,-5.1679988246178254e-05,-4.896042355539976e-06,2.311751632078085e-05,-1.2425032764440402e-05,8.257829904323444e-05
2.6876577976508997e-05,-4.012688441434875e-05,-9.706475248094648e-05,2.0343333744676784e-05,-1.295385754929157e-05,6.461030716309324e-05
3.01013387797866e-05,-2.556319122959394e-05,-0.00011106894089607522,1.8004118828685023e-05,-1.4920790817996021e-05,3.955598367610946e-05
2.2775418983655982e-05,-9.913423127727583e-06,-6.137810123618692e-05,1.663992770772893e-05,-1.7859721992863342e-05,2.7927084374823608e-05
1.8670672943699174e-05,-1.583674929861445e-06,-7.343803645198932e-06,1.2510009582911152e-05,-2.266267802042421e-05,3.2386367820436135e-05
1.715995676931925e-05,-3.809285772149451e-06,3.0076444090809673e-05,1.133566092903493e-05,-2.9002127121202648e-05,4.2057708924403414e-05
1.2630823221115861e-05,-1.3893240975448862e-05,6.676976045127958e-05,2.3882257664809003e-05,-3.161963832098991e-05,4.223337600706145e-05
8.625012924312614e-06,-2.500949085515458e-05,9.404707816429436e-05,4.6701250539626926e-05,-2.7721562219085172e-05,3.835173265542835e-05
8.884708222467452e-06,-3.0449496989604086e-05,9.927225619321689e-05,6.890150689287111e-05,-2.0602965378202498e-05,4.762254684465006e-05
1.135987895395374e-05,-3.6036220990354195e-05,7.290219218702987e-05,8.252697443822399e-05,-1.7086549632949755e-05,6.27804547548294e-05
1.7239011867786758e-05,-5.380372022045776e-05,4.568337681121193e-05,8.264090865850449e-05,-1.969231743714772e-05,7.317552081076428e-05
2.70575110334903e-05,-7.579825614811853e-05,2.7740856239688583e-05,7.013564754743129e-05,-2.2227804947760887e-05,6.755984213668853e-05
3.209314672858454e-05,-8.056314254645258e-05,1.618226815480739e-05,5.2697421779157594e-05,-2.1263223970890976e-05,4.4490523578133434e-05
2.703619065869134e-05,-6.902994209667668e-05,1.7952525013242848e-05,3.898999057128094e-05,-1.4805515093030408e-05,2.700797631405294e-05
1.7137062968686223e-05,-5.5577620514668524e-05,3.1019746529636905e-05,3.50694936059881e-05,1.4713293694512686e-06,4.562634421745315e-05
8.66986192704644e-06,-5.204911940381862e-05,4.5942670112708583e-05,3.9823560655349866e-05,9.323121048510075e-06,7.434249710058793e-05
5.911181233386742e-06,-5.485246219905093e-05,7.889904372859746e-05,4.481977521209046e-05,1.4451649121838273e-06,7.409009413095191e-05
8.56624319567345e-06,-5.426673305919394e-05,0.0001268547202926129,4.4890472054248676e-05,-4.391280072013615e-06,6.441755249397829e-05
1.0630042197590228e-05,-5.1522911235224456e-05,0.00016280205454677343,4.4024785893270746e-05,8.420940957876155e-07,6.001142901368439e-05
8.579266250308137e-06,-5.141752626514062e-05,0.00017208518693223596,4.169561361777596e-05,1.3042613318248186e-05,6.271292659221217e-05
2.81927577816532e-06,-5.297207462717779e-05,0.00013746136392001063,3.2507690775673836e-05,2.3575392333441414e-05,6.53149327263236e-05
-6.580684384971391e-06,-5.458703526528552e-05,4.314703255658969e-05,2.17820743273478e-05,2.5944755179807544e-05,6.850391946500167e-05
-2.315667734364979e-05,-6.265749107114971e-05,-4.3515945435501635e-05,1.711011464067269e-05,1.962479109351989e-05,7.046385144349188e-05
-5.053467975812964e-05,-7.434870349243283e-05,-3.9349106373265386e-05,1.3801693057757802e-05,9.232696356775705e-06,7.008016109466553e-05
-7.801139145158231e-05,-7.95707237557508e-05,2.090648740704637e-05,7.225185527204303e-06,-5.670708105753874e-06,7.075048779370263e-05
-8.058019011514261e-05,-7.03918412909843e-05,7.721104338997975e-05,9.3419413360607e-07,-1.8873806766350754e-05,6.704043335048482e-05
-4.9581551138544455e-05,-5.0819904572563246e-05,0.00010022949572885409,-7.655166882614139e-07,-2.0480458260863088e-05,6.35877950116992e-05
3.7836682622582885e-06,-3.3708271075738594e-05,0.00010260147973895073,7.375917448371183e-06,-9.474277248955332e-06,6.624561501666903e-05
5.719740875065327e-05,-2.645645145094022e-05,0.00010170690075028688,2.040819890680723e-05,2.8801280222978676e-06,7.004493090789765e-05
0.00010135675256606191,-3.08644121105317e-05,0.00010336672858102247,2.5395282136742026e-05,5.3801018111698795e-06,6.281977402977645e-05
0.00013889359252061695,-4.5674289140151814e-05,8.406591950915754e-05,2.0969198885723017e-05,7.476184116228524e-09,5.379611684475094e-05
0.0001581934920977801,-5.675992360920645e-05,3.5840705095324665e-05,1.5499885194003582e-05,-3.2541120162932202e-06,5.8557379816193134e-05
0.00014087682939134538,-5.612412860500626e-05,-8.428013643424492e-06,1.219042042066576e-05,-2.1308364921424072e-06,7.035031012492254e-05
9.05040287761949e-05,-4.840119800064713e-05,-9.296034477301873e-06,8.938341125031002e-06,-1.174709495899151e-06,7.590435416204855e-05
3.838804332190193e-05,-3.6906396417180076e-05,1.7275309801334515e-05,6.687091172352666e-06,-8.581006341046304e-07,8.418334618909284e-05
1.7134880181401968e-05,-2.7226231395616196e-05,2.5011740945046768e-05,8.49194111651741e-06,-2.0935165139235323e-06,9.587871318217367e-05
2.973246773763094e-05,-2.7111131203128025e-05,-1.930432745211874e-06,1.0263257536280435e-05,-5.9293429330864456e-06,9.466040501138195e-05
4.7835706936893985e-05,-2.8532958822324872e-05,-3.113875209237449e-05,1.0326040865038522e-05,-8.117980542010628e-06,7.180983811849728e-05
5.4387222917284817e-05,-1.533262911834754e-05,-3.5336292057763785e-05,1.8688831914914772e-05,-1.936709168148809e-06,4.627869566320442e-05
4.605340654961765e-05,-8.074896413745591e-07,-8.940897714637686e-06,3.1453171686735004e-05,6.755692993465345e-06,4.377504956210032e-05
2.9728867957601324e-05,-6.170386768644676e-06,4.791012906935066e-05,3.5387580282986164e-05,8.554000487492885e-06,5.256482836557552e-05
1.6597099602222443e-05,-3.200796345481649e-05,0.00010908664989983663,3.541636033332907e-05,7.67697474657325e-06,5.833237446495332e-05
-4.5438873712555505e-06,-6.551824480993673e-05,0.00010807357466546819,3.379036206752062e-05,4.443022589839529e-06,5.6329212384298444e-05
-3.542213744367473e-05,-9.338212112197652e-05,3.020110852958169e-05,3.045853736693971e-05,-7.844074048080074e-07,5.472688644658774e-05
-6.595473678316921e-05,-9.961648174794391e-05,-2.9950106181786396e-05,2.8434133128030226e-05,-9.390541890752502e-07,6.461412704084069e-05
-9.762117406353354e-05,-9.660320210969076e-05,3.838095290120691e-05,2.470889921823982e-05,-5.653153039020253e-06,6.986773951211944e-05
-0.00011395543697290123,-0.00011837446072604507,0.00027862106799148023,1.5956718925735913e-05,-1.873119799711276e-05,5.1654395065270364e-05
-9.335937647847459e-05,-0.0001385091309202835,0.0005501502892002463,1.1863970939884894e-05,-2.4535453121643513e-05,3.358502362971194e-05
-3.52176975866314e-05,-0.00011000053200405091,0.0006694741314277053,2.3158943804446608e-05,-1.6502157450304367e-05,5.2076848078286275e-05
3.6362569517223164e-05,-6.189355917740613e-05,0.0005791489384137094,3.09861425193958e-05,-3.7408237858471693e-06,8.292630809592083e-05
8.698578312760219e-05,-4.020680353278294e-05,0.0003076195134781301,1.8261347577208653e-05,-2.2579688447876833e-06,8.926829468691722e-05
0.00010468943219166249,-4.042407817905769e-05,-8.6953878053464e-05,-9.724460142024327e-06,-1.6778330973465927e-05,7.271376671269536e-05
0.00010764382022898644,-4.300065484130755e-05,-0.0004290793731343001,-2.1238978661131114e-05,-3.132575147901662e-05,5.557686017709784e-05
0.00010425807704450563,-4.424710277817212e-05,-0.0005163998575881124,6.164462320157327e-06,-3.0459166737273335e-05,4.9059875891543925e-05
8.987494220491499e-05,-4.5341661461861804e-05,-0.00035114772617816925,5.337332549970597e-05,-1.7050695532816462e-05,5.0111710152123123e-05
6.426063919207081e-05,-3.6175133573124185e-05,-0.00010512277367524803,8.411978342337534e-05,-6.166696948639583e-06,5.014482667320408e-05
3.633516462286934e-05,-1.230593079526443e-05,5.5767068261047825e-05,8.377340418519452e-05,-4.686753527494147e-06,4.441528290044516e-05
1.8012657164945267e-05,1.0035751984105445e-05,7.570386514998972e-05,6.534012936754152e-05,-8.670377610542346e-06,3.618614573497325e-05
1.3028152352489997e-05,2.052867966995109e-05,-4.446764069143683e-05,4.136481584282592e-05,-1.3957656847196631e-05,3.013629793713335e-05
1.684657581790816e-05,3.1567516998620704e-05,-0.00021451977954711765,2.48887427005684e-05,-1.5316287317546085e-05,3.359681068104692e-05
1.8848100808099844e-05,5.144476017449051e-05,-0.0002873243356589228,2.0427694835234433e-05,-1.0421626029710751e-05,4.081864972249605e-05
1.2870670616393909e-05,7.104410178726539e-05,-0.00022993306629359722,1.8717919374466874e-05,-3.0384796900762012e-06,4.6501732867909595e-05
-1.3618846139706875e-07,8.331256685778499e-05,-0.00015178501780610532,1.246578358404804e-05,-1.1870035905303666e-06,4.9883245083037764e-05
-1.2741095815727022e-05,7.959827780723572e-05,-0.00013299896090757102,5.815541953779757e-06,-1.1748178621928673e-05,4.46884187113028e-05
-1.6975352991721593e-05,4.84572010464035e-05,-0.000124434067402035,1.3292825315147638e-05,-2.5430734240217134e-05,3.6046778404852375e-05
-1.4101297892921139e-05,6.927945833012927e-06,-6.652151932939887e-05,3.610149724408984e-05,-3.120155815850012e-05,3.410315184737556e-05
-9.522034815745428e-06,-2.1277834093780257e-05,5.030592546972912e-06,5.34782484464813e-05,-2.9575590815511532e-05,4.167262522969395e-05
-2.481311582869239e-07,-3.038865907001309e-05,5.302602949086577e-05,5.733206126024015e-05,-2.0468669390538707e-05,6.965596548980102e-05
1.2938269719597884e-05,-3.495227065286599e-05,8.362362132174894e-05,5.484643406816758e-05,-1.0867453056562226e-05,0.00010054338781628758
1.868094113888219e-05,-4.8343270464101806e-05,9.498871077084914e-05,4.630276816897094e-05,-1.0566311175352894e-05,0.00010140621452592313
1.3340174518816639e-05,-6.688882422167808e-05,7.876544259488583e-05,3.352600469952449e-05,-9.890313776850235e-06,8.877783693606034e-05
3.3505111218801176e-07,-7.961277879076079e-05,4.618611637852155e-05,2.9889517463743687e-05,-3.6683318285213318e-06,8.546283061150461e-05
-2.8859287340310402e-05,-8.597166743129492e-05,1.765400156727992e-05,3.157295941491611e-05,1.8582092025098973e-06,7.745548646198586e-05
-6.43004386802204e-05,-9.18491423362866e-05,1.7112619389081374e-05,2.623524414957501e-05,1.6234539543802384e-06,7.225390436360613e-05
-8.577599510317668e-05,-9.450967627344653e-05,4.799374801223166e-05,1.4139549421088304e-05,-5.544988198380452e-06,8.377579069929197e-05
-8.067033922998235e-05,-9.979337482945994e-05,7.248809561133385e-05,6.233196018001763e-06,-1.0361789463786408e-05,0.00010028161341324449
-5.49085671082139e-05,-0.00010344134352635592,7.665316661586985e-05,6.613166533497861e-06,-1.3690215382666793e-05,9.859767305897549e-05
-1.8240894860355183e-05,-0.00010190943430643529,7.094642205629498e-05,1.1203856956853997e-05,-1.9986528059234843e-05,5.746992974309251e-05
3.534894494805485e-05,-9.251306619262323e-05,6.26637483946979e-05,2.045715336862486e-05,-2.823749673552811e-05,7.2081893449649215e-06
0.00010481552453711629,-7.903789082774892e-05,2.642247090989258e-05,3.515549542498775e-05,-2.8492040655692108e-05,1.442756797587208e-06
0.0001586594880791381,-7.144779374357313e-05,-3.537114753271453e-05,5.083967334940098e-05,-1.934971623995807e-05,2.9834007364115678e-05
0.000150953303091228,-7.112128514563665e-05,-6.368180038407445e-05,5.8284855185775086e-05,-1.2958701518073212e-05,4.748530045617372e-05
9.290145681006834e-05,-7.162221299950033e-05,-2.94549190584803e-05,5.551127469516359e-05,-1.4405160982278176e-05,4.526190969045274e-05
4.15137255913578e-05,-7.113211904652417e-05,4.2166811908828095e-05,4.652998541132547e-05,-1.5582205378450453e-05,4.12805202358868e-05
2.692471389309503e-05,-7.821727922419086e-05,0.00010655642836354673,3.4478285670047626e-05,-1.4237372852221597e-05,4.189332321402617e-05
3.335373548907228e-05,-9.251584560843185e-05,0.00014181197911966592,2.0358504116302356e-05,-1.590924512129277e-05,4.136454299441539e-05
4.102843377040699e-05,-0.00010348462092224509,0.00015503037138842046,1.244321720150765e-05,-1.9205064745619893e-05,4.525596523308195e-05
4.594138226821087e-05,-0.00010280498099746183,0.00015874086238909513,1.659169720369391e-05,-1.883886034192983e-05,5.974945452180691e-05
5.366436380427331e-05,-9.641005453886464e-05,0.00015394201909657568,2.5136961994576268e-05,-1.2963160770596005e-05,7.604788697790354e-05
5.7127286709146574e-05,-8.818447531666607e-05,0.00014198830467648804,3.1352625228464603e-05,-5.760798103437992e-06,7.954001921461895e-05
4.504524986259639e-05,-7.645310688531026e-05,0.00013399575254879892,3.679198198369704e-05,4.98790939218452e-07,7.190858741523698e-05
3.513619594741613e-05,-6.451313674915582e-05,0.00013817602302879095,3.891928281518631e-05,3.1950485208653845e-06,6.327100709313527e-05
5.0773272960213944e-05,-6.638299237238243e-05,0.00014747177192475647,3.6040088161826134e-05,4.978488050255692e-06,5.9653029893524945e-05
7.306419138330966e-05,-7.144771370803937e-05,0.00012765737483277917,2.4796447178232484e-05,9.011690963234287e-06,6.603021756745875e-05
7.141128298826516e-05,-6.376073724823073e-05,5.23204798810184e-05,1.115660143113928e-05,1.4103279681876302e-05,7.15164715074934e-05
4.72767096653115e-05,-5.475422949530184e-05,-3.088339508394711e-05,6.323406978481216e-06,1.4713850760017522e-05,6.25522225163877e-05
1.8360145986662246e-05,-5.7110148190986365e-05,-5.3086663683643565e-05,1.4162696061248425e-05,1.2544280252768658e-05,5.35634535481222e-05
-2.9877214728912804e-06,-6.566798401763663e-05,-6.229619611985981e-05,2.5578010536264628e-05,8.39623771753395e-06,5.0512535381130874e-05
-1.113425605581142e-05,-7.249352347571403e-05,-0.00011209072545170784,3.0448865800281055e-05,-3.0497399166051764e-06,4.522705057752319e-05
4.236296717863297e-07,-7.446934614563361e-05,-0.0001410680852131918,3.2857267797226086e-05,-1.4840246876701713e-05,4.6518696763087064e-05
2.0840549041167833e-05,-6.314906204352155e-05,-0.00010254774679196998,3.349612597958185e-05,-1.92483130376786e-05,5.8959994930773973e-05
3.351228224346414e-05,-4.5338907511904836e-05,-3.6506058677332476e-05,3.312011540401727e-05,-1.7778538676793687e-05,6.7774613853544e-05
3.866845145239495e-05,-3.0588347726734355e-05,7.089987775543705e-06,3.222440864192322e-05,-1.3842527550878003e-05,6.584241782547906e-05
5.122585207573138e-05,-1.9392071408219635e-05,2.3442944439011626e-05,2.923716419900302e-05,-1.5166105185926426e-05,5.967308607068844e-05
6.76629351801239e-05,-1.0886233212659135e-05,4.778059519594535e-05,2.219654925283976e-05,-2.0074134226888418e-05,5.121982758282684e-05
6.52006347081624e-05,-6.289920293056639e-06,0.00011024412378901616,1.648315810598433e-05,-2.247424163215328e-05,4.021486529381946e-05
4.220733171678148e-05,-1.0077467777591664e-05,0.000188092453754507,1.687528310867492e-05,-2.2229296519071795e-05,3.5217082768213004e-05
2.1221287170192227e-05,-2.2895097572472878e-05,0.00023549937759526074,2.0365025193314068e-05,-1.8181061022914946e-05,3.432793891988695e-05
1.4286494661064353e-05,-4.0204347897088155e-05,0.0002196207788074389,2.5498424292891286e-05,-1.0990413102263119e-05,3.3781372621888295e-05
1.3282121472002473e-05,-5.204026820138097e-05,0.0001290974032599479,3.162837674608454e-05,-4.202023774269037e-06,4.235941014485434e-05
1.0057459803647362e-05,-5.6119184591807425e-05,7.273494247783674e-06,3.546641892171465e-05,-5.496677658811677e-06,5.8776411606231704e-05
7.196030310296919e-06,-5.717512613045983e-05,-4.749791696667671e-05,3.4881351894000545e-05,-1.409321885148529e-05,6.863143789814785e-05
1.0440910955367144e-05,-5.655206405208446e-05,-1.2376473023323342e-05,3.129312608507462e-05,-1.8658545741345733e-05,7.047296821838245e-05
2.0902951291645877e-05,-5.1715876907110214e-05,2.337529258511495e-05,2.338264494028408e-05,-1.6033756764954887e-05,7.191456097643822e-05
3.229569847462699e-05,-4.689428533311002e-05,-5.872524980077287e-06,7.676960194658022e-06,-2.1975643903715536e-05,6.706547719659284e-05
3.2576030207565054e-05,-4.9537244194652885e-05,-4.1900555515894666e-05,-8.032148798520211e-06,-3.998380998382345e-05,5.874228372704238e-05
2.0583722289302386e-05,-6.0580510762520134e-05,-1.7737058442435227e-05,-2.955099716928089e-06,-4.9025187763618305e-05,5.9150879678782076e-05
8.19752585812239e-06,-7.22615368431434e-05,2.2224443455343135e-05,2.6534647986409254e-05,-3.483377076918259e-05,6.596702587557957e-05
6.643864253419451e-06,-8.101895218715072e-05,3.227845809306018e-05,5.880617391085252e-05,-5.296970812196378e-06,7.112215826055035e-05
1.4791306966799311e-05,-9.113494161283597e-05,3.417876359890215e-05,7.194626232376322e-05,2.017385486396961e-05,7.517185440519825e-05
2.2819876903668046e-05,-9.934650734066963e-05,3.742933040484786e-05,6.381635466823354e-05,3.514407217153348e-05,8.048796007642522e-05
2.283234971400816e-05,-0.00010531282896408811,3.992540223407559e-05,5.2527047955663875e-05,4.188079765299335e-05,8.625163172837347e-05
1.1292327144474257e-05,-0.0001043874945025891,5.700235487893224e-05,4.5294127630768344e-05,4.08901360060554e-05,9.122138726525009e-05
-4.8570714170637075e-06,-9.48841407080181e-05,7.27373335394077e-05,3.221114457119256e-05,3.0982981115812436e-05,7.984061812749133e-05
-1.4264739547797944e-05,-7.490454299841076e-05,7.685343734920025e-05,1.814539427869022e-05,1.4033377738087438e-05,5.098156179883517e-05
-1.2451109796529636e-05,-4.558219006867148e-05,6.27668559900485e-05,2.0610699721146375e-05,-1.5088738791746437e-06,3.3969521609833464e-05
3.567794806258462e-07,-2.534928535169456e-05,3.09768583974801e-05,3.4915814467240125e-05,-1.0909957381954882e-05,3.885817204718478e-05
2.0976109226467088e-05,-1.6350521036656573e-05,2.6706187782110646e-05,4.0205060940934345e-05,-1.3933753507444635e-05,5.493032585945912e-05
4.544019611785188e-05,-3.216320465071476e-06,6.284845585469157e-05,3.752388511202298e-05,-1.2916312698507681e-05,6.712066533509642e-05
6.822330760769546e-05,1.663911280047614e-05,9.174800652544945e-05,3.9164973713923246e-05,-5.5291357057285495e-06,7.992851897142828e-05
7.650438055861741e-05,2.635683267726563e-05,7.711358193773776e-05,4.4251773942960426e-05,6.67066206005984e-06,9.016466356115416e-05
5.368674101191573e-05,1.0828936865436845e-05,3.564867074601352e-05,4.4303265894996e-05,9.513262739346828e-06,8.134522067848593e-05
1.92360021173954e-05,-2.34023027587682e-05,-1.3553145436162595e-05,3.774105425691232e-05,-2.1809762529301224e-06,5.9910027630394325e-05
-1.215597080772568e-06,-5.170744043425657e-05,-4.552567406790331e-05,3.096532964264043e-05,-1.4968230971135199e-05,4.65531884401571e-05
-6.278796718106605e-06,-6.216823385329917e-05,-2.8318852855591103e-05,2.7682237487169914e-05,-2.1103636754560284e-05,4.83079238620121e-05
-5.226063422014704e-06,-6.0523805586853996e-05,2.1287354684318416e-05,2.7663001674227417e-05,-2.5921579435816966e-05,5.639789014821872e-05
-5.283488007989945e-06,-5.229973976383917e-05,2.6413905288791284e-05,3.12161682813894e-05,-3.305284189991653e-05,6.517555448226631e-05
-4.209668077237438e-06,-4.540443842415698e-05,-3.9397578802891076e-05,3.867351188091561e-05,-3.670801015687175e-05,7.062429358484223e-05
4.8114225137396716e-06,-4.316975537221879e-05,-8.092071948340163e-05,4.455341331777163e-05,-3.434418249526061e-05,7.510352588724345e-05
2.1383626517490484e-05,-3.468082286417484e-05,-3.2410000130767e-05,4.687352338805795e-05,-2.9855869797756895e-05,8.343560330104083e-05
3.546413063304499e-05,-8.96620622370392e-06,4.123210601392202e-05,4.747710408992134e-05,-2.6522506232140586e-05,9.26095453905873e-05
4.625209840014577e-05,1.9702896679518744e-05,5.9672216593753546e-05,4.318337232689373e-05,-2.5702051061671227e-05,8.848941797623411e-05
6.0554477386176586e-05,2.6259789592586458e-05,3.897065107594244e-05,3.6420085962163284e-05,-2.3465485355700366e-05,7.45539873605594e-05
7.472352444892749e-05,1.1764168448280543e-05,3.327191370772198e-05,3.391302016098052e-05,-1.8972685211338103e-05,6.502333417301998e-05
7.231629570014775e-05,-4.929529950459255e-06,5.214875636738725e-05,3.157512765028514e-05,-1.5831212294870056e-05,5.1502946007531136e-05
5.714868166251108e-05,-1.6561780284973793e-05,6.790662882849574e-05,2.9569606340373866e-05,-1.0137493518413976e-05,3.502463368931785e-05
5.0951650337083265e-05,-2.986465915455483e-05,6.850113277323544e-05,3.0272653020801954e-05,6.894680382174556e-07,3.988816752098501e-05
5.714218059438281e-05,-4.837754022446461e-05,4.419433025759645e-05,2.78066818282241e-05,5.432942089100834e-06,6.449550710385665e-05
6.043818575562909e-05,-6.266527634579688e-05,-3.26452573062852e-05,2.2297985196928494e-05,3.3126190146504086e-07,8.56167171150446e-05
5.754171434091404e-05,-6.611321441596374e-05,-9.231393778463826e-05,1.6532110748812556e-05,-6.648447197221685e-06,9.521962056169286e-05
5.141756992088631e-05,-6.41591614112258e-05,-3.0105284167802893e-05,9.397997018822934e-06,-1.0431745977257378e-05,9.079818846657872e-05
4.179388997727074e-05,-6.865010800538585e-05,6.82895552017726e-05,-4.141166755289305e-06,-1.4859906514175236e-05,6.646815745625645e-05
2.896891783166211e-05,-7.781779277138412e-05,0.00013477580796461552,-1.3657315321324859e-05,-1.9247603631811216e-05,3.2990301406243816e-05
2.053159914794378e-05,-7.799857849022374e-05,0.00019584872643463314,-2.266245701321168e-06,-1.6904939911910333e-05,8.290703590319026e-06
2.4891345674404874e-05,-6.673966709058732e-05,0.00022458548482973129,1.563077421451453e-05,-8.159199751389679e-06,7.109499165380839e-06
3.80360143026337e-05,-5.5623204389121383e-05,0.00020766018133144826,2.3209451683214866e-05,-4.529829880084435e-07,2.369912908761762e-05
4.288321724743582e-05,-5.5513963161502033e-05,0.00015959094162099063,2.0314237190177664e-05,2.878538907680195e-06,3.664626638055779e-05
3.646711047622375e-05,-6.46519911242649e-05,0.00011718882160494104,1.6172733012354e-05,6.2001868172956165e-06,4.876713501289487e-05
2.9871855076635256e-05,-7.303313032025471e-05,7.074270251905546e-05,1.9087923647020943e-05,1.0892199497902766e-05,6.791062332922593e-05
3.124857903458178e-05,-7.827581430319697e-05,4.9810401833383366e-05,3.0170425816322677e-05,1.3902323189540766e-05,8.768071711529046e-05
3.750521136680618e-05,-8.285447984235361e-05,0.00011695181456161663,4.616145815816708e-05,1.507786782894982e-05,0.00010041298810392618
3.7958918255753815e-05,-8.5742402006872e-05,0.00022165868722368032,5.231357863522135e-05,1.4388764611794613e-05,9.865907486528158e-05
3.0588260415242985e-05,-8.674318814883009e-05,0.00024672228028066456,4.30911713920068e-05,5.712890470022103e-06,8.020658424356952e-05
1.989016163861379e-05,-9.069935913430527e-05,7.603117410326377e-05,2.1852536519872956e-05,-1.28460942505626e-05,4.9848968046717346e-05
1.0735622709034942e-05,-9.737180516822264e-05,-0.0002457474765833467,7.475616712326882e-06,-3.253134127589874e-05,1.7476613720646128e-05
1.5847621170905768e-06,-9.564088395563886e-05,-0.0004599775420501828,1.9650044123409316e-05,-4.2175553971901536e-05,4.447041646926664e-06
-7.286842901521595e-06,-8.025074930628762e-05,-0.00039507256587967277,4.909974450129084e-05,-3.975183062721044e-05,1.96360306290444e-05
-1.0613445738272276e-05,-5.971602877252735e-05,-0.0001837609161157161,6.698448851238936e-05,-3.067743091378361e-05,4.148188600083813e-05
-5.042131306254305e-06,-4.493354936130345e-05,-3.326124351588078e-05,5.989683631923981e-05,-2.434223824820947e-05,4.797849032911472e-05
5.063559456175426e-06,-3.7490357499336824e-05,1.0619028216751758e-05,3.8180627598194405e-05,-2.3711472749710083e-05,3.7664129195036367e-05
1.3137481801095419e-05,-3.5324446798767895e-05,6.1791511143383104e-06,1.8243070371681824e-05,-2.443747507641092e-05,1.510358379164245e-05
1.7671505702310242e-05,-3.315956564620137e-05,-2.0977370240871096e-06,4.6634381760668475e-06,-2.3395983589580283e-05,-4.2799247239599936e-06
2.1373116396716796e-05,-2.0022725948365405e-05,1.1871438800881151e-06,1.655900859987014e-06,-1.6921294445637614e-05,8.284758223453537e-06
1.700058055575937e-05,6.878072781546507e-06,1.8556826034910046e-05,1.3813015357300173e-05,-1.0750874935183674e-05,4.7946050472091883e-05
-7.097287948454323e-07,2.5027977244462818e-05,4.5216645958134905e-05,2.2043346689315513e-05,-1.2096929822291713e-05,7.75139415054582e-05
-2.465041688992642e-05,1.3447999663185328e-05,7.597258081659675e-05,1.6954569218796678e-05,-1.3322691302164458e-05,8.286326919915155e-05
-4.90762286062818e-05,-1.964434704859741e-05,0.00010022880451288074,1.3385353668127209e-05,-1.2322424481681082e-05,7.513121090596542e-05
-6.20815044385381e-05,-4.0957427700050175e-05,0.00011487390293041244,1.6017369489418343e-05,-1.0843307791219559e-05,7.067702972562984e-05
-5.515964949154295e-05,-4.13073503295891e-05,0.00010793485853355378,1.3987641068524681e-05,-5.594158665189752e-06,7.023741636658087e-05
-4.001124034402892e-05,-4.174828791292384e-05,4.9867194320540875e-05,1.1613693459366914e-05,1.004390810521727e-06,7.36827714717947e-05
-2.4635697627672926e-05,-5.117724504088983e-05,-3.3970420190598816e-05,1.7584823581273668e-05,4.667022494686535e-06,7.412781269522384e-05
-1.3139494967617793e-06,-6.4581043261569e-05,-2.761604991974309e-05,2.5129480491159484e-05,3.3225880997633794e-06,6.022401066729799e-05
3.172775905113667e-05,-7.796390127623454e-05,8.388946298509836e-05,2.379817124165129e-05,1.0068644087368739e-06,4.294926839065738e-05
5.250766116660088e-05,-8.957343379734084e-05,0.00015217978216242045,1.630589395062998e-05,1.5670602806494571e-06,4.135062772547826e-05
4.81094466522336e-05,-9.797645907383412e-05,9.096830035559833e-05,1.0775331247714348e-05,1.275478894058324e-06,5.535621676244773e-05
3.104537245235406e-05,-0.0001043372176354751,-3.875022230204195e-05,1.1930718756048009e-05,-6.941638275748119e-06,7.059447671053931e-05
1.3502914043783676e-05,-0.0001167152586276643,-0.00014293442654889077,1.801029429771006e-05,-1.5601637642248534e-05,8.190160588128492e-05
-6.728360858687665e-06,-0.000135189009597525,-0.00015178827743511647,2.82476485153893e-05,-1.753445394570008e-05,8.043814887059852e-05
-3.0778708605794236e-05,-0.0001378236775053665,-6.699581717839465e-05,3.894408655469306e-05,-1.8139406165573746e-05,6.0763704823330045e-05
-4.8970374336931854e-05,-0.00011525592708494514,2.3965967557160184e-05,3.857751653413288e-05,-2.280721309944056e-05,3.478434882708825e-05
-6.023366586305201e-05,-7.675305096199736e-05,5.387829151004553e-05,2.5517723770462908e-05,-3.167082104482688e-05,2.5265557269449346e-05
-6.885292532388121e-05,-3.333618224132806e-05,1.99990226974478e-05,2.198083711846266e-05,-3.616432150010951e-05,3.758279126486741e-05
-6.918816507095471e-05,6.285397830652073e-06,-2.8358077543089166e-05,3.763655331567861e-05,-3.142583227599971e-05,5.276059891912155e-05
-5.5621625506319106e-05,2.826623313012533e-05,-4.3351828935556114e-05,5.040371252107434e-05,-2.254484388686251e-05,5.1718867325689644e-05
-2.6253237592754886e-05,3.106478834524751e-05,-6.137053333077347e-06,4.718199488706887e-05,-1.2678119674092159e-05,4.538443317869678e-05
1.5457699191756546e-05,2.8791393560823053e-05,6.974943971727043e-05,3.68023756891489e-05,-1.7709531903165043e-06,5.116191823617555e-05
5.191907621338032e-05,3.0266668545664288e-05,0.0001689271884970367,3.135948281851597e-05,6.662750820396468e-06,6.76763811497949e-05
6.980360922170803e-05,3.550598194124177e-05,0.0002772904117591679,3.901090531144291e-05,1.2440406862879172e-05,8.574910316383466e-05
7.431230187648907e-05,4.080240978510119e-05,0.00033175188582390547,4.9789538024924695e-05,1.3521174878405873e-05,9.345587022835389e-05
7.946832192828879e-05,3.912223837687634e-05,0.0002671637630555779,4.2894585931207985e-05,7.758061656204518e-06,9.029589273268357e-05
7.886345701990649e-05,1.6675223378115334e-05,0.0001277423434657976,2.7560665330383927e-05,-8.323584552272223e-06,8.454490307485685e-05
6.607778050238267e-05,-2.137892624887172e-05,3.2918374927248806e-05,2.1766660211142153e-05,-2.4591165129095316e-05,7.447793177561834e-05
5.806566696264781e-05,-5.402326860348694e-05,8.831431841826998e-06,2.3115557269193232e-05,-2.8807789931306615e-05,5.521999628399499e-05
6.038496576366015e-05,-9.195612074108794e-05,8.336686732945964e-06,2.4351522370125167e-05,-2.5182427634717897e-05,3.630976061685942e-05
6.163018406368792e-05,-0.00013236163067631423,-4.820834510610439e-05,3.0167193472152576e-05,-1.5922858437988907e-05,3.820537313004024e-05
4.529464422375895e-05,-0.0001519119250588119,-0.00011479476961540058,3.851264773402363e-05,-7.492576969525544e-06,5.6410430261166766e-05
-4.423921780016826e-07,-0.0001520409423392266,-8.519390394212678e-05,3.8911417505005375e-05,-8.609929864178412e-06,6.581957131857052e-05
-4.563721449812874e-05,-0.00013972382294014096,-2.0145644157310016e-05,3.493884651106782e-05,-1.3242582099337596e-05,6.776731606805697e-05
-5.769167546532117e-05,-0.00012529973173514009,2.37352323892992e-05,3.634333916124888e-05,-1.1992523468506988e-05,6.897227285662666e-05
-4.537036511464976e-05,-0.0001049167403834872,4.007821553386748e-05,3.682002716232091e-05,-8.881230314727873e-06,6.979447789490223e-05
-2.6048250219901092e-05,-7.205214205896482e-05,7.735736289760098e-05,3.280791133875027e-05,-4.164800884609576e-06,6.812097853980958e-05
-4.713229827757459e-06,-2.3952690753503703e-05,0.00013697013491764665,3.480523810139857e-05,-1.771752977219876e-06,5.9078101912746206e-05
2.9544202334363945e-05,2.8607677450054325e-05,0.00014841453230474144,4.6372191718546674e-05,-4.490206720220158e-06,4.04594793508295e-05
7.822987390682101e-05,6.111338007031009e-05,9.821857383940369e-05,5.839422010467388e-05,-7.858029675844591e-06,2.1714407921535894e-05
0.00012047348718624562,6.26514374744147e-05,4.026620808872394e-05,6.279030640143901e-05,-5.0291500883759e-06,2.0442332242964767e-05
0.0001281583245145157,4.7277302655857056e-05,-2.7979009246337228e-05,5.654496999341063e-05,2.6650466224964475e-06,3.565858423826285e-05
9.781050903256983e-05,3.116584775852971e-05,-0.0001307557540712878,4.457712566363625e-05,5.221689661993878e-06,5.321282151271589e-05
5.285597944748588e-05,1.282579523831373e-05,-0.0001665973977651447,3.43621322826948e-05,1.7968227439268958e-06,6.577806925633922e-05
1.8851185814128257e-05,-1.3397297152550891e-05,-7.597408693982288e-05,2.490220322215464e-05,-1.0564386911937618e-06,7.487509719794616e-05
8.991887625597883e-06,-4.468360202736221e-05,4.2459749238332734e-05,1.6297646652674302e-05,-1.4511466872590972e-07,7.502345397369936e-05
1.8457936675986275e-05,-6.938333535799757e-05,7.620584801770747e-05,1.0130316695722286e-05,-3.0650548978883307e-06,6.0529535403475165e-05
3.1161278457148e-05,-7.744654431007802e-05,3.327534795971587e-05,7.96336644270923e-06,-1.1949377949349582e-05,4.489186540013179e-05
3.194366945535876e-05,-6.52532180538401e-05,-2.773563755908981e-05,9.760303328221198e-06,-2.117925396305509e-05,4.5262164348969236e-05
2.2918360627954826e-05,-4.6920871682232246e-05,-5.789620990981348e-05,1.5353154594777152e-05,-2.407076863164548e-05,5.894768037251197e-05
1.443049950466957e-05,-4.149855885771103e-05,-3.67782122339122e-05,2.1649724658345804e-05,-2.1994788767187856e-05,7.205504516605288e-05
9.463979949941859e-06,-5.337403490557335e-05,2.5738580006873235e-05,2.5164894395857118e-05,-1.946210795722436e-05,7.357844151556492e-05
4.585198894346831e-06,-7.076531619532034e-05,7.491613359889016e-05,2.5973427909775637e-05,-1.9773033272940665e-05,6.280231900746003e-05
-9.588169405105873e-07,-8.220273593906313e-05,8.183158206520602e-05,2.635078999446705e-05,-1.858579162217211e-05,4.4028940465068445e-05
-3.9514848140242975e-06,-8.345124660991132e-05,5.272858470561914e-05,2.6059055016958155e-05,-1.040142433339497e-05,3.251708039897494e-05
2.738969158144755e-07,-7.747222844045609e-05,2.4522516923752846e-06,2.6294210329069756e-05,-3.24079974234337e-06,5.5996410083025694e-05
7.371776518994011e-06,-7.263154111569747e-05,5.162951765669277e-06,3.417567495489493e-05,-6.563499027834041e-06,9.539370512356982e-05
8.021531357371714e-06,-7.102554809534922e-05,0.00010660420957719907,4.168947270954959e-05,-1.4996392565080896e-05,0.00010296926484443247
1.0124185791937634e-05,-6.754003698006272e-05,0.00020414352184161544,3.3977074053836986e-05,-1.879414776340127e-05,8.562022412661463e-05
1.4955084225221071e-05,-6.341255357256159e-05,0.0002083309955196455,1.4014118278282695e-05,-2.3771079213474877e-05,6.362034037010744e-05
1.1713260391843505e-05,-6.31671427981928e-05,0.00015806009469088167,-1.4810667607889627e-06,-3.352983185322955e-05,2.353100171603728e-05
-4.968424036633223e-07,-6.171366840135306e-05,9.005243191495538e-05,4.248969617037801e-06,-3.7073343264637515e-05,-1.757501195243094e-05
-1.3743963791057467e-05,-5.866365972906351e-05,2.859783126041293e-05,2.871988181141205e-05,-2.5675813958514482e-05,-1.4566982827091124e-05
-2.449125713610556e-05,-6.177931209094822e-05,3.300861635580077e-06,5.158970452612266e-05,-9.487663191976026e-06,2.3117470846045762e-05
-4.275281753507443e-05,-7.068649574648589e-05,1.1074010899392306e-06,5.750783020630479e-05,4.898973884337465e-07,5.623377001029439e-05
-6.68968859827146e-05,-7.705297321081161e-05,-8.608440111856908e-06,4.4984866690356284e-05,4.471697593544377e-06,6.918809958733618e-05
-8.043698471738026e-05,-7.394664862658828e-05,-2.3968173991306685e-05,2.673753806448076e-05,2.4341311473108362e-06,6.718083750456572e-05
-6.403667066479102e-05,-6.0531889175763354e-05,-3.004186146426946e-05,2.2667909433948807e-05,1.0768302161068277e-07,7.015045412117615e-05
-1.2485781553550623e-05,-4.606121365213767e-05,-3.337597445352003e-05,3.14213648380246e-05,1.9621920728241093e-06,7.094477768987417e-05
5.425141716841608e-05,-4.7452856961172074e-05,-4.490118953981437e-05,3.522078623063862e-05,3.1062520520208636e-06,5.4902931879041716e-05
0.00010526323603698984,-6.421950092772022e-05,-6.321976252365857e-05,3.248815846745856e-05,1.2109012459404767e-07,4.003715730505064e-05
0.00012926021008752286,-7.903109508333728e-05,-7.42115153116174e-05,3.857884803437628e-05,-3.2905945772654377e-06,4.632253330782987e-05
0.00013147077697794884,-8.405242988374084e-05,-6.348916940623894e-05,5.6189772294601426e-05,-4.345517936599208e-06,6.104621570557356e-05
0.00011304897634545341,-8.84165201568976e-05,-4.339036968303844e-05,6.377328827511519e-05,-4.7029184315761086e-06,6.373794167302549e-05
7.927654951345176e-05,-9.231824515154585e-05,-3.181887586833909e-05,5.062129275756888e-05,-4.538934263109695e-06,6.113490962889045e-05
4.21859476773534e-05,-8.86062189238146e-05,-2.576907536422368e-05,3.422751251491718e-05,-2.299563902852242e-06,6.526814104290679e-05
1.4389967873285059e-05,-7.806587382219732e-05,-3.185507694070111e-06,3.035260488104541e-05,-1.0469134004154057e-08,7.505585381295532e-05
3.5565774396673078e-06,-6.093746196711436e-05,4.656029705074616e-05,3.63799772458151e-05,1.7748742493495229e-06,7.73792271502316e-05
5.23175049238489e-06,-3.344885044498369e-05,0.00011571787035791203,4.7029687266331166e-05,5.891771252208855e-06,6.60223449813202e-05
1.0755405128293205e-05,-4.528672434389591e-06,0.00018554522830527276,5.572376903728582e-05,8.222805263358168e-06,5.159717329661362e-05
1.6812098692753352e-05,7.004884082562057e-06,0.00022573072055820376,5.1908478781115264e-05,4.978167453373317e-06,4.2141691665165126e-05
1.6783458704594523e-05,1.5590183011227055e-06,0.00021090885275043547,3.8769288948969916e-05,-5.566367278220241e-08,4.3599880882538855e-05
1.2732643881463446e-05,-7.88767465564888e-06,0.00013024688814766705,2.8167592972749844e-05,-4.009129042970017e-06,5.489898831001483e-05
1.588785926287528e-05,-1.5139807146624662e-05,-2.0391098587424494e-05,2.0095385480090044e-05,-9.832107025431469e-06,5.9019312175223604e-05
3.302683398942463e-05,-1.7701209799270146e-05,-0.00011633482063189149,7.874457878642716e-06,-1.6427115042461082e-05,4.939024074701592e-05
4.663925210479647e-05,-1.2938911822857335e-05,-7.758049468975514e-05,-4.318783339840593e-06,-2.171591404476203e-05,3.598465264076367e-05
3.974815263063647e-05,-1.2514188711065799e-05,7.52609867049614e-06,8.587620641264948e-07,-2.4288770873681642e-05,2.9910734156146646e-05
1.9667111700982787e-05,-2.3259062800207175e-05,5.403774412116036e-05,1.4510113942378666e-05,-2.1532969185500406e-05,3.895330155501142e-05
2.4911238938329916e-07,-5.11725120304618e-05,5.40728542546276e-05,2.339772072446067e-05,-1.3624799976241775e-05,5.593579408014193e-05
-1.5100672499102075e-05,-9.744440467329696e-05,7.447945972671732e-05,3.0340928788064048e-05,-1.3100278920319397e-05,6.980501348152757e-05
-2.9960598112666048e-05,-0.00014551798813045025,0.0001299481518799439,3.2944393751677126e-05,-2.3024904294288717e-05,8.158666605595499e-05
-3.745488720596768e-05,-0.00017004850087687373,0.0001822319027269259,3.063070835196413e-05,-2.5993751478381455e-05,9.008002234622836e-05
-2.586051050457172e-05,-0.0001583859557285905,0.00019714490917976946,2.1929839931544848e-05,-1.8466471374267712e-05,9.377642709296197e-05
7.156907031458104e-06,-0.0001258293486898765,0.00016538987983949482,6.468638730439125e-06,-1.1205029295524582e-05,9.022318408824503e-05
4.0951348637463525e-05,-8.961102139437571e-05,6.780201510991901e-05,-1.205195985676255e-05,-1.2356464139884338e-05,8.215606794692576e-05
5.086781311547384e-05,-5.529034024220891e-05,-5.737674655392766e-05,-1.5661211364204064e-05,-1.4818195268162526e-05,7.32578118913807e-05
3.77505348296836e-05,-2.3949089154484682e-05,-0.00011449865996837616,2.7175215109309647e-06,-1.1574164091143757e-05,6.832990766270086e-05
1.8711774828261696e-05,3.983838723797817e-06,-7.689456106163561e-05,2.584262801974546e-05,-7.987549906829372e-06,6.778876559110358e-05
5.606511422229232e-06,3.3606673241592944e-05,-1.1779558008129243e-05,3.482562897261232e-05,-8.937798156694043e-06,7.302971062017605e-05
4.011012606497388e-06,6.0554990341188386e-05,1.0186483450524975e-05,2.9729028028668836e-05,-1.1865403394040186e-05,8.008864824660122e-05
1.5606146916979924e-05,6.463110912591219e-05,-1.2873279956693295e-05,2.4595863578724675e-05,-1.453761251468677e-05,7.503551023546606e-05
4.402855483931489e-05,3.441955050220713e-05,-4.275472747394815e-05,3.136752638965845e-05,-1.710222386464011e-05,5.556391988648102e-05
8.367642294615507e-05,-6.663050498900702e-06,-4.202298805466853e-05,4.2968527850462124e-05,-1.8723987523117103e-05,4.1271730879088864e-05
0.00010690371709642932,-3.027058846782893e-05,-1.3718453374167439e-05,4.336189158493653e-05,-2.327453694306314e-05,4.932103547616862e-05
9.853034862317145e-05,-3.9337672205874696e-05,2.3612004952155985e-05,3.61751408490818e-05,-2.8357142582535744e-05,6.693095929222181e-05
7.424015348078683e-05,-5.456390499603003e-05,7.778589497320354e-05,4.135095878154971e-05,-2.5591029043425806e-05,7.807912334101275e-05
5.6918899645097554e-05,-8.015736239030957e-05,0.00015652072033844888,5.852064714417793e-05,-1.3987174497742672e-05,8.160877041518688e-05
5.858672011527233e-05,-9.821646381169558e-05,0.0002191151725128293,6.382173160091043e-05,6.524524565065803e-07,8.704479114385322e-05
6.977967132115737e-05,-9.49012755881995e-05,0.0002118160336976871,5.230076567386277e-05,9.835752280196175e-06,9.287137072533369e-05
6.486222991952673e-05,-7.700370042584836e-05,0.00012139734462834895,3.309110616100952e-05,1.1205506780243013e-05,8.342593355337158e-05
3.3782296668505296e-05,-6.221638614078984e-05,-2.446376674924977e-05,9.860925274551846e-06,-5.13006682467676e-07,4.180701944278553e-05
8.712851013115142e-06,-5.081300332676619e-05,-0.00012954855628777295,5.075967237644363e-06,-2.0221164959366433e-05,6.523378942802083e-06
1.0559017027844675e-05,-3.5784825740847737e-05,-0.0001369296805933118,2.7530222723726183e-05,-3.3981043088715523e-05,1.7139223928097636e-05
1.7801627109292895e-05,-2.5107448891503736e-05,-9.153613791568205e-05,5.2482577302725986e-05,-4.216223896946758e-05,4.517353590927087e-05
1.4711325093230698e-05,-1.9136801711283624e-05,-3.178586484864354e-05,6.796757224947214e-05,-4.518278001341969e-05,6.86534694978036e-05
7.412454579025507e-06,-9.255866643798072e-06,3.2523860227229306e-06,6.807094905525446e-05,-4.289346907171421e-05,7.73552164901048e-05
2.4850839963619364e-06,-1.5656785024020792e-07,2.132408189936541e-05,5.3923689847579226e-05,-3.348691461724229e-05,7.148185977712274e-05
-3.458542551015853e-06,2.9691532290598843e-06,3.352281783008948e-05,2.988645610457752e-05,-2.173832217522431e-05,5.538420009543188e-05
-1.1752603313652799e-05,-2.350315071453224e-06,6.496334390249103e-05,1.1836834346468095e-05,-1.3521063920052256e-05,4.022128996439278e-05
-1.6468131434521638e-05,-1.6524456441402435e-05,0.00011765820818254724,7.5990401455783285e-06,-5.801010956929531e-06,4.318370338296518e-05
-1.4270260180637706e-05,-3.936279972549528e-05,0.00013183608825784177,9.562197192281019e-06,1.8043302816295181e-06,5.8474994148127735e-05
-7.68081645219354e-06,-6.396159733412787e-05,7.688802725169808e-05,8.543601325072814e-06,4.190307663520798e-06,7.071929576341063e-05
1.583778271196934e-06,-7.904820813564584e-05,1.5299019651138224e-05,6.1465193539333995e-06,6.36514300822455e-07,5.4470645409310237e-05
1.1673374501697253e-05,-8.074497600318864e-05,-1.3405533536570147e-05,6.103344730945537e-06,-3.422730287638842e-06,1.4755863048776519e-05
2.7280182621325366e-05,-7.202568667707965e-05,-4.1375667933607474e-05,7.094171905919211e-06,-4.92655226480565e-06,-3.824914529104717e-06
4.526463817455806e-05,-6.30521826678887e-05,-5.5667711421847343e-05,1.052234620146919e-05,-9.493839570495766e-06,2.1323923647287302e-05
5.411439633462578e-05,-6.405299791367725e-05,-3.860475044348277e-05,1.6102749214041978e-05,-1.9775141481659375e-05,6.496915011666715e-05
5.100419366499409e-05,-7.247245957842097e-05,-9.20544880500529e-06,2.4720064175198786e-05,-2.8668851882684976e-05,9.802889690035954e-05
4.331793752498925e-05,-7.638934039277956e-05,2.5949095743271755e-06,3.4170137951150537e-05,-2.9000651920796372e-05,0.00010536664922256023
3.761294647119939e-05,-7.296123658306897e-05,2.9094303499732632e-06,3.759534956770949e-05,-2.1409836335806176e-05,8.929296745918691e-05
3.68610089935828e-05,-7.091597217367962e-05,4.484239525481826e-06,2.867351759050507e-05,-1.418963529431494e-05,6.620623025810346e-05
3.8103396946098655e-05,-7.982415991136804e-05,1.3263594155432656e-05,1.9498989786370657e-05,-1.1145183634653222e-05,4.63812866655644e-05
3.522972110658884e-05,-9.736556967254728e-05,1.988489384530112e-05,1.879894443845842e-05,-1.0442443453939632e-05,2.6505957066547126e-05
2.981586840178352e-05,-0.00011306642409181222,3.532268965500407e-05,2.5852852559182793e-05,-6.710140951327048e-06,1.256365703738993e-05
2.285697883053217e-05,-0.00011742422793759033,6.009712888044305e-05,3.44550353474915e-05,1.2780037650372833e-06,2.4460465283482336e-05
8.07598826213507e-06,-0.00010591847967589274,6.75107876304537e-05,3.585514787118882e-05,1.0064965863421094e-05,4.9021909944713116e-05
-3.8042699088691734e-06,-8.002080721780658e-05,4.626130248652771e-05,2.9736826036241837e-05,2.1924561224295758e-05,6.554322317242622e-05
1.0462902537256014e-05,-4.443030775291845e-05,2.5926570742740296e-05,2.4159200620488264e-05,3.513087358442135e-05,8.24651651782915e-05
3.0468112527159974e-05,-1.4843921235296875e-05,3.893936445820145e-05,2.521804162824992e-05,3.437875784584321e-05,9.215126192430034e-05
2.8150081561761908e-05,-3.967748398281401e-06,0.00012591764971148223,2.7369027520762756e-05,2.3859636712586507e-05,8.890015305951238e-05
1.2514844456745777e-05,-1.618812711967621e-05,0.0002715608279686421,3.231182199670002e-05,1.4453364201472141e-05,7.892944267950952e-05
5.949456863163505e-06,-3.783168358495459e-05,0.00039511630893684924,4.3157248001080006e-05,8.88118302100338e-06,6.417299300665036e-05
1.867531318566762e-05,-4.607696973835118e-05,0.00047109497245401144,4.671579517889768e-05,1.0427417691971641e-05,6.0740738263120875e-05
3.805532105616294e-05,-4.6273682528408244e-05,0.0004586862924043089,3.6859564715996385e-05,1.4054088751436211e-05,6.851428042864427e-05
4.2316554754506797e-05,-3.978124732384458e-05,0.0002720331831369549,1.6781992599135265e-05,1.4579283742932603e-05,7.59325921535492e-05
2.8974289307370782e-05,-2.932516872533597e-05,-3.986207957495935e-05,-1.8126423810826964e-06,3.619828248702106e-06,6.853983359178528e-05
1.5637393516954035e-05,-2.6566598535282537e-05,-0.00027382836560718715,1.6199090850932407e-06,-1.4505010767607018e-05,4.961237573297694e-05
1.4307350284070708e-05,-3.3473439543740824e-05,-0.00036449069739319384,3.083216870436445e-05,-2.704234248085413e-05,4.2476720409467816e-05
1.7052123439498246e-05,-5.318278999766335e-05,-0.00035276939161121845,5.503587453858927e-05,-2.9555041692219675e-05,5.964190495433286e-05
1.3562100320996251e-05,-8.88475333340466e-05,-0.0002463215496391058,6.353271601255983e-05,-2.4324577680090442e-05,7.776112761348486e-05
7.788781658746302e-06,-0.0001183993517770432,-0.00011237100989092141,6.904854672029614e-05,-1.4624511095462367e-05,7.967471174197271e-05
5.700175279343966e-06,-0.00012066666386090219,-2.5116662072832696e-05,7.220343832159415e-05,-7.26088273950154e-06,7.038766489131376e-05
4.841164695790212e-07,-0.0001022099531837739,-5.810612151435635e-07,6.207071419339627e-05,-8.859130502969492e-06,5.1911127229686826e-05
-1.695298487902619e-05,-7.983546674950048e-05,-1.469085236749379e-05,3.992413621745072e-05,-1.4743406609341037e-05,2.9996710509294644e-05
-3.838929478661157e-05,-6.456072151195258e-05,-4.150486711296253e-05,1.7189917343785055e-05,-1.7393400412402116e-05,2.011463584494777e-05
-4.5726661483058706e-05,-5.3731291700387374e-05,-4.747910497826524e-05,6.360195357046905e-07,-1.571773645991925e-05,3.211447619833052e-05
-3.4977820178028196e-05,-3.369435216882266e-05,-1.9543598682503216e-05,-8.543255489712465e-07,-1.4227404790290166e-05,5.6388853408861905e-05
-2.2088768673711456e-05,-1.3284503666000091e-06,2.108658736688085e-05,1.2745187632390298e-05,-1.654789775784593e-05,7.555619959020987e-05
-2.219692396465689e-05,1.7654527255217545e-05,5.66226699447725e-05,2.3499951566918753e-05,-2.2869229724165052e-05,7.934959285194054e-05
-2.939825935754925e-05,3.3461046768934466e-06,0.00010835460852831602,2.3270195015356876e-05,-2.37954573094612e-05,7.571982860099524e-05
-1.731645352265332e-05,-2.613268225104548e-05,0.00020820168720092624,3.1617200875189155e-05,-6.830833626736421e-06,7.447976531693712e-05
2.5806572011788376e-05,-4.879472908214666e-05,0.0002932352654170245,4.7153389459708706e-05,2.2854117560200393e-05,7.511329022236168e-05
6.967932858970016e-05,-7.037030445644632e-05,0.00027853212668560445,4.744175748783164e-05,3.472664684522897e-05,4.835745494347066e-05
8.554581290809438e-05,-9.400135604664683e-05,0.00017263673362322152,2.509417390683666e-05,1.7295302313868888e-05,-9.333243724540807e-07
8.507837628712878e-05,-0.00012614020670298487,-5.255191354081035e-06,-2.64520554082992e-06,-9.726641110319179e-06,-2.165918704122305e-05
7.817105506546795e-05,-0.00013741500151809305,-0.0002125902392435819,-1.7785156160243787e-05,-2.7296875487081707e-05,3.894269866577815e-06
7.235080556711182e-05,-0.00010949998977594078,-0.00030175011488609016,-1.0831874533323571e-05,-3.694938277476467e-05,4.150211680098437e-05
7.440519402734935e-05,-7.225893205031753e-05,-0.00023329618852585554,1.302075179410167e-05,-3.722360997926444e-05,6.529090023832396e-05
5.8327263104729354e-05,-4.081862061866559e-05,-0.00011672802793327719,3.646580807981081e-05,-2.7050336939282715e-05,7.24380515748635e-05
1.5891604562057182e-05,-2.1300806110957637e-05,-3.8673020753776655e-05,4.615251600625925e-05,-1.9666726075229235e-05,6.456465052906424e-05
-7.38163043934037e-06,6.256564688555954e-08,6.736822228958772e-07,5.016650538891554e-05,-1.1259276107011829e-05,5.335346213541925e-05
1.2335640349192545e-05,3.286287028458901e-05,4.373458432382904e-05,4.8383637476945296e-05,-3.3388844258297468e-06,4.581276516546495e-05
3.829715205938555e-05,6.188786210259423e-05,0.00010877877502935007,3.596735041355714e-05,-6.1952600844961125e-06,5.6353790569119155e-05
4.408795211929828e-05,7.716294931015e-05,0.00017102033598348498,2.2283058569882996e-05,-1.8002863725996576e-05,7.501205982407555e-05
4.649355469155125e-05,7.614201604155824e-05,0.00020104290160816163,1.279153184441384e-05,-2.6699244699557312e-05,8.496635564370081e-05
6.389748159563169e-05,5.582456651609391e-05,0.00019649644673336297,9.540523024043068e-06,-2.7347554350853898e-05,8.605508628534153e-05
8.16553074400872e-05,2.7151343601872213e-05,0.00014945831208024174,1.3101904187351465e-05,-2.786047843983397e-05,6.384899461409077e-05
7.475871097994968e-05,8.393554367103206e-07,4.5619886805070564e-05,2.3956650693435222e-05,-3.356482193339616e-05,2.1633572032442316e-05
4.125139457755722e-05,-1.8105958588421345e-05,-7.869648834457621e-05,4.009691838291474e-05,-3.444536559982225e-05,6.614884114242159e-06
7.598576985401451e-07,-3.110693069174886e-05,-0.0001397569285472855,5.091511775390245e-05,-2.7620857508736663e-05,3.9414553612004966e-05
-2.334274904569611e-05,-4.635711957234889e-05,-8.746642561163753e-05,4.7237073886208236e-05,-2.025929461524356e-05,8.176889969035983e-05
-2.2730107957613654e-05,-6.523189949803054e-05,3.071999526582658e-05,3.68693181371782e-05,-1.3570745977631304e-05,0.00010189481690758839
-6.554688297910616e-06,-7.669768092455342e-05,0.00011285879008937627,3.137373278150335e-05,-6.237312845769338e-06,0.00010135976481251419
1.0294273124600295e-05,-7.395380089292303e-05,0.00010944274981739,3.009212014148943e-05,1.0263685226163943e-06,9.186755050905049e-05
1.8361331967753358e-05,-6.427965854527429e-05,5.8214041928295046e-05,2.9447728593368083e-05,4.907669335807441e-06,8.399179205298424e-05
1.8169781469623558e-05,-6.13393058301881e-05,3.218437632312998e-05,3.024519537575543e-05,3.241988451918587e-06,7.873107824707404e-05
1.5479987268918194e-05,-7.343513425439596e-05,1.9839886590489186e-05,2.776134351734072e-05,-6.681961167487316e-06,5.753817458753474e-05
8.38124287838582e-06,-9.416692046215758e-05,-1.8345652279094793e-05,2.022524131461978e-05,-1.9542347217793576e-05,2.3111433620215394e-05
-6.55835310681141e-06,-0.000106697334558703,-1.3669317013409454e-05,2.258422136947047e-05,-2.126190702256281e-05,1.0405010471004061e-05
-2.9556482331827283e-05,-9.711281745694578e-05,5.61999149795156e-05,4.512961095315404e-05,-1.0990545888489578e-05,2.8688638849416748e-05
-5.66627859370783e-05,-7.135391933843493e-05,9.645675163483247e-05,6.450356158893555e-05,-5.858858457941096e-06,4.8987400077749044e-05
-7.143243419704959e-05,-3.221056977054104e-05,4.627736416296102e-05,5.962938303127885e-05,-8.488163985020947e-06,6.0371949075488374e-05
-4.447569517651573e-05,-1.9023907498194603e-06,-7.529781214543618e-06,4.404077844810672e-05,-8.662608706799801e-06,6.835269596194848e-05
2.7908232368645258e-05,-1.3247892638901249e-05,1.1011390597559512e-05,3.0298149795271456e-05,-1.1893498594872653e-05,6.98022122378461e-05
0.00010787219071062282,-5.368866914068349e-05,6.346011650748551e-05,2.1787849618704058e-05,-1.6315705579472706e-05,7.686255412409082e-05
0.0001596987567609176,-7.851741975173354e-05,0.00011657825962174684,2.5731778805493377e-05,-7.149147677409928e-06,0.00010445230145705864
0.00016889137623365968,-7.920867210486904e-05,0.00016020129260141402,2.3114085706765763e-05,9.666582627687603e-06,0.00012040871661156416
0.00013398678856901824,-8.0331381468568e-05,0.00019881172920577228,2.1559383185376646e-06,1.3967283848614898e-05,9.640052303439006e-05
8.129868365358561e-05,-8.801667718216777e-05,0.0001729370269458741,-1.642110146349296e-05,4.1447856347076595e-07,4.796833673026413e-05
4.184093268122524e-05,-0.0001023441509460099,0.00010527019912842661,-1.1869423360622022e-05,-1.586169673828408e-05,5.455480049931793e-07
1.4783681763219647e-05,-0.00011473792983451858,7.333719986490905e-05,4.33337663707789e-06,-2.959049197670538e-05,-2.233505256299395e-05
1.6740018509153742e-06,-0.0001099742075894028,4.562144386e-05,1.2029144272673875e-05,-3.4206092095701024e-05,-5.586011866398621e-06
9.483880603511352e-06,-8.911041368264705e-05,-5.861648969585076e-05,1.3451467566483188e-05,-2.4170316464733332e-05,3.8368452806025743e-05
2.5838104193098843e-05,-7.182915578596294e-05,-0.00015843096480239183,1.5208751392492559e-05,-7.75286571297329e-06,7.27437945897691e-05
2.9707429348491132e-05,-6.11798168392852e-05,-7.692616782151163e-05,2.064681211777497e-05,4.618960247171344e-06,8.643956971354783e-05
2.4965871489257552e-05,-4.607464143191464e-05,0.00013821736501995474,3.1699571991339326e-05,1.284694553760346e-05,9.530541865387931e-05
2.564284841355402e-05,-3.344263677718118e-05,0.0002985531173180789,4.282864756532945e-05,1.7886810383060947e-05,0.00010697807738324627
2.8016045689582825e-05,-3.366876990185119e-05,0.0002875121426768601,4.503551099332981e-05,9.721099559101276e-06,0.00011027896107407287
2.2274438379099593e-05,-3.909722363459878e-05,0.0001346819190075621,3.71115020243451e-05,-1.1109017577837221e-05,9.474085527472198e-05
9.935602065525018e-06,-3.675181505968794e-05,-6.652696174569428e-05,2.5032673875102773e-05,-2.969206434499938e-05,5.860288365511224e-05
8.707130518814665e-07,-2.8565613320097327e-05,-0.0002293192665092647,1.8913873645942658e-05,-3.416917024878785e-05,1.3310112080944236e-05
1.7289024754063576e-06,-2.2450602045864798e-05,-0.00029301721951924264,2.6347555831307545e-05,-2.7160434910911135e-05,-6.938415936019737e-06
9.774825230124407e-06,-2.010293974308297e-05,-0.00021989759989082813,3.859313437715173e-05,-1.7278494851780124e-05,7.648286555195227e-06
1.4853007087367587e-05,-2.289916665176861e-05,-9.417503315489739e-05,4.08268315368332e-05,-1.1957388778682798e-05,2.5570068828528747e-05
1.4715590623382013e-05,-3.249103974667378e-05,-2.112588845193386e-05,3.978117820224725e-05,-6.318894975265721e-06,3.2626528991386294e-05
1.5311810784623958e-05,-4.8444093408761546e-05,5.6963858696690295e-06,4.525695476331748e-05,4.8116348807525355e-06,3.885088153765537e-05
1.964323928405065e-05,-6.590613338630646e-05,1.6898011381272227e-05,5.143206726643257e-05,1.4573896805814002e-05,5.067678284831345e-05
2.2438662199419923e-05,-7.350518717430532e-05,2.8549600756377913e-05,4.6310869947774336e-05,1.4312976418295875e-05,6.412275251932442e-05
1.73707176145399e-05,-6.778212264180183e-05,3.320131145301275e-05,3.4139342460548505e-05,6.408127774193417e-06,6.970266258576885e-05
4.6025141386962787e-07,-6.238582864170894e-05,3.216629193047993e-05,2.527436663513072e-05,-6.50510492050671e-06,6.766340811736882e-05
-2.0719293388538063e-05,-5.8113044360652566e-05,3.914337867172435e-05,2.73625864792848e-05,-1.9044642613152973e-05,7.481985812773928e-05
-3.7129120755707845e-05,-5.4212447139434516e-05,4.5997232518857345e-05,2.7188474632566795e-05,-3.051310523005668e-05,8.15104940556921e-05
-4.056491525261663e-05,-5.4762796935392544e-05,4.7922432713676244e-05,1.7191261576954275e-05,-3.950759855797514e-05,7.230579649331048e-05
-3.100719186477363e-05,-5.104747833684087e-05,5.800128565169871e-05,1.3966538972454146e-05,-3.581444252631627e-05,6.185739039210603e-05
-1.4680985259474255e-05,-4.098625868209638e-05,8.715618605492637e-05,1.98800607904559e-05,-2.1892179574933834e-05,6.857798871351406e-05
7.622149041708326e-06,-2.6923047698801383e-05,0.00013268727343529463,2.4590985049144365e-05,-6.7642636167875025e-06,8.650364179629833e-05
3.76159259758424e-05,-2.4142893380485475e-05,0.00017260544700548053,1.7887501599034294e-05,6.166106345517619e-07,9.444548049941659e-05
7.48062739148736e-05,-3.50056252500508e-05,0.0001856674498412758,6.231219686014811e-06,5.483024324348662e-06,8.538178371964023e-05
9.184846567222849e-05,-4.893173900200054e-05,0.00014184400788508356,8.124769692585687e-07,5.690392299584346e-06,6.299409869825467e-05
7.115033076843247e-05,-6.284533446887508e-05,4.249689663993195e-05,4.700896738540905e-07,-6.5728818299248815e-06,4.649176116799936e-05
3.174200901412405e-05,-8.142260776367038e-05,-7.72671919548884e-05,-3.962829850934213e-06,-2.60728265857324e-05,4.5575427066069096e-05
3.168011744492105e-06,-0.0001003769357339479,-0.00016004654753487557,-2.6104219159606146e-06,-4.0391743823420256e-05,4.887319664703682e-05
-2.8651857064687647e-06,-0.00011004463885910809,-0.00017796765314415097,1.0235653462586924e-05,-4.276248000678606e-05,4.070108843734488e-05
3.7923430227237986e-06,-0.00011012424511136487,-0.00012654521560762078,2.4082446543616243e-05,-3.252656460972503e-05,3.400100104045123e-05
1.2149967915320303e-05,-0.00010006302909459919,-2.3961843908182345e-05,3.225106047466397e-05,-1.2381331544020213e-05,4.3899482989218086e-05
1.48478839037125e-05,-7.886420644354075e-05,7.766680209897459e-05,3.2000614737626165e-05,3.8166499507497065e-06,5.899194729863666e-05
1.0888314136536792e-05,-5.299969416228123e-05,0.00013083199155516922,2.7952502932748757e-05,8.734720722713973e-06,6.661588849965483e-05
3.5611155908554792e-06,-3.152539284201339e-05,0.00011987520701950416,2.774234235403128e-05,5.6198960010078736e-06,6.683964602416381e-05
-4.5304565787773754e-07,-1.5227422409225255e-05,3.830702189588919e-05,3.117526648566127e-05,-3.4171284823969472e-06,6.241486698854715e-05
1.914190306706587e-06,-1.0822816875588614e-05,-6.147184467408806e-05,3.603235381888226e-05,-1.6376217899960466e-05,5.268212771625258e-05
8.97006884770235e-06,-2.29396373470081e-05,-4.541266389423981e-05,4.340906525612809e-05,-2.3418193450197577e-05,4.550094672595151e-05
2.275738734169863e-05,-4.467163307708688e-05,5.7875760830938816e-05,4.3043732148362324e-05,-2.155196307285223e-05,4.3280138925183564e-05
4.251399514032528e-05,-6.33292511338368e-05,0.00010471518180565909,3.510212991386652e-05,-1.4708729395351838e-05,4.5866599975852296e-05
5.7834393373923376e-05,-7.404742063954473e-05,7.306252518901601e-05,2.9093098419252783e-05,-5.7474453569739126e-06,5.335760579328053e-05
6.108315574238077e-05,-8.024281851248816e-05,3.310887041152455e-05,3.118285530945286e-05,3.3705084661050932e-06,5.996308755129576e-05
4.872250428888947e-05,-8.203267498174682e-05,3.5345987271284685e-05,3.851512883557007e-05,8.6108475443325e-06,6.711623427690938e-05
2.7280248104943894e-05,-7.788006769260392e-05,6.443572056014091e-05,3.986582305515185e-05,1.1315850315440912e-05,7.89273835835047e-05
7.366222234850284e-06,-7.048327097436413e-05,7.857545278966427e-05,3.325157376821153e-05,1.626087941986043e-05,9.024746395880356e-05
-1.5568428352707997e-05,-5.479251194628887e-05,0.00010526633559493348,2.467453850840684e-05,2.179406328650657e-05,9.510178642813116e-05
-4.3427495256764814e-05,-2.9075818019919097e-05,0.00016316301480401307,2.5281135094701312e-05,2.5033772544702515e-05,9.080609743250534e-05
-5.876076829736121e-05,-5.391686499933712e-06,0.00021165036014281213,3.971444311900996e-05,2.5758592528291047e-05,7.857375021558255e-05
-5.289694308885373e-05,-1.5890343547653174e-06,0.00025086323148570955,4.28190833190456e-05,1.7377642507199198e-05,5.2396255341591313e-05
-3.396190004423261e-05,-1.8649003322934732e-05,0.00029070835444144905,2.3278915250557475e-05,-4.74138323625084e-06,1.677994259807747e-05
-2.9931520657555666e-06,-4.164217534707859e-05,0.00030298533965833485,1.4391054719453678e-05,-2.4614813810330816e-05,7.445650226145517e-06
2.3698614313616417e-05,-5.7390789152123034e-05,0.00027407932793721557,3.169815681758337e-05,-3.2179832487599924e-05,3.4223539842059836e-05
3.9080925489543006e-05,-6.2980514485389e-05,0.0001713156671030447,5.5384891311405227e-05,-3.0348770451382734e-05,6.939593004062772e-05
6.54087052680552e-05,-5.157832129043527e-05,-4.4501543015940115e-05,6.777501403121278e-05,-2.0413353922776878e-05,9.203516674460843e-05
0.00010029662371380255,-2.669927380338777e-05,-0.00027101291925646365,6.650317664025351e-05,-8.235298992076423e-06,9.86635495792143e-05
0.00011683220509439707,-7.34031436877558e-06,-0.000333624891936779,5.6278960983036086e-05,-2.8630659016926074e-06,9.662494267104194e-05
0.00010557712084846571,-6.2381491261476185e-06,-0.0002063079591607675,4.494775930652395e-05,-3.546771722540143e-06,9.374702494824305e-05
7.418938912451267e-05,-1.578222872922197e-05,-2.837942520272918e-05,3.58458528353367e-05,-7.685142008995172e-06,9.151278936769813e-05
3.249106521252543e-05,-2.1064588509034365e-05,9.734343620948493e-05,2.9154520234442316e-05,-1.8945964257000014e-05,8.95953708095476e-05
-2.0674126517405966e-06,-2.027738264587242e-05,0.00015636361786164343,2.7194999347557314e-05,-3.2674463000148535e-05,9.085791680263355e-05
-1.2027806405967567e-05,-2.3156029783422127e-05,0.00011622067540884018,2.9972390620969236e-05,-3.688095239340328e-05,7.770818774588406e-05
1.1043689482903574e-06,-3.9347341953543946e-05,-6.649937859037891e-05,3.331044354126789e-05,-2.9328699383768253e-05,3.512223338475451e-05
1.6461481209262274e-05,-5.510792107088491e-05,-0.00031969588599167764,3.733308767550625e-05,-1.7011421732604504e-05,6.852548267488601e-06
1.9751958461711183e-05,-5.779961429652758e-05,-0.00042103344458155334,4.5028697059024125e-05,-7.765759619360324e-06,2.727857463469263e-05
2.3128990505938418e-05,-4.972225724486634e-05,-0.0002861493267118931,5.1364146202104166e-05,-9.846193904650136e-08,6.37446137261577e-05
3.8594676880165935e-05,-3.800156628130935e-05,-6.392096838681027e-05,5.522922583622858e-05,1.047281693900004e-05,8.275778964161873e-05
5.231671093497425e-05,-3.367001045262441e-05,9.363627032143995e-05,5.3858220780966803e-05,1.9884771973011084e-05,7.863067730795592e-05
4.8194364353548735e-05,-5.481469997903332e-05,0.0001729785872157663,4.1701638110680506e-05,2.0681029127445072e-05,6.620834028581157e-05
3.88049338653218e-05,-9.39216697588563e-05,0.000238560009165667,2.9396938771242276e-05,1.5946448911563493e-05,6.172158464323729e-05
3.842735895887017e-05,-0.00013440630573313683,0.00023006503761280328,2.6125169824808836e-05,1.1030105270037893e-05,6.18339836364612e-05
3.655096224974841e-05,-0.00014673212717752904,9.232709999196231e-05,3.3421325497329235e-05,6.01717420067871e-06,5.724560469388962e-05
2.9629738492076285e-05,-0.00012638905900530517,1.4865554476273246e-05,3.399564593564719e-05,1.0823334832821274e-06,4.368315057945438e-05
2.1258494598441757e-05,-0.00010498996562091634,5.089377737022005e-05,9.581140147929545e-06,-1.426657399861142e-05,1.4220336197467986e-05
1.136765149567509e-05,-8.466692816000432e-05,0.00010061609646072611,-1.3541608495870605e-05,-3.3360105589963496e-05,-3.4914692150778137e-06
1.2383438843244221e-05,-5.487995804287493e-05,0.00015546534268651158,-1.3925196071795654e-05,-3.8924288674024865e-05,1.4261159776651766e-05
3.9077061956049874e-05,-1.7641932572587393e-05,0.00015279169019777328,1.6596942487012711e-06,-2.9724826163146645e-05,4.7399105824297294e-05
7.284706953214481e-05,2.13854818866821e-05,6.77824136801064e-05,2.3175967726274393e-05,-1.6810356100904755e-05,6.85186023474671e-05
8.584652096033096e-05,6.322973058559e-05,-8.30163189675659e-05,3.5097884392598644e-05,-1.5433455700986087e-05,6.54324539937079e-05
8.009313751244918e-05,8.280147449113429e-05,-0.00022896025620866567,2.8289239708101377e-05,-2.6777475795825012e-05,4.830863690585829e-05
6.2638966483064e-05,6.814107473473996e-05,-0.0002792021550703794,2.1291438315529376e-05,-3.7477060686796904e-05,3.8856665923958644e-05
3.452142482274212e-05,2.81209395325277e-05,-0.00021354939963202924,3.2968539017019793e-05,-3.9886144804768264e-05,4.743092358694412e-05
6.761337090210873e-07,-2.1140609533176757e-05,-0.00011551088391570374,5.109758785692975e-05,-3.659606591099873e-05,5.8988214732380584e-05
-2.6251771487295628e-05,-5.9964677348034456e-05,-6.74355833325535e-05,5.604891703114845e-05,-3.0241819331422448e-05,6.532041152240708e-05
-3.255372939747758e-05,-8.050326141528785e-05,-6.0426686104619876e-05,5.095716187497601e-05,-2.281823253724724e-05,7.08313673385419e-05
-1.834373142628465e-05,-8.589852950535715e-05,-4.9715472414391115e-05,4.77294743177481e-05,-1.657041320868302e-05,7.901147182565182e-05
1.597142954778974e-06,-8.070281182881445e-05,-1.0307518095942214e-05,4.410713881952688e-05,-1.3420662071439438e-05,8.677654841449112e-05
1.91619765246287e-05,-6.699220830341801e-05,5.5351869377773255e-05,3.9313719753408805e-05,-9.894705726765096e-06,9.323537233285606e-05
3.59564546670299e-05,-5.6293898524018005e-05,0.00014710465620737523,3.928149817511439e-05,-6.6371389948471915e-06,9.319746459368616e-05
5.0111957534682006e-05,-6.003269663779065e-05,0.00022334049572236836,4.0170762076741084e-05,-7.663146789127495e-06,8.031436300370842e-05
5.728005271521397e-05,-8.2345686678309e-05,0.00023222510935738683,3.213428135495633e-05,-1.2709896509477403e-05,6.11439609201625e-05
5.364672688301653e-05,-0.00010228191240457818,0.00015576650912407786,1.5466523109353147e-05,-1.9939332560170442e-05,5.663928823196329e-05
4.149193409830332e-05,-9.83747304417193e-05,2.3618949853698723e-05,3.786491106438916e-06,-2.503601172065828e-05,7.139175431802869e-05
2.9249285944388248e-05,-7.768622162984684e-05,-8.21186913526617e-05,9.358918759971857e-06,-2.1848754840902984e-05,7.937531336210668e-05
1.5794903447385877e-05,-5.591332956100814e-05,-3.301084507256746e-05,2.6712708859122358e-05,-1.705054091871716e-05,7.584944978589192e-05
-1.0151017022508313e-06,-4.158776573603973e-05,0.00015640609490219504,4.206630910630338e-05,-1.0227112397842575e-05,8.360316860489547e-05
-9.728739314596169e-06,-3.634777749539353e-05,0.00035950352321378887,4.530745718511753e-05,5.0323560571996495e-06,0.00010074183956021443
-6.874595783301629e-06,-3.212101000826806e-05,0.00048443523701280355,2.9486722269211896e-05,1.9871715267072432e-05,9.655205940362066e-05
-8.165400686266366e-06,-1.896367029985413e-05,0.0004632626078091562,4.513277417572681e-06,1.94027743418701e-05,5.928863538429141e-05
-1.3447867786453571e-05,1.4876228306093253e-05,0.000365082873031497,-1.8577505898065283e-06,7.845853360777255e-06,3.137945896014571e-05
-7.057089078443823e-06,4.6699700760655105e-05,0.0002784116950351745,9.046194463735446e-06,2.921356781371287e-06,3.7359488487709314e-05
8.930302101362031e-06,3.926164208678529e-05,0.0001219293408212252,2.008369665418286e-05,9.656850124883931e-06,7.25042846170254e-05
1.8634167645359412e-05,-5.9542680901358835e-06,-0.00016666769806761295,3.086754441028461e-05,1.7482620023656636e-05,9.887719352263957e-05
9.081231837626547e-06,-5.185907502891496e-05,-0.0004330568772275001,4.19730058638379e-05,1.083626011677552e-05,5.7874949561664835e-05
-5.718648935726378e-06,-7.46698715374805e-05,-0.00046691595343872905,5.3517924243351445e-05,-1.4130581575955148e-06,-8.129153684421908e-06
-7.507090685976436e-06,-8.621872257208452e-05,-0.00028234400087967515,6.337293598335236e-05,-1.0207322702626698e-05,-2.595393016235903e-05
4.484996679821052e-06,-0.00010341825691284612,-7.011082925600931e-05,6.462260353146121e-05,-9.801951819099486e-06,2.5800375169637846e-06
1.539413642603904e-05,-0.00012326418072916567,4.72759384138044e-05,5.045981743023731e-05,-3.3018834528775187e-06,3.344941433169879e-05
1.1142141374875791e-05,-0.00013039313489571214,9.128026431426406e-05,2.5944103981601074e-05,-2.124106003975612e-06,4.334241384640336e-05
-1.0472762141944258e-06,-0.00011809632269432768,9.229249553754926e-05,1.0166563697566744e-05,-6.364307409967296e-06,4.4017833715770394e-05
-9.095837413042318e-06,-8.937298116507009e-05,5.982750735711306e-05,9.75549755821703e-06,-1.1255073331994936e-05,4.763768083648756e-05
-4.476994035940152e-06,-5.624766708933748e-05,-1.9174800399923697e-05,1.6898124158615246e-05,-1.3751078768109437e-05,4.85801137983799e-05
9.829204827838112e-06,-3.05882167594973e-05,-0.00010953813762171194,2.53405323746847e-05,-1.552726826048456e-05,4.650069240597077e-05
1.5693531167926267e-05,-1.9181741663487628e-05,-0.0001404077047482133,2.7392507035983726e-05,-2.072621282422915e-05,4.523305324255489e-05
5.740646429330809e-06,-1.5233049452945124e-05,-9.896517440211028e-05,1.8525553969084285e-05,-3.12183728965465e-05,4.132337198825553e-05
-2.2509529173930787e-07,-1.015372163237771e-05,-2.1303734683897346e-05,1.0354468940931838e-05,-3.820885831373744e-05,3.575117079890333e-05
6.095709977671504e-06,-5.49819742445834e-06,6.0753071011276916e-05,1.7177175323013216e-05,-3.275008566561155e-05,3.628749254858121e-05
4.516957233136054e-06,-1.0472384019521996e-05,0.0001543329271953553,3.2146308512892574e-05,-1.5637866454198956e-05,3.840554563794285e-05
-7.988818651938345e-06,-2.441587275825441e-05,0.00028656297945417464,4.203783464618027e-05,4.760342562803999e-06,3.880722579197027e-05
-4.823084964300506e-06,-4.659701880882494e-05,0.00044965065899305046,4.406527295941487e-05,2.1623583961627446e-05,4.738931966130622e-05
2.491429950168822e-05,-7.600729441037402e-05,0.0005337516195140779,4.3095657019875944e-05,3.0606035579694435e-05,6.280685192905366e-05
5.205526758800261e-05,-0.00010016090527642518,0.00045176525600254536,3.6986966733820736e-05,2.529788253013976e-05,7.112458843039349e-05
5.628044164041057e-05,-0.0001065392279997468,0.0002213478001067415,2.4314056645380333e-05,9.193010555463843e-06,6.795716763008386e-05
6.897642015246674e-05,-9.16483040782623e-05,-7.482826913474128e-05,1.9992727175122127e-05,-4.1020280150405597e-07,6.737828516634181e-05
8.111457282211632e-05,-6.322662375168875e-05,-0.0003823880688287318,1.8304033801541664e-05,-1.5244621863530483e-05,5.9560286899795756e-05
6.291155295912176e-05,-4.870698830927722e-05,-0.00044660517596639693,1.093688297260087e-05,-3.786083107115701e-05,3.2703759643482044e-05
4.5123517338652164e-05,-5.014905764255673e-05,-0.0003111952973995358,1.6585112462053075e-05,-3.9838210796006024e-05,2.939717160188593e-05
4.325911868363619e-05,-4.752517270389944e-05,-0.0002458463131915778,3.274376649642363e-05,-2.1835145162185654e-05,5.626525671686977e-05
4.464983430807479e-05,-5.005045750294812e-05,-0.00020472027244977653,3.0571736715501174e-05,-6.13485917710932e-06,6.599897460546345e-05
3.913099499186501e-05,-6.12009025644511e-05,-0.00013161230890545994,5.838276592839975e-06,-8.500386684318073e-06,4.4728618377121165e-05
3.847358311759308e-05,-6.960114114917815e-05,1.0970140920107951e-06,-2.0366860553622246e-06,-1.988241456274409e-05,2.898398452089168e-05
4.7556943172821775e-05,-7.110426668077707e-05,0.00010578271030681208,2.0900666640955023e-05,-1.946038901223801e-05,4.957979399478063e-05
4.990383968106471e-05,-7.48463353374973e-05,0.00014629776705987751,4.050828283652663e-05,-9.211660653818399e-06,7.635370275238529e-05
4.445086597115733e-05,-8.20444620330818e-05,8.884975977707654e-05,3.3705742680467665e-05,-3.7607890135404887e-06,8.317125320900232e-05
4.061733852722682e-05,-8.424168481724337e-05,-1.1136899956909474e-05,4.782749783771578e-06,-1.0865544936677907e-05,7.64728247304447e-05
3.782052590395324e-05,-7.108644058462232e-05,-6.465567275881767e-05,-3.335138171678409e-05,-2.7578042136156e-05,6.990652764216065e-05
3.031781488971319e-05,-4.2563446186250076e-05,-4.509775681071915e-05,-6.050552474334836e-05,-3.812877548625693e-05,6.268492870731279e-05
3.285191996837966e-05,-1.6406678696512245e-05,5.127540498506278e-05,-5.99703416810371e-05,-3.3240434277104214e-05,5.1839706429746e-05
5.912649794481695e-05,-8.275417712866329e-06,0.00019526542746461928,-3.20566505251918e-05,-2.0899567971355282e-05,4.456935857888311e-05
8.589478966314346e-05,-1.0802791621244978e-05,0.00033662549685686827,1.1143953088321723e-05,-9.893845344777219e-06,5.1307593821547925e-05
7.62489580665715e-05,-5.39483016837039e-06,0.00039601512253284454,4.923740561935119e-05,-4.948454261466395e-06,6.967171793803573e-05
3.1355673854704946e-05,6.4919022406684235e-06,0.0003592362627387047,6.295452476479113e-05,-7.476947303075576e-06,8.267084922408685e-05
-1.5119813724595588e-05,1.3832893273502123e-05,0.00028351135551929474,6.0006870626239106e-05,-1.1592359442147426e-05,8.728027751203626e-05
-3.6573994293576106e-05,1.0248642865917645e-05,0.00017997172835748643,5.397397035267204e-05,-1.3931038665759843e-05,8.76266130944714e-05
-3.839169585262425e-05,-8.305382834805641e-06,-7.58296373533085e-05,3.4658416552701965e-05,-2.2504937078338116e-05,8.261611947091296e-05
-3.633533924585208e-05,-3.726334034581669e-05,-0.00035589587059803307,1.0222684068139642e-05,-3.433108577155508e-05,7.569618901470676e-05
-3.0130873710731976e-05,-5.9369613154558465e-05,-0.0003601617063395679,1.9575038095354103e-05,-3.333565837237984e-05,7.699243724346161e-05
-1.4504438695439603e-05,-6.470602238550782e-05,-0.00014701284817419946,6.041591041139327e-05,-2.1668445697287098e-05,7.459869084414095e-05
9.31017621041974e-06,-6.178997864481062e-05,2.9387792892521247e-06,7.844923675293103e-05,-1.4394874597201124e-05,5.322932338458486e-05
3.691245001391508e-05,-5.800644794362597e-05,2.2309808628051542e-05,5.8609104598872364e-05,-1.581372634973377e-05,3.3216703741345555e-05
5.439784945338033e-05,-5.128099655848928e-05,-2.437122202536557e-05,3.6101682781009004e-05,-1.6679883628967218e-05,3.79296689061448e-05
5.1842005632352084e-05,-3.237802957301028e-05,-3.2216044928645715e-05,3.9110811485443264e-05,-9.364573998027481e-06,5.965855234535411e-05
5.1711449486901984e-05,-1.6152795069501735e-05,6.616456175834173e-06,4.964043546351604e-05,1.281975414713088e-06,7.711053331149742e-05
5.507791865966283e-05,-2.498958565411158e-05,5.058266833657399e-05,3.9902653952594846e-05,1.801169446480344e-06,7.271391950780526e-05
4.2535775719443336e-05,-3.947648292523809e-05,6.479139847215265e-05,2.2682306735077873e-05,-5.946436431258917e-06,5.4460288083646446e-05
2.13276671274798e-05,-4.658152465708554e-05,5.2653515012934804e-05,1.684261042100843e-05,-9.398087968293112e-06,3.9196434954646975e-05
7.146596544771455e-06,-5.409260847955011e-05,3.501694664009847e-05,1.5670753782615066e-05,-7.567901320726378e-06,3.6576959246303886e-05
6.270787707762793e-06,-6.532305269502103e-05,2.8738650144077837e-05,1.1081743650720455e-05,-5.877541752852267e-06,4.659471960621886e-05
1.4435905541176908e-05,-6.956938159419224e-05,3.1640382076147944e-05,1.0503358680580277e-05,-8.87865269305621e-07,7.055552850943059e-05
2.5394958356628194e-05,-6.559139728778973e-05,2.8070207918062806e-05,1.3486518582794815e-05,8.947709829953965e-06,9.6383664640598e-05
3.0636558221885934e-05,-6.074452539905906e-05,2.765786848613061e-05,1.933041676238645e-05,1.6092708392534405e-05,9.827686153585091e-05
2.7746827981900424e-05,-5.8950547099811956e-05,2.8210535674588755e-05,2.713696267164778e-05,1.6046791643020697e-05,8.2087550254073e-05
1.892038926598616e-05,-5.805248656542972e-05,1.672515645623207e-05,2.6510300813242793e-05,9.653575943957549e-06,7.163883856264874e-05
1.0047520845546387e-05,-5.41299996257294e-05,-2.6323938072891906e-05,1.9209252059226856e-05,2.2598321720579406e-06,7.765433110762388e-05
5.917209364270093e-06,-5.30820143467281e-05,-7.268630724865943e-05,1.6476553355460055e-05,-3.7097536278452026e-06,8.801583317108452e-05
6.363304692058591e-06,-6.025475522619672e-05,-6.548313103849068e-05,2.2724194423062727e-05,-7.3109495133394375e-06,7.787301728967577e-05
6.893299541843589e-06,-7.512040610890836e-05,2.6399076887173578e-05,3.0040206183912233e-05,-9.702694114821497e-06,4.426231680554338e-05
7.100883522070944e-06,-8.278251334559172e-05,0.00014798311167396605,3.7700257962569594e-05,-6.036219474481186e-06,2.8174528779345565e-05
8.537666872143745e-06,-7.957703928695992e-05,0.00022407615324482322,4.561391324386932e-05,2.5007338422256e-07,4.675068339565769e-05
5.5608020375075284e-06,-7.955094042699784e-05,0.00023075345961842686,4.449813059181906e-05,-3.6399171676748665e-06,6.085378481657244e-05
-7.890342601513112e-08,-8.893019548850134e-05,0.00021889479830861092,3.101052061538212e-05,-1.3759227840637323e-05,5.326397513272241e-05
2.3233640149555868e-06,-9.488497016718611e-05,0.00018431982607580721,1.6161122402991168e-05,-1.5923107639537193e-05,4.928348425892182e-05
1.597613481862936e-05,-9.051950473804027e-05,7.049725536489859e-05,1.6227579180849716e-05,-9.25075619306881e-06,6.026223854860291e-05
2.71315348072676e-05,-8.581040310673416e-05,-6.339632091112435e-05,3.2518037187401205e-05,-3.4990971471415833e-06,7.236852979985997e-05
2.0912768377456814e-05,-8.81638698047027e-05,-8.768821135163307e-05,4.426037412486039e-05,-3.6398880638444098e-06,7.173408812377602e-05
9.56694748310838e-07,-8.553233783459291e-05,3.0509449061355554e-05,3.5768691304838285e-05,-8.149761924869381e-06,6.004018723615445e-05
-6.356058747769566e-06,-8.100969716906548e-05,0.00023398683697450906,1.724071626085788e-05,-4.914204964734381e-06,4.469696796149947e-05
2.6352922759542707e-06,-8.362434891751036e-05,0.0003952479746658355,1.5145441466302145e-05,5.759064151789062e-06,4.0551236452301964e-05
1.1161030670336913e-05,-9.192739526042715e-05,0.00045043224235996604,2.760670759016648e-05,7.4964400482713245e-06,4.8235520807793364e-05
1.8322876712772995e-05,-9.16810822673142e-05,0.00041185232112184167,4.170346801402047e-05,3.616689809859963e-06,5.4308318794937804e-05
2.753919397946447e-05,-7.11590691935271e-05,0.0002902320702560246,4.850790719501674e-05,-4.42905957243056e-06,5.4120759159559384e-05
3.854815076920204e-05,-5.1726157835219055e-05,4.6356090024346486e-05,3.403073424124159e-05,-2.1359748643590137e-05,5.134454841027036e-05
4.700047793448903e-05,-5.207493813941255e-05,-0.00031544463126920164,2.411576315353159e-05,-3.383039802429266e-05,5.0607064622454345e-05
4.8905327275861055e-05,-6.849313649581745e-05,-0.0005832135211676359,2.4155953724402934e-05,-3.232722156099044e-05,4.879795233136974e-05
4.223926953272894e-05,-8.113610238069668e-05,-0.0005387389101088047,2.688935819605831e-05,-2.3101563783711754e-05,5.103423245600425e-05
3.138375177513808e-05,-7.526982517447323e-05,-0.0002803474199026823,3.2803942303871736e-05,-1.7585647583473474e-05,5.3435487643582746e-05
2.7284999305265956e-05,-6.776400550734252e-05,-5.611117376247421e-05,3.351089253555983e-05,-1.9667460946948268e-05,5.039340248913504e-05
2.9254115361254662e-05,-7.757007551845163e-05,2.5567735065123998e-05,2.8667262085946277e-05,-2.780754948616959e-05,4.528720455709845e-05
2.8521140848170035e-05,-8.386051194975153e-05,1.1668074876070023e-05,2.4191975171561353e-05,-3.636595283751376e-05,5.288629108690657e-05
2.5293698854511604e-05,-6.369632319547236e-05,-2.2427659587265225e-06,2.9777365853078663e-05,-3.849121640087105e-05,6.847985059721395e-05
2.3478058210457675e-05,-2.0522189515759237e-05,1.1306623491691425e-05,4.407414235174656e-05,-3.0288223570096307e-05,7.775857375236228e-05
2.4251692593679763e-05,2.229449455626309e-05,3.578372343326919e-05,5.6248441978823394e-05,-1.6486033928231336e-05,8.493562927469611e-05
2.9039809305686504e-05,5.0606715376488864e-05,3.575248410925269e-05,5.5950651585590094e-05,-4.674926458392292e-06,9.053992835106328e-05
3.595748421503231e-05,6.322642730083317e-05,3.2756618111307034e-06,4.553468897938728e-05,6.578625288966578e-07,8.785799582256004e-05
3.431254663155414e-05,6.373099313350394e-05,-3.4973007132066414e-05,3.1633677281206474e-05,-1.6788430912129115e-06,7.328845094889402e-05
2.286947528773453e-05,5.387390046962537e-05,-5.156687257112935e-05,1.6758865967858583e-05,-1.133664045482874e-05,5.436820356408134e-05
1.5585534129058942e-05,3.958195520681329e-05,-5.8268495195079595e-05,6.70506324240705e-06,-2.190230406995397e-05,3.701604873640463e-05
1.8708451534621418e-05,2.80708718491951e-05,-6.092458716011606e-05,1.5317658835556358e-05,-2.6285308194928803e-05,2.586265873105731e-05
2.16192511288682e-05,1.2630121091206092e-05,-4.682267899625003e-05,3.38278514391277e-05,-2.7192014385946095e-05,2.5155924959108233e-05
1.6533402231289074e-05,-1.1737249224097468e-05,-2.2892660126672126e-05,3.812184513662942e-05,-2.6045916456496343e-05,3.233307506889105e-05
1.0868148820009083e-05,-3.447469134698622e-05,-7.544269465142861e-06,3.309506064397283e-05,-2.337152727704961e-05,4.2588904761942104e-05
1.195840559375938e-05,-4.5125252654543146e-05,5.704417617380386e-06,3.377197572262958e-05,-2.3411015718011186e-05,6.765643774997443e-05
1.6044943549786694e-05,-4.93121006002184e-05,4.59243638033513e-05,3.250595909776166e-05,-2.393515569565352e-05,9.564437641529366e-05
1.7230217054020613e-05,-5.656164648826234e-05,0.0001307688798988238,3.696735802805051e-05,-2.0888190192636102e-05,0.00010107419802807271
1.8274953617947176e-05,-7.061036740196869e-05,0.00019904492364730686,4.810638347407803e-05,-1.7324997315881774e-05,8.667025394970551e-05
1.9197494111722335e-05,-9.297893120674416e-05,0.0001832980924518779,3.965299765695818e-05,-1.4068787095311563e-05,4.7276327677536756e-05
1.6317768313456327e-05,-0.00010591700265649706,8.634106779936701e-05,2.3746924853185192e-05,-4.662561423174338e-06,1.0899915423578932e-06
5.8715386330732144e-06,-9.592422429705039e-05,-5.382428571465425e-05,2.9969882234581746e-05,8.615746992290951e-06,-6.451968147302978e-06
-2.253513412142638e-05,-8.350917778443545e-05,-0.00011597046250244603,4.4223306758794934e-05,8.643440196465235e-06,1.418713236489566e-05
-5.6768902140902355e-05,-8.34218953968957e-05,-5.959984991932288e-05,4.1625582525739446e-05,-6.796560683142161e-06,2.4391300030401908e-05
-5.98001315665897e-05,-9.5008646894712e-05,2.3675436750636436e-05,3.72923823306337e-05,-1.6213081835303456e-05,2.4400056645390578e-05
-2.058740210486576e-05,-0.00010277763794874772,7.685048331040889e-05,4.388191155157983e-05,-6.510178991447901e-06,3.810585621977225e-05
3.145031587337144e-05,-0.0001001738928607665,7.469866250175983e-05,5.2513536502374336e-05,4.971021553501487e-06,5.937588503002189e-05
6.25898246653378e-05,-8.682381303515285e-05,4.2943021981045604e-05,5.4948734032223e-05,8.246581273851916e-06,6.310231401585042e-05
8.13642400316894e-05,-6.558525637956336e-05,6.957319328648737e-06,4.31261069024913e-05,9.60200577537762e-06,5.2132640121271834e-05
0.00010665795707609504,-4.431631532497704e-05,-4.147241997998208e-05,2.315742676728405e-05,1.1656477909127716e-05,4.7975656343623996e-05
0.00011718530731741339,-2.5051618649740703e-05,-6.927377398824319e-05,1.7312644558842294e-05,1.3874456271878444e-05,6.010959259583615e-05
8.720584446564317e-05,-9.233462151314598e-06,-8.528806574759074e-06,2.83815898001194e-05,1.5969741070875898e-05,7.805208588251844e-05
3.4149663406424224e-05,-8.860131856636144e-06,0.0001263864105567336,3.9016078517306596e-05,2.2911126507096924e-05,9.587838576408103e-05
8.27414623927325e-07,-2.639885678945575e-05,0.0002715514274314046,3.799554906436242e-05,3.310570536996238e-05,0.00010627178562572226
4.998448730475502e-06,-4.745028854813427e-05,0.0003833132504951209,2.9627759431605227e-05,3.7982095818733796e-05,9.930308442562819e-05
2.8319254852249287e-05,-6.285597191890702e-05,0.00040259555680677295,1.9937922843382694e-05,3.133500285912305e-05,8.702614286448807e-05
4.6736440708627924e-05,-8.111395436571911e-05,0.0002832822210621089,7.547967925347621e-06,1.6589554434176534e-05,7.788937364239246e-05
5.040748146711849e-05,-0.00011096405069110915,8.5429783212021e-05,-3.372756282260525e-06,2.5620688575145323e-06,6.32254668744281e-05
4.538922439678572e-05,-0.00013480080815497786,-7.475342135876417e-05,3.7088167914589576e-07,-8.119211997836828e-06,5.0226815801579505e-05
3.9516940887551755e-05,-0.00013419988681562245,-0.00019165848789270967,1.3512495570466854e-05,-1.898354457807727e-05,5.3867501264903694e-05
2.2693784558214247e-05,-0.00011008735600626096,-0.00024720991495996714,1.9422835976001807e-05,-2.9503567930078134e-05,7.03476689523086e-05
-1.2058748325216584e-05,-7.182674016803503e-05,-0.00020071376638952643,2.4241691789939068e-05,-3.014901449205354e-05,9.398258407600224e-05
-4.7091532906051725e-05,-3.146581366308965e-05,-0.00011497200466692448,3.096559157711454e-05,-2.1516270862775855e-05,0.00011388818529667333
-4.73827458336018e-05,-1.8968950143971597e-07,-4.790839375345968e-05,3.47931454598438e-05,-1.5529651136603206e-05,0.00011165054456796497
-6.10549568591523e-06,2.519717781979125e-05,3.0089659048826434e-06,3.984415525337681e-05,-1.733546559989918e-05,8.274199353763834e-05
3.5805642255581915e-05,4.44914803665597e-05,6.289231532718986e-05,4.00320568587631e-05,-2.628622496558819e-05,3.815925811068155e-05
5.668730227625929e-05,5.325484380591661e-05,0.00014106917660683393,3.2323823688784614e-05,-3.8879330531926826e-05,-2.070292339340085e-06
6.389249028870836e-05,4.3524953071027994e-05,0.00020082735863979906,2.5984567400882952e-05,-3.7256151699693874e-05,-3.6183464544592425e-06
6.328007293632254e-05,1.4586168617825024e-05,0.0002052182680927217,1.7037753423210233e-05,-2.5035187718458474e-05,2.053803655144293e-05
6.0742713685613126e-05,-1.4358661246660631e-05,0.00013240201224107295,1.2496732779254671e-05,-1.9062050341744907e-05,3.082073089899495e-05
5.106676326249726e-05,-2.9830471248715185e-05,3.277480209362693e-05,2.1255127649055794e-05,-1.7159192793769762e-05,3.541695696185343e-05
2.7061771106673405e-05,-3.5011722502531484e-05,1.4616250155086163e-05,3.403418668312952e-05,-2.3346117814071476e-05,4.0568986150901765e-05
5.6585718084534165e-06,-3.6189117963658646e-05,7.04151316313073e-05,4.34123539889697e-05,-2.924683940364048e-05,5.2268587751314044e-05
1.2530374988273252e-05,-3.6278481275076047e-05,0.00017447423306293786,5.411391975940205e-05,-2.0735786165460013e-05,6.477398710558191e-05
4.5134296669857576e-05,-2.933053474407643e-05,0.0003254312905482948,6.291087629506364e-05,-2.0065212993358728e-06,6.780396506655961e-05
6.712903268635273e-05,-1.9829822122119367e-05,0.0004320605657994747,5.8134661230724305e-05,6.78709056955995e-06,5.1466435252223164e-05
5.247211083769798e-05,-1.538799006084446e-05,0.00042269297409802675,4.0612543671159074e-05,3.948924586438807e-06,2.9052023819531314e-05
2.312560536665842e-05,-2.0317311282269657e-05,0.00027768759173341095,2.0743729692185298e-05,1.2063242138538044e-06,2.9855042157578282e-05
7.044258836685913e-06,-3.869373904308304e-05,3.115890285698697e-05,8.854009138303809e-06,-1.7615730030229315e-06,4.788640944752842e-05
1.2083881301805377e-05,-6.236526678549126e-05,-0.00017939394456334412,1.2543507182272151e-05,-8.373101081815548e-06,5.908200182602741e-05
2.5809260478126816e-05,-8.100506238406524e-05,-0.00019835247076116502,2.9502843972295523e-05,-1.1723549505404662e-05,5.8553861890686676e-05
3.17214617098216e-05,-8.726630039745942e-05,-7.043671212159097e-05,4.200817784294486e-05,-3.890230345859891e-06,6.219047645572573e-05
2.7408712412579916e-05,-7.734005339443684e-05,3.033960638276767e-05,3.7871730455663055e-05,5.781968866358511e-06,7.69306716392748e-05
2.4468903575325385e-05,-5.8672685554483905e-05,1.3354053407965694e-05,2.112357469741255e-05,5.490686589837424e-07,9.183248039335012e-05
2.894683348131366e-05,-5.14748171553947e-05,-5.463205525302328e-05,7.290087069122819e-06,-1.946938209584914e-05,8.834047912387177e-05
2.935943666670937e-05,-5.881073957425542e-05,-7.681516763113905e-06,9.877077900455333e-06,-3.4905442589661106e-05,7.20039606676437e-05
1.5210500350804068e-05,-5.9313410019967705e-05,0.00014551644562743604,2.0549903638311662e-05,-3.593794099288061e-05,6.947809015400708e-05
-1.0377771104685962e-05,-4.06966864829883e-05,0.0002350386348553002,1.6696600141585805e-05,-2.7967034839093685e-05,8.275304571725428e-05
-3.665707481559366e-05,-2.1277541236486286e-05,0.00011944757716264576,-2.128236474163714e-06,-2.6471796445548534e-05,8.877497020876035e-05
-5.384311589295976e-05,-2.5017259758897126e-05,-0.0002269514079671353,-2.5998126602644334e-06,-3.399297929718159e-05,8.75500772963278e-05
-5.9488073020474985e-05,-4.744168109027669e-05,-0.0005491000483743846,3.052705142181367e-05,-4.314039324526675e-05,8.794524910626933e-05
-5.098310793982819e-05,-7.01594035490416e-05,-0.0005527124158106744,6.254803156480193e-05,-4.764000550494529e-05,8.247849473264068e-05
-2.549035161791835e-05,-8.325304952450097e-05,-0.0003214147873222828,7.138328510336578e-05,-4.333205652073957e-05,5.305037120706402e-05
9.543491614749655e-06,-8.618142601335421e-05,-7.73090505390428e-05,6.352919444907457e-05,-2.911525734816678e-05,1.378839988319669e-05
4.672739305533469e-05,-8.136811084114015e-05,5.2154016884742305e-05,5.293585127219558e-05,-1.8164055290981196e-05,-1.7276652215514332e-06
6.171421409817412e-05,-7.258856203407049e-05,7.939174975035712e-05,4.154898124397732e-05,-1.649219666433055e-05,5.723384219891159e-06
4.37303569924552e-05,-7.452743739122525e-05,9.491269884165376e-05,2.7054700694861822e-05,-1.720450381981209e-05,1.8021662981482223e-05
2.070822120003868e-05,-9.194426820613444e-05,9.38090670388192e-05,1.4673642908746842e-05,-1.5400151823996566e-05,2.9467655622283928e-05
1.9821598471025936e-05,-0.00011270573304500431,5.033681736676954e-05,1.5537794979536557e-06,-7.0061610131233465e-06,4.230560807627626e-05
3.415007086005062e-05,-0.00012060296285199001,-2.4331022359547205e-05,-4.079417522007134e-06,2.3964534534570703e-07,6.139610195532441e-05
4.295986218494363e-05,-0.00011540199193404987,-4.856212763115764e-05,3.781081431952771e-06,8.651936695969198e-07,7.594752969453111e-05
3.750829637283459e-05,-0.00010332850069971755,-2.2033251298125833e-05,1.1518139217514545e-05,-4.076349341630703e-06,7.658456161152571e-05
2.1945572370896116e-05,-8.536938548786566e-05,-1.0368703584617833e-07,7.975362677825615e-06,-6.246693374123424e-06,6.736296199960634e-05
1.1252604963374324e-05,-6.155779556138441e-05,1.709357547952095e-06,9.310239761362027e-07,-4.549998266156763e-06,5.973184670438059e-05
1.923793024616316e-05,-3.873598325299099e-05,-7.324333637370728e-06,-2.0101620066270698e-06,8.317548605418779e-08,5.335333844413981e-05
3.682819442474283e-05,-2.913746538979467e-05,-1.3061217941867653e-05,-3.3261662792938296e-06,4.046898538945243e-06,4.088229252374731e-05
4.30515174230095e-05,-3.084349737036973e-05,-1.1778654879890382e-05,-1.0777370107462048e-06,4.373366664367495e-06,2.9018214263487607e-05
3.176249811076559e-05,-3.462976746959612e-05,3.4151705676777055e-06,1.1673005246848334e-05,3.77318610844668e-06,3.0348648579092696e-05
1.2364333997538779e-05,-3.284965350758284e-05,2.7962752938037738e-05,3.320394171169028e-05,4.50278139396687e-06,4.637725942302495e-05
-7.129133791750064e-06,-2.408406180620659e-05,6.0797516198363155e-05,5.366604818846099e-05,6.533193754876265e-06,6.377474346663803e-05
-2.3574464648845606e-05,-1.1136998182337265e-05,8.090128540061414e-05,6.263092654990032e-05,5.606377726508072e-06,7.199549145298079e-05
-2.6766361770569347e-05,-7.055302262415353e-07,7.890411507105455e-05,5.8061221352545545e-05,1.2821261634599068e-06,7.309337524930015e-05
-1.0599695087876171e-05,-8.408700296058669e-07,6.017479972797446e-05,5.057926682638936e-05,-1.4146224884825642e-06,7.407661178149283e-05
1.3208626114646904e-05,-1.5171301129157655e-05,4.744235775433481e-05,4.595917198457755e-05,-2.0524299770841026e-07,7.446757081197575e-05
2.6803525543073192e-05,-2.9920802262495272e-05,4.495649773161858e-05,4.290643846616149e-05,-8.491262093457408e-08,7.777097926009446e-05
3.486110654193908e-05,-3.526363070704974e-05,5.2518378652166575e-05,4.37577000411693e-05,-1.5788181144671398e-06,7.564789848402143e-05
4.716372859547846e-05,-3.64958614227362e-05,5.853991024196148e-05,4.753647226607427e-05,-1.908948206619243e-06,5.7110461057163775e-05
5.6631815823493525e-05,-3.82762991648633e-05,6.17085097474046e-05,5.010982204112224e-05,2.2873302896186942e-06,4.046369940624572e-05
5.327444523572922e-05,-4.340947634773329e-05,5.231689283391461e-05,4.595141945173964e-05,8.289988727483433e-06,4.3872591049876064e-05
4.037122562294826e-05,-4.7579997044522315e-05,2.8689082682831213e-05,3.167558315908536e-05,9.410669917997438e-06,5.935656372457743e-05
2.513019171601627e-05,-4.573753903969191e-05,1.091706599254394e-05,1.2890511243313085e-05,4.181036274530925e-06,8.668792725075036e-05
1.720973705232609e-05,-4.911090218229219e-05,1.4913697668816894e-05,8.773320587351918e-06,-3.3651704143267125e-06,9.400949056725949e-05
1.8607976016937755e-05,-6.424838647944853e-05,4.228904435876757e-05,2.0442501408979297e-05,-7.567885859316448e-06,7.11045358912088e-05
1.4257288057706319e-05,-8.053224883042276e-05,8.844395051710308e-05,3.955500142183155e-05,-8.636503480374813e-06,5.803997191833332e-05
2.3552518086944474e-06,-9.019896242534742e-05,0.00012103880726499483,6.0077323723817244e-05,-1.391268233419396e-05,6.366154411807656e-05
-9.679664799477905e-06,-9.520649473415688e-05,0.00011436275963205844,6.549272075062618e-05,-2.2600066586164758e-05,5.935356603004038e-05
-1.5166003322519828e-05,-0.00010124100663233548,9.049668733496219e-05,5.427368523669429e-05,-3.069883314310573e-05,3.235714393667877e-05
-9.24434425542131e-06,-0.00010065346577903256,6.618350016651675e-05,3.773326170630753e-05,-3.286372157162987e-05,7.653222382941749e-06
4.192274445813382e-06,-8.514676301274449e-05,4.727039049612358e-05,3.1813666282687336e-05,-2.5309991542599164e-05,9.224236237059813e-06
2.1145082428120077e-05,-6.380178092513233e-05,3.826414103969e-05,3.2770767575129867e-05,-1.453357981517911e-05,4.108016946702264e-05
4.185297075309791e-05,-5.198314102017321e-05,4.116349737159908e-05,3.214161188225262e-05,-1.1778863154177088e-05,7.693224324611947e-05
6.26961700618267e-05,-5.1724680815823376e-05,4.761377567774616e-05,2.961241261800751e-05,-1.9186198187526315e-05,9.699615475255996e-05
6.917401333339512e-05,-6.048591967555694e-05,6.513670086860657e-05,3.0322165912366472e-05,-3.0458211767836474e-05,9.657035116106272e-05
5.19099339726381e-05,-7.463710790034384e-05,0.0001083883544197306,3.5195651435060427e-05,-3.751673284568824e-05,7.814267155481502e-05
2.442253207846079e-05,-8.540774433640763e-05,0.00016839985619299114,4.056096440763213e-05,-3.7589863495668396e-05,5.291877459967509e-05
6.550995294674067e-06,-8.475344657199457e-05,0.00020145709277130663,4.333288234192878e-05,-3.6597299185814336e-05,4.057704427395947e-05
1.8298761688129161e-06,-7.628319144714624e-05,0.00018335451022721827,4.278560300008394e-05,-3.554028080543503e-05,4.842305861529894e-05
6.663988642685581e-06,-6.861482688691467e-05,0.0001331483799731359,3.7581008655251935e-05,-2.899233004427515e-05,6.33280142210424e-05
2.218541703769006e-05,-6.328909512376413e-05,6.952059629838914e-05,2.8279731850489043e-05,-1.3072612091491465e-05,7.121995440684259e-05
4.577728032018058e-05,-6.199294875841588e-05,-5.922232503507985e-06,2.2754502424504608e-05,8.416597665927839e-06,7.167965668486431e-05
6.586599920410663e-05,-5.928850805503316e-05,-5.024633719585836e-05,2.7699275960912928e-05,2.814133040374145e-05,7.206400186987594e-05
7.558734796475619e-05,-4.616760270437226e-05,-5.076803790871054e-05,3.6804660339839756e-05,4.018883919343352e-05,7.028986146906391e-05
7.294397073565051e-05,-3.0530194635502994e-05,-5.328986662789248e-05,3.416715844650753e-05,4.577332947519608e-05,6.126286461949348e-05
5.918132228543982e-05,-3.427519550314173e-05,-2.437925650156103e-05,2.0720473912660964e-05,4.321429878473282e-05,4.4750220695277676e-05
4.4164513383293524e-05,-5.7995548559119925e-05,3.8917620258871466e-05,8.428070032096002e-06,3.203091910108924e-05,3.3109878131654114e-05
3.184194065397605e-05,-7.078138878569007e-05,5.457755833049305e-06,6.230288818187546e-06,1.761484418238979e-05,3.9775164623279124e-05
1.8836168237612583e-05,-5.839898585691117e-05,-9.104100900003687e-05,1.618000715097878e-05,5.469014467962552e-06,5.69384174013976e-05
3.118821950920392e-06,-4.584189082379453e-05,-7.385943899862468e-05,3.8967995351413265e-05,-5.494082415680168e-07,6.478785508079454e-05
-1.0879324690904468e-05,-5.0188449677079916e-05,3.1037645385367796e-05,5.95199380768463e-05,-2.160567191822338e-06,5.9817222791025415e-05
-1.978985710593406e-05,-4.9227459385292605e-05,0.00010438999743200839,6.655474862782285e-05,-1.1164660236318014e-06,5.992272781440988e-05
-2.111864523612894e-05,-2.9523544071707875e-05,0.00012071537639712915,5.7442812249064445e-05,-1.1878923942276742e-06,6.829266203567386e-05
-2.7847496312460862e-05,4.988249315829307e-07,0.0001074845131370239,3.807738539762795e-05,-1.0536355148360599e-05,6.886100891279057e-05
-3.9499238482676446e-05,3.6818033549934626e-05,0.00011904191342182457,2.316562859050464e-05,-2.3285681891138665e-05,5.8703059039544314e-05
-2.5135246687568724e-05,7.122142415028065e-05,0.00016685479204170406,2.309583760506939e-05,-2.864090129151009e-05,4.74091139039956e-05
1.1263999112998135e-05,9.264487744076177e-05,0.00017439783550798893,2.8060379918315448e-05,-2.1018126062699594e-05,4.8664453061064705e-05
3.614778688643128e-05,8.700182661414146e-05,9.713839244795963e-05,2.541177127568517e-05,-5.748585408582585e-06,5.742851135437377e-05
2.0720863176393323e-05,5.730613702326082e-05,-3.3333758437947836e-06,1.9977114789071493e-05,2.0908587430312764e-06,6.069162554922514e-05
-2.3268336008186452e-05,2.1077552446513437e-05,-8.429061563219875e-05,1.7887992726173252e-05,-3.218175834263093e-06,5.97224643570371e-05
-6.191121065057814e-05,-1.0918689440586604e-05,-0.00013180154201108962,1.4980639207351487e-05,-1.4033989828021731e-05,6.43324019620195e-05
-7.832407573005185e-05,-3.717583604156971e-05,-0.00011853377509396523,9.35152820602525e-06,-1.97547378775198e-05,7.006732630543411e-05
-7.563412509625778e-05,-5.632376269204542e-05,-4.6978540922282264e-05,1.3126420526532456e-05,-1.9906983652617782e-05,7.186162838479504e-05
-5.589050124399364e-05,-6.821531860623509e-05,1.8481538063497283e-05,2.4852919523254968e-05,-2.3128061002353206e-05,6.933679833309725e-05
-1.4752968127140775e-05,-7.46065634302795e-05,2.5824268959695473e-05,2.8482436391641386e-05,-3.42167513736058e-05,6.207001570146531e-05
4.5991651859367266e-05,-7.825081411283463e-05,5.2281802709330805e-06,2.172772292396985e-05,-4.258602348272689e-05,5.3099847718840465e-05
0.00010971738083753735,-8.098959369817749e-05,2.7976821002084762e-05,2.099872290273197e-05,-3.733622725121677e-05,5.108643745188601e-05
0.0001475775643484667,-8.420864469371736e-05,0.00011724243086064234,3.159917832817882e-05,-2.2978098058956675e-05,5.942256757407449e-05
0.00014418683713302016,-8.783137309364974e-05,0.00020643719471991062,4.315520709496923e-05,-1.1092712156823836e-05,6.480352021753788e-05
0.00010714377276599407,-8.742122736293823e-05,0.00023292760306503624,4.368630834505893e-05,-5.9013777899963316e-06,6.396310345735401e-05
6.066304922569543e-05,-7.518802158301696e-05,0.00018248728883918375,3.0023149520275183e-05,-6.168595064082183e-06,6.267398566706106e-05
2.6672098101698793e-05,-4.744208126794547e-05,5.1071285270154476e-05,7.011802608758444e-06,-7.541074410255533e-06,6.283511174842715e-05
2.5149087377940305e-05,-2.652686816873029e-05,-0.00013288497575558722,-1.2090704331058078e-05,-9.448474884266034e-06,6.486457277787849e-05
4.6653280151076615e-05,-3.1378393032355234e-05,-0.00019910826813429594,-1.4594888853025623e-05,-1.773097574186977e-05,6.991669215494767e-05
5.6930668506538495e-05,-5.0526508857728913e-05,-8.773673471296206e-05,-8.917690138332546e-06,-2.8574539101100527e-05,7.463409565389156e-05
4.7200785047607496e-05,-6.048916475265287e-05,6.319255044218153e-05,6.108079560362967e-06,-2.569061325630173e-05,8.380008512176573e-05
2.7450834750197828e-05,-5.435276034404524e-05,0.00019609209266491234,3.0132679967209697e-05,-1.2590175174409524e-05,9.851760842138901e-05
1.4186287444317713e-05,-4.1479004721622914e-05,0.00027070759097114205,2.8638363801292144e-05,-5.499309736478608e-06,9.906087507260963e-05
2.7387242880649865e-05,-3.4094733564415947e-05,0.0002509552869014442,1.63919849001104e-05,-4.358479145594174e-06,6.0173642850713804e-05
5.1739541959250346e-05,-3.690235098474659e-05,0.00018061610171571374,2.471952211635653e-05,-1.8629863234309596e-06,1.4710569303133525e-05
5.402123133535497e-05,-4.053605516673997e-05,8.948020695243031e-05,2.901182961068116e-05,-3.101690708717797e-06,1.5694131434429437e-06
3.807986286119558e-05,-3.688642755150795e-05,-6.081510946387425e-05,9.220389983966015e-06,-1.5928289940347895e-05,-4.927262580167735e-07
3.0219198379199952e-05,-2.6201132641290314e-05,-0.00022610611631534994,-3.5824273254547734e-06,-2.8419965019566007e-05,6.826322533015627e-06
3.335972360218875e-05,-1.6505013263667934e-05,-0.00028513665893115103,2.7040219720220193e-05,-3.126814044662751e-05,3.7552337744273245e-05
3.6221605114405975e-05,-2.0796662283828482e-05,-0.00022652109328191727,6.58712669974193e-05,-2.730453161348123e-05,6.926919013494626e-05
3.131711491732858e-05,-4.4011190766468644e-05,-0.00013583047257270664,7.385274511761963e-05,-2.3129270630306564e-05,7.323365571210161e-05
2.1186004232731648e-05,-7.401043694699183e-05,-7.914706657174975e-05,5.94290868320968e-05,-2.435776696074754e-05,5.82698812650051e-05
1.1564329724933486e-05,-9.489543299423531e-05,-5.503975262399763e-05,3.8259058783296496e-05,-2.9681497835554183e-05,4.619597893906757e-05
8.977333891380113e-06,-0.00010424963693367317,-4.6024175389902666e-05,2.1798050511279143e-05,-3.2571726478636265e-05,4.386283762869425e-05
1.2383798093651421e-05,-0.00010184614802710712,-3.761639891308732e-05,1.893334774649702e-05,-3.046477650059387e-05,4.865246592089534e-05
1.5525614799116738e-05,-8.8213782873936e-05,-2.8329925044090487e-05,3.1273764761863276e-05,-2.4037983166635968e-05,5.523250001715496e-05
2.20628335227957e-05,-6.935423152754083e-05,-1.9802822862402536e-05,4.4389336835592985e-05,-1.3717728506890126e-05,6.17522673564963e-05
3.31816881953273e-05,-5.643629265250638e-05,-1.3620041499962099e-05,4.822011760552414e-05,-3.495167447908898e-06,6.361660780385137e-05
3.401167850825004e-05,-5.313149813446216e-05,-3.2207691447183606e-07,4.5351203880272806e-05,2.157732978957938e-06,5.683655399479903e-05
1.5547579096164554e-05,-5.340016650734469e-05,2.6154881197726354e-05,4.051128416904248e-05,4.411218924360583e-06,5.049022365710698e-05
-5.768737537437119e-06,-5.315386442816816e-05,5.7321536587551236e-05,3.2539941457798705e-05,5.784058885183185e-06,5.2401406719582155e-05
-9.737439540913329e-06,-5.8368928876006976e-05,7.921691576484591e-05,2.1170213585719466e-05,4.386987711768597e-06,5.543783845496364e-05
7.402000392175978e-06,-7.110537262633443e-05,8.826414705254138e-05,1.3778881111647934e-05,-2.108362878061598e-06,5.332836008165032e-05
2.856459468603134e-05,-8.25011229608208e-05,8.969004557002336e-05,1.4717831618327182e-05,-8.068762326729484e-06,4.9624981329543516e-05
4.002688729087822e-05,-9.016697731567547e-05,7.911599095677957e-05,2.4843473511282355e-05,-6.679233592876699e-06,5.491901174536906e-05
4.850943514611572e-05,-9.248105197912082e-05,4.830881880479865e-05,3.9151225792011246e-05,-2.299413608852774e-06,6.990360270719975e-05
5.568132837652229e-05,-8.946457091951743e-05,2.8821441446780227e-05,4.6382072468986735e-05,1.384940219395503e-06,7.738186832284555e-05
4.827823067898862e-05,-8.352733129868284e-05,5.231203249422833e-05,4.470788553589955e-05,4.428667125466745e-06,7.146025018300861e-05
2.6670861188904382e-05,-6.316954386420548e-05,7.982259558048099e-05,4.1115155909210443e-05,4.3528098103706725e-06,6.684193067485467e-05
1.6537721876375144e-06,-3.8460842915810645e-05,7.962834934005514e-05,4.025463931611739e-05,1.8231180547445547e-06,7.065082172630355e-05
-1.589601015439257e-05,-3.267902138759382e-05,5.610707376035862e-05,3.981156987720169e-05,-2.6194859401584836e-06,8.108432666631415e-05
-2.1057709091110155e-05,-3.684927287395112e-05,3.1790426874067634e-05,3.718700463650748e-05,-1.0835192369995639e-05,8.696350414538756e-05
-1.3808436051476747e-05,-4.706190520664677e-05,2.0293871784815565e-05,2.7131789465784095e-05,-1.5995152352843434e-05,7.165517308749259e-05
6.585623282262532e-07,-5.871098255738616e-05,2.204620250267908e-05,2.0334797227405943e-05,-1.3295146345626563e-05,5.169977157493122e-05
1.3535183825297281e-05,-6.477002170868218e-05,2.2563921447726898e-05,2.7127978682983667e-05,-7.354759418376489e-06,4.538745270110667e-05
2.100364326906856e-05,-6.901992310304195e-05,1.844008693296928e-06,3.1133204174693674e-05,-5.840940502821468e-06,3.8843780203023925e-05
2.778850648610387e-05,-6.718876102240756e-05,-1.7370563000440598e-05,2.662760925886687e-05,-7.755113983876072e-06,3.6993584217270836e-05
3.130371987936087e-05,-5.640017843688838e-05,-6.956924153200816e-06,2.1499123249668628e-05,-8.752730536798481e-06,4.767133214045316e-05
2.7088928618468344e-05,-4.670776252169162e-05,2.3946357032400556e-05,2.385299558227416e-05,-8.176680239557754e-06,5.675380089087412e-05
1.968175456568133e-05,-4.380495738587342e-05,5.927921665715985e-05,2.9124375942046754e-05,-8.544359843654092e-06,5.583534584729932e-05
1.5264928151736967e-05,-4.429880573297851e-05,9.531696559861302e-05,3.0295450414996594e-05,-1.184884604299441e-05,5.6313350796699524e-05
1.5968400475685485e-05,-4.137878931942396e-05,0.00012585568765643984,2.900774052250199e-05,-1.5588653695886023e-05,6.659403152298182e-05
1.9937522665713914e-05,-3.384031151654199e-05,0.0001424142246833071,3.279336669947952e-05,-1.6593832697253674e-05,7.434561848640442e-05
2.1866730094188824e-05,-3.1657065846957266e-05,0.00015316568897105753,4.0621736843604594e-05,-1.4747873137821443e-05,7.303021266125143e-05
1.4406939044420142e-05,-4.242456270731054e-05,0.000161233518156223,4.276339677744545e-05,-1.200657516164938e-05,6.954053969820961e-05
2.174066594307078e-06,-5.844829138368368e-05,0.00015255381003953516,3.277136784163304e-05,-8.819483809929807e-06,6.889685755595565e-05
-2.6765319489641115e-06,-6.45286199869588e-05,9.752526966622099e-05,1.5742965842946433e-05,-6.534716703754384e-06,7.242075662361458e-05
5.314201416695141e-07,-5.629930456052534e-05,-1.3176098036637995e-05,5.505244644155027e-06,-4.984966835763771e-06,8.111074566841125e-05
7.816813194949646e-06,-4.1623483411967754e-05,-0.00010885571100516245,1.3599769772554282e-05,-2.8640288292081095e-06,8.491773041896522e-05
2.215686981799081e-05,-3.3286916732322425e-05,-9.401618444826454e-05,3.436457700445317e-05,-1.6023323041736148e-06,7.938965427456424e-05
2.9993472708156332e-05,-3.6640030884882435e-05,-9.271653652831446e-06,4.5772045268677175e-05,-4.152599103690591e-06,6.275538180489093e-05
1.900212373584509e-05,-4.686849206336774e-05,4.327626811573282e-05,4.148982770857401e-05,-1.153161338152131e-05,3.742222543223761e-05
2.962045527965529e-06,-5.3730927902506664e-05,4.505740798776969e-05,3.1805662729311734e-05,-2.1769759769085795e-05,2.632459109008778e-05
2.5311962872365257e-06,-5.3317715355660766e-05,2.7551137463888153e-05,3.0525403417414054e-05,-2.4401902919635177e-05,4.262621951056644e-05
1.6846648577484302e-05,-6.06031171628274e-05,1.9699853510246612e-05,3.710730015882291e-05,-1.5236126273521222e-05,7.414245192194358e-05
3.8174985093064606e-05,-8.634780533611774e-05,2.0720017346320674e-05,3.802625724347308e-05,-1.3626394093080307e-06,0.00010044626833405346
6.584764196304604e-05,-0.00010943140659946948,1.9290098862256855e-05,2.8103853765060194e-05,7.177991392381955e-06,0.00010059412306873128
8.021634857868776e-05,-0.00011439968511695042,1.2558705748233479e-05,2.0804160158149898e-05,8.417244316660799e-06,8.504214201821014e-05
6.913887045811862e-05,-0.0001030545390676707,7.453636499121785e-06,2.1652309442288242e-05,6.7927253439847846e-06,6.902013410581276e-05
4.701678335550241e-05,-8.699832687852904e-05,1.3414581189863384e-05,1.6936679458012804e-05,-6.023141168043367e-07,3.159619518555701e-05
3.147817187709734e-05,-7.707085023866966e-05,5.1208884542575106e-05,1.7337899407721125e-05,-6.962582119740546e-06,3.43759751331163e-07
3.134270809823647e-05,-6.539648165926337e-05,0.00010496561299078166,2.7067275368608534e-05,-3.4914762636617525e-06,9.360926924273372e-06
4.197625457891263e-05,-4.307728522690013e-05,0.00012973581033293158,2.9257129426696338e-05,2.790992539303261e-06,3.2629443012410775e-05
5.1944240112788975e-05,-1.6395986676798202e-05,0.00010827486403286457,2.2535008611157537e-05,5.606482773146126e-06,4.762797834700905e-05
5.183719622436911e-05,-1.0243358701700345e-05,4.188710590824485e-05,1.5012265976110939e-05,6.7555160967458505e-06,5.284713552100584e-05
4.066131077706814e-05,-2.9793787689413875e-05,-3.947881850763224e-05,1.720766886137426e-05,7.498219474655343e-06,5.62127934244927e-05
2.3797188987373374e-05,-5.3172225307207555e-05,-6.746275175828487e-05,2.7351004973752424e-05,4.209544840705348e-06,5.491822594194673e-05
6.603374913538573e-06,-6.40157813904807e-05,-1.864168734755367e-05,3.62588107236661e-05,-1.8216152284367126e-06,5.1134171371813864e-05
-8.814740795060061e-06,-6.643209781032056e-05,5.777009573648684e-05,3.823952647508122e-05,-7.812996955181006e-06,5.214315024204552e-05
-1.6909163605305366e-05,-6.446584302466363e-05,0.00010774221300380304,3.853486850857735e-05,-1.0101465704792645e-05,5.7368059060536325e-05
-1.325122775597265e-05,-5.286691521178e-05,0.00011793548765126616,3.897331771440804e-05,-7.713230843364727e-06,6.073790791560896e-05
-3.6569755934579007e-07,-2.786801451293286e-05,0.00011644655023701489,3.584240403142758e-05,-4.267286385584157e-06,6.613264849875122e-05
