2.1618285245494917e-05,-1.7696105715003796e-05,-9.623046935303137e-05,4.204603555990616e-06,-2.958571030831081e-06,8.121415157802403e-05
2.904429675254505e-05,-1.1596115427892073e-06,-6.86753774061799e-05,-1.9895500372513197e-05,7.95958214894199e-07,7.109485886758193e-05
3.1566214602207765e-05,-4.632193849829491e-06,5.21974652656354e-06,-5.875492934137583e-05,7.5694488259614445e-06,6.362687418004498e-05
2.8420816306606866e-05,-3.190083953086287e-05,0.0001131753233494237,-8.01224450697191e-05,6.817459961894201e-06,5.765681999037042e-05
1.8843295038095675e-05,-5.712066558771767e-05,0.00021317660866770893,-5.938065078225918e-05,-5.3671165005653165e-06,5.486796362674795e-05
1.2716383025690448e-05,-5.065754157840274e-05,0.000260993285337463,-5.06925061927177e-05,-1.8629507394507527e-05,5.1507326134014875e-05
1.3581488929048646e-05,-1.9558694475563243e-05,0.00025379168801009655,-7.831567927496508e-05,-2.1860563720110804e-05,4.4983527914155275e-05
1.5414372683153488e-05,4.5958727241668385e-06,0.0002237875887658447,-8.646272908663377e-05,-1.8511171219870448e-05,3.957543594879098e-05
1.5341214748332277e-05,-4.199005161353853e-06,0.00018870110216084868,-3.668154386105016e-05,-1.4405246474780142e-05,3.8284601032501087e-05
1.4525709048029967e-05,-3.154840669594705e-05,0.000143334676977247,4.420747427502647e-05,-1.2859620255767368e-05,3.691669553518295e-05
1.4075816579861566e-05,-5.568159758695401e-05,9.095991845242679e-05,0.00010517548798816279,-1.0623037269397173e-05,3.259794175392017e-05
1.2922602763865143e-05,-7.371250103460625e-05,4.308821735321544e-05,0.00012385137961246073,-4.677188826462952e-06,2.1452966393553652e-05
1.1073022506025154e-05,-9.833396325120702e-05,1.1807765076810028e-05,0.00011828318383777514,2.3230836632137652e-06,4.979475306754466e-06
1.2361932931526098e-05,-0.00013437849702313542,2.2089782305556582e-06,0.0001018358234432526,9.820890227274504e-06,-4.865825758315623e-06
1.736082231218461e-05,-0.00015796821389812976,7.815201570338104e-06,6.696303171338513e-05,1.875204179668799e-05,1.800456857381505e-06
2.4008699256228283e-05,-0.0001512217422714457,1.6304466043948196e-05,1.126485858549131e-05,2.8298458346398547e-05,2.9662589440704323e-05
3.108147575403564e-05,-0.00012043473543599248,2.2273463400779292e-05,-3.708007716340944e-05,3.4458935260772705e-05,7.35778667149134e-05
3.715050479513593e-05,-8.198570139938965e-05,2.4967072022263892e-05,-4.134717528359033e-05,3.5142325941706076e-05,0.00011458889639470726
4.169276508037001e-05,-4.445713057066314e-05,2.2362037270795554e-05,1.5485503581658122e-06,3.053472755709663e-05,0.00013672134082298726
4.2803781980182976e-05,-1.1790117241616827e-05,1.364115178148495e-05,6.0398568166419864e-05,2.522803879401181e-05,0.00014161296712700278
3.854605165543035e-05,1.1915276445506606e-05,3.180969770255615e-06,0.00010125853441422805,1.9188835722161457e-05,0.00013898695760872215
3.213800664525479e-05,2.0903073163935915e-05,-1.0302357623004355e-05,0.00011785898095695302,1.0240180017717648e-05,0.00013129229773767292
2.6143796276301146e-05,2.0268895241315477e-05,-2.9771979825454764e-05,0.00011993411317234859,-1.501703422945866e-06,0.00011534652003319934
2.1263173039187677e-05,2.0465409761527553e-05,-4.7544810513500124e-05,0.00011363707744749263,-7.529110916948412e-06,9.444024180993438e-05
1.853293906606268e-05,2.3321092157857493e-05,-5.4935695516178384e-05,9.510713425697759e-05,-7.799000741215423e-06,7.55078362999484e-05
1.4125263078312855e-05,2.3907132344902493e-05,-4.925388566334732e-05,6.805641896789894e-05,-1.0272480722051114e-05,5.8160956541541964e-05
8.774758498475421e-06,1.440617415937595e-05,-3.914230546797626e-05,4.545131741906516e-05,-1.9266302842879668e-05,3.7418678402900696e-05
7.206107056845212e-06,-9.263982974516694e-06,-3.46957276633475e-05,3.415736136958003e-05,-3.0397919545066543e-05,1.0764265425677877e-05
1.1405839359213132e-05,-3.764777284231968e-05,-2.507992394384928e-05,2.8918333555338904e-05,-3.352439671289176e-05,-3.852857389574638e-06
1.5416115275002085e-05,-5.697039523511194e-05,-2.280062062709476e-06,1.4569275663234293e-05,-3.1105384550755844e-05,3.4433712698955787e-06
1.708948184386827e-05,-6.318363739410415e-05,1.0869673133129254e-05,-9.738452718011104e-06,-2.5970630304072984e-05,2.3089862224878743e-05
2.027307709795423e-05,-6.175834278110415e-05,1.9958039047196507e-05,-1.8217460819869302e-05,-2.1321971871657297e-05,5.2128696552244946e-05
2.556049366830848e-05,-6.238751666387543e-05,5.8447385526960716e-05,-8.19792603579117e-06,-1.924165553646162e-05,8.053371129790321e-05
2.9921808163635433e-05,-6.41988663119264e-05,0.00011654134141281247,3.093376506058121e-07,-1.649036494200118e-05,9.428730118088424e-05
2.8122967705712654e-05,-6.7398592364043e-05,0.00016398841398768127,-5.709684955945704e-06,-1.3812570614391007e-05,8.827397687127814e-05
2.2848993467050605e-05,-6.918819417478517e-05,0.00018047797493636608,-1.4064317838347051e-05,-1.267293919227086e-05,7.739126158412546e-05
2.229414531029761e-05,-6.921953172422945e-05,0.00016439952014479786,-1.0991770977852866e-05,-1.0306578587915283e-05,7.206984446384013e-05
2.81514621747192e-05,-6.797720561735332e-05,0.00012666871771216393,8.86614179762546e-06,-6.977554676268483e-06,7.025585364317521e-05
3.6232464481145144e-05,-6.545367068611085e-05,8.233726111939177e-05,5.063718344899826e-05,-8.466577128274366e-06,6.811543426010758e-05
4.2560943256830797e-05,-7.303368329303339e-05,4.645720400731079e-05,0.00010329418000765145,-1.430556130799232e-05,6.612022843910381e-05
4.392402115627192e-05,-9.841631253948435e-05,2.1165151338209398e-05,0.00014519531396217644,-1.987775794987101e-05,6.953210686333477e-05
4.100475416635163e-05,-0.00013375731941778213,-2.3800087092240574e-06,0.0001548445870866999,-2.3426799089065753e-05,8.063027053140104e-05
3.8259422581177205e-05,-0.0001561169483466074,-2.9303009796421975e-05,0.0001280527503695339,-2.4198818209697492e-05,9.461351874051616e-05
3.8177549868123606e-05,-0.000150474879774265,-4.8778383643366396e-05,8.419523510383442e-05,-2.1921096049482003e-05,0.00010491011198610067
3.943347837775946e-05,-0.00012443710875231773,-4.928956332150847e-05,4.792864638147876e-05,-1.9885592337232083e-05,0.00011071464541601017
3.9200498576974496e-05,-9.297134965891019e-05,-3.440938962739892e-05,2.439312265778426e-05,-2.0729734387714416e-05,0.00011254072160227224
3.671539161587134e-05,-6.424692401196808e-05,-2.1823798306286335e-05,-5.9422040976642165e-06,-1.973186226678081e-05,0.00010499490599613637
3.434147947700694e-05,-3.883126919390634e-05,-2.18182394746691e-05,-7.096503395587206e-05,-1.0446219675941393e-05,8.478528616251424e-05
3.2004943932406604e-05,-6.976051736273803e-06,-3.1878127629170194e-05,-0.00016620558744762093,3.6431686112337047e-06,5.568456253968179e-05
2.5511664716759697e-05,3.5652657970786095e-05,-4.864435686613433e-05,-0.00022033907589502633,1.3240719454188365e-05,1.3391690117714461e-05
1.610879917279817e-05,7.814633136149496e-05,-6.400681741070002e-05,-0.00015743951371405274,1.5420517229358666e-05,-3.288503285148181e-05
7.631312655576039e-06,0.000111230110633187,-6.507764192065224e-05,-1.6196941942325793e-05,1.2813126886612736e-05,-7.046590326353908e-05
9.092763662010839e-07,0.00012400015839375556,-6.730350287398323e-05,7.711639773333445e-05,7.049363830446964e-06,-9.503510955255479e-05
-4.838264430873096e-06,0.00010816877329489216,-8.290106779895723e-05,7.106340490281582e-05,4.974397143087117e-07,-9.934487752616405e-05
-8.692559276823886e-06,6.291066529229283e-05,-9.346086153527722e-05,4.7762754547875375e-05,-4.727439772977959e-06,-7.717996049905196e-05
-9.593624781700782e-06,8.625372174719814e-06,-9.023596066981554e-05,6.921378371771425e-05,-8.619469554105308e-06,-3.819979610852897e-05
-9.280939593736548e-06,-3.1104358640732244e-05,-5.702116686734371e-05,9.218806371791288e-05,-1.301166139455745e-05,-3.2018006095313467e-06
-7.40439691071515e-06,-4.930329305352643e-05,3.538434611982666e-05,8.732028072699904e-05,-1.5591742339893244e-05,2.33893752010772e-05
-7.4526778917061165e-06,-5.042711927671917e-05,0.00013672298518940806,6.985272921156138e-05,-1.4244280464481562e-05,4.257219916325994e-05
-5.0484254643379245e-06,-5.1074101065751165e-05,0.0001685643510427326,5.491581032401882e-05,-1.3186025171307847e-05,5.8308974985266104e-05
7.399528385576559e-07,-5.635348497889936e-05,0.00015124530182220042,5.80465275561437e-05,-1.8939656001748517e-05,7.06900900695473e-05
4.935157448926475e-06,-5.444910129881464e-05,0.00014682284381706268,7.18726878403686e-05,-2.7656813472276554e-05,7.823199121048674e-05
6.161628789413953e-06,-4.703418380813673e-05,0.00017610845679882914,7.720827852608636e-05,-3.426655530347489e-05,8.409181464230642e-05
4.7561334213241935e-06,-6.073031181585975e-05,0.0002049235044978559,6.35270043858327e-05,-4.333045581006445e-05,8.283324132207781e-05
5.374666216084734e-06,-9.095572750084102e-05,0.00019695945957209915,4.528640056378208e-05,-5.503237480297685e-05,7.683484727749601e-05
8.89015518623637e-06,-0.00011089516192441806,0.00015955774870235473,3.721115717780776e-05,-6.555397703777999e-05,7.513037417083979e-05
1.2816966773243621e-05,-0.0001128821968450211,0.00012201060599181801,3.9450591430068016e-05,-6.992175622144714e-05,7.809986709617078e-05
1.458132373954868e-05,-0.00011325313244014978,9.823419532040134e-05,4.269391138223e-05,-6.800223491154611e-05,7.781836029607803e-05
1.720211912470404e-05,-0.0001190363327623345,8.73452372616157e-05,3.426547482376918e-05,-5.8165394875686616e-05,7.94426814536564e-05
1.9822984540951438e-05,-0.00011966462625423446,8.027334843063727e-05,8.604752110841218e-06,-4.0363451262237504e-05,8.721003541722894e-05
2.0918492737109773e-05,-0.00011234661360504106,6.549373938469216e-05,-2.035455145232845e-05,-1.6273921573883854e-05,9.358113311463967e-05
2.0935724023729563e-05,-0.00010073899466078728,3.8055550248827785e-05,-2.2009604435879737e-05,1.1891160283994395e-05,9.4081879069563e-05
2.2580981749342754e-05,-8.453214832115918e-05,3.1100487376534147e-06,1.432496719644405e-05,3.805921005550772e-05,9.121371840592474e-05
2.502593088138383e-05,-6.16518736933358e-05,-3.151445707771927e-05,6.205573299666867e-05,5.558643533731811e-05,8.735880692256615e-05
2.53125745075522e-05,-4.336389247328043e-05,-6.099849269958213e-05,7.546362758148462e-05,6.0198308347025886e-05,8.035461360123008e-05
2.3379721824312583e-05,-3.909696533810347e-05,-7.914433081168681e-05,4.6592860599048436e-05,5.345866520656273e-05,7.2399532655254e-05
2.3113692805054598e-05,-4.4539108785102144e-05,-7.885014201747254e-05,4.744809302792419e-06,4.0661801904207096e-05,7.127019489416853e-05
3.0260051062214188e-05,-4.403861748869531e-05,-5.8645229728426784e-05,-2.1203073629294522e-05,3.020541771547869e-05,7.569445733679458e-05
3.636878318502568e-05,-3.437068153289147e-05,-2.9105045541655272e-05,-2.547699841670692e-05,2.679610224731732e-05,7.846360676921904e-05
3.467697752057575e-05,-2.4545810447307304e-05,-5.326925247572944e-07,-1.882166907307692e-05,2.309206684003584e-05,8.222489850595593e-05
3.198614649591036e-05,-2.167017555620987e-05,2.5409139198018238e-05,-6.933155418664683e-06,1.510907259216765e-05,8.693619020050392e-05
3.354266664246097e-05,-2.4527569621568546e-05,5.804221291327849e-05,6.825971013313392e-06,8.124348823912442e-06,8.844286639941856e-05
3.199147977284156e-05,-3.3130814699688926e-05,9.272625902667642e-05,1.843523932620883e-05,2.9475011160684517e-06,8.290085679618642e-05
2.2701489797327667e-05,-4.6608871343778446e-05,0.0001257811818504706,3.3289219572907314e-05,-4.60129604107351e-06,7.306630868697539e-05
1.596282709215302e-05,-5.4760905186412856e-05,0.00015426469326484948,3.594653389882296e-05,-1.405534476361936e-05,6.736395880579948e-05
1.554560731165111e-05,-5.992472142679617e-05,0.00016106835391838104,1.9876226360793225e-05,-1.8120912500307895e-05,6.195584865054116e-05
1.9608763977885246e-05,-6.818914698669687e-05,0.00013570341980084777,4.522637937043328e-06,-2.0703684640466236e-05,5.71571035834495e-05
2.572104858700186e-05,-8.486189472023398e-05,8.367656118934974e-05,-2.567651620211109e-07,-2.8174154067528434e-05,5.3185009164735675e-05
3.0198281820048578e-05,-0.00011442349205026403,2.912148011091631e-05,1.0347417628508992e-05,-3.438145722611807e-05,4.5574801333714277e-05
3.3496216929052025e-05,-0.00013913701695855707,-8.328156582138035e-06,2.684427636268083e-05,-3.350066253915429e-05,4.3550706323003396e-05
3.613112130551599e-05,-0.0001407287927577272,-2.4412105631199665e-05,3.6383509723236784e-05,-2.7505117031978443e-05,4.4975484343012795e-05
3.6253954021958634e-05,-0.00012629285629373044,-2.4999562810990028e-05,4.0205835830420256e-05,-2.4038195988396183e-05,4.7141169488895684e-05
3.564407234080136e-05,-0.00010991204908350483,-1.84397376870038e-05,4.1741219320101663e-05,-2.493192005204037e-05,5.0398102757753804e-05
3.812095019384287e-05,-8.848385186865926e-05,-1.396872630721191e-05,3.928137448383495e-05,-2.6129078833037056e-05,5.656963912770152e-05
4.046601679874584e-05,-5.9754191170213744e-05,-1.3100787327857688e-05,3.79082266590558e-05,-2.521749229345005e-05,6.599302287213504e-05
4.107063796254806e-05,-3.47719578712713e-05,-1.0584885785647202e-05,4.271479701856151e-05,-2.2793939933762886e-05,7.503201777581125e-05
3.87993422918953e-05,-2.8803424356738105e-05,-4.621173047780758e-06,5.134285311214626e-05,-2.364368992857635e-05,7.800581806804985e-05
3.4310789487790316e-05,-5.079243055661209e-05,-2.4971398033812875e-06,5.624051846098155e-05,-2.847408723027911e-05,7.306475163204595e-05
3.1475672585656866e-05,-9.04089174582623e-05,-3.569992259144783e-06,5.9616166254272684e-05,-3.130560799036175e-05,6.755979848094285e-05
3.2428612030344084e-05,-0.0001115644772653468,7.319221367652062e-06,7.05517377355136e-05,-2.6724042982095852e-05,7.07891522324644e-05
3.0641724151792005e-05,-9.11983588594012e-05,2.209328522440046e-05,8.428128785453737e-05,-1.9454344510450028e-05,7.899034244474024e-05
2.3510954633820802e-05,-5.222471008892171e-05,1.5738263755338266e-05,8.5066792962607e-05,-1.518521639809478e-05,8.462703408440575e-05
1.8830307453754358e-05,-2.4975013729999773e-05,-1.0269430276821367e-05,7.171582547016442e-05,-1.4044091585674323e-05,8.586542389821261e-05
2.20505735342158e-05,-9.108696758630686e-06,-3.762241976801306e-05,5.96543904975988e-05,-1.5717252608737908e-05,8.112611976685002e-05
3.038026625290513e-05,1.1868027286254801e-05,-5.2641429647337645e-05,5.6545402912888676e-05,-1.9214423446101137e-05,7.729621574981138e-05
4.188648017589003e-05,4.0701906982576475e-05,-5.410887752077542e-05,5.8530520618660375e-05,-1.7272122931899503e-05,7.615530194016173e-05
5.098261317471042e-05,6.84592523612082e-05,-5.3503124945564196e-05,4.211526902508922e-05,-6.6678439907263964e-06,7.574166374979541e-05
4.981342499377206e-05,8.346654794877395e-05,-4.734018511953764e-05,-2.1797235604026355e-05,1.0091035619552713e-05,6.505356577690691e-05
3.804300649790093e-05,7.972720050020143e-05,-3.48407520505134e-05,-0.00012135824363213032,2.349470742046833e-05,4.227405952406116e-05
1.8767481378745288e-05,5.3499898058362305e-05,-2.9237931812531315e-05,-0.00015814263315405697,1.9708350009750575e-05,2.5037965315277688e-05
-2.3292038804356707e-06,1.5792506019352004e-05,-4.4236039684619755e-05,-9.300605597672984e-05,2.445517338856007e-06,1.7033209587680176e-05
-2.1237732653389685e-05,-1.5135041394387372e-05,-5.849727676832117e-05,-1.9259508917457424e-05,-1.5434479792020284e-05,6.629903054999886e-06
-3.0593302653869614e-05,-2.7755559131037444e-05,-2.210628508692025e-06,1.063589661498554e-05,-2.2749574782210402e-05,2.685954747505548e-08
-2.348339512536768e-05,-2.227621189376805e-05,0.00011532209464348853,1.4195326912158635e-05,-1.8711352822720073e-05,6.962624411244178e-06
-7.970462320372462e-06,-1.9366651031305082e-05,0.0001942287344718352,1.811780566640664e-05,-1.1923246347578242e-05,2.212104300269857e-05
1.1936137980228523e-06,-1.8055887267109938e-05,0.0002021485852310434,3.0081277145654894e-05,-8.909190000849776e-06,3.5166292946087196e-05
1.6384085483878152e-06,2.637719944686978e-06,0.00018043708405457437,4.6061592001933604e-05,-1.0008651770476718e-05,4.053309021401219e-05
-2.7412468170950888e-06,2.78002698905766e-05,0.00015455606626346707,6.071839015930891e-05,-1.463383887312375e-05,4.277894913684577e-05
-5.972887265670579e-06,2.663812665559817e-05,0.00012219100608490407,7.409887621179223e-05,-2.1396010197349824e-05,4.680978236137889e-05
-7.087787707860116e-06,-4.560899014904862e-06,8.950011397246271e-05,8.598912972956896e-05,-2.883341039705556e-05,4.8524951125727966e-05
-8.465493010589853e-06,-4.752508903038688e-05,6.762232078472152e-05,9.102491458179429e-05,-3.516323704388924e-05,4.47759848611895e-05
-9.937592949427199e-06,-8.488461025990546e-05,5.839315053890459e-05,8.048937161220238e-05,-3.656951230368577e-05,3.936705979867838e-05
-6.420724730560323e-06,-0.00010954898607451469,5.525389497051947e-05,5.828639768878929e-05,-3.2332089176634327e-05,3.845602986984886e-05
1.7828650697992998e-06,-0.00012058297579642385,4.757026181323454e-05,4.047233232995495e-05,-2.7057909392169677e-05,4.464235462364741e-05
1.0370328709541354e-05,-0.00012120929022785276,3.2885891414480284e-05,3.362866846146062e-05,-2.2929947590455413e-05,5.347090700524859e-05
1.9041197447222658e-05,-0.00011717476445483044,2.1029793060733937e-05,3.054879925912246e-05,-1.6619498637737706e-05,5.910381150897592e-05
2.9296741558937356e-05,-0.0001222146674990654,2.0564535589073785e-05,2.0800214770133607e-05,-8.349565177923068e-06,6.264510011533275e-05
3.96170980820898e-05,-0.00014385122631210834,2.0930552636855282e-05,9.404878255736548e-06,-4.224202257319121e-06,6.717629730701447e-05
4.793546031578444e-05,-0.00016250115004368126,9.967258847609628e-06,5.261040769255487e-06,-4.545859155768994e-06,7.153987826313823e-05
5.4958836699370295e-05,-0.0001550177694298327,-1.1010265552613419e-05,1.000014799501514e-05,-5.637569756800076e-06,7.599598029628396e-05
5.977022010483779e-05,-0.00012046656775055453,-2.720818702073302e-05,1.7906191715155728e-05,-4.825004452868598e-06,8.058720413828269e-05
5.968839832348749e-05,-7.229844777612016e-05,-2.2760224965168163e-05,2.8434655177989043e-05,-1.6926323951338418e-06,7.756705599604174e-05
5.382999006542377e-05,-2.804709401971195e-05,-3.458317905824515e-06,4.390274261822924e-05,7.135544706216024e-07,6.742710684193298e-05
4.251789869158529e-05,-8.990376045403536e-06,7.595132501592161e-06,5.937201785854995e-05,7.581299428238708e-07,6.14201053394936e-05
3.213394302292727e-05,-1.3793598554912023e-05,1.0020057743531652e-05,6.164011574583128e-05,-1.890548674055026e-06,5.7703877246240154e-05
2.9955708669149317e-05,-1.9585992049542256e-05,2.2213649572222494e-05,5.403250906965695e-05,-3.5629384456115076e-06,5.312669964041561e-05
3.147547977278009e-05,-1.3901713828090578e-05,3.40631086146459e-05,4.894652738585137e-05,7.601299500947789e-08,5.179638174013235e-05
3.428943455219269e-05,-6.130884685262572e-06,4.2068390030181035e-05,4.9147864046972245e-05,6.931166353751905e-06,5.597466588369571e-05
3.361246854183264e-05,-1.2201605386508163e-05,5.306294042384252e-05,4.742944656754844e-05,1.0975143595715053e-05,5.6527642300352454e-05
3.158457184326835e-05,-2.6053054170915857e-05,5.006245555705391e-05,4.1902458178810775e-05,1.2437479199434165e-05,5.622594471788034e-05
3.14488097501453e-05,-3.6064768210053444e-05,2.6881460144068114e-05,2.9190056011429988e-05,1.0452198694110848e-05,6.0340000345604494e-05
3.447930794209242e-05,-4.469696068554185e-05,-1.4390757314686198e-05,5.405720457929419e-06,7.371545507339761e-06,6.39546342426911e-05
3.831353387795389e-05,-5.7927238231059164e-05,-5.5539141612825915e-05,-1.312778658757452e-05,6.291144018177874e-06,6.615323218284175e-05
3.801245475187898e-05,-7.099120557541028e-05,-6.307587318588048e-05,-1.2208397492941003e-05,5.627636255667312e-06,6.65959669277072e-05
3.645900869742036e-05,-8.091955533018336e-05,-2.7995733034913428e-05,1.6496561556778033e-06,1.4994202501839027e-06,6.49630164843984e-05
3.5538563679438084e-05,-8.596764382673427e-05,1.851016713771969e-05,8.200440788641572e-06,-3.68112227988604e-06,6.110859249019995e-05
3.1341340218205005e-05,-8.539370173821226e-05,5.071038685855456e-05,-1.453214622415544e-06,-9.427155418961775e-06,5.63954163226299e-05
2.3263095499714836e-05,-7.83083014539443e-05,8.020250970730558e-05,-1.768408765201457e-05,-1.6576843336224556e-05,5.13528793817386e-05
1.8716275008046068e-05,-6.859071436338127e-05,0.0001252027286682278,-2.2838394215796143e-05,-1.9301742213428952e-05,4.9413167289458215e-05
1.9510660422383808e-05,-7.218623795779422e-05,0.00017425166151951998,-1.2157263881817926e-05,-1.6354031686205417e-05,5.1375594921410084e-05
2.0393783415784128e-05,-9.663632226875052e-05,0.00018902582814916968,1.865058266048436e-06,-1.129421616496984e-05,5.841488382429816e-05
1.7188071069540456e-05,-0.00011799827188951895,0.00015180841728579253,9.795016921998467e-06,-8.529899787390605e-06,6.946620851522312e-05
1.1789114068960771e-05,-0.0001061630027834326,9.149285324383527e-05,1.865096237452235e-05,-9.544575732434168e-06,8.282175258500502e-05
7.261517112056026e-06,-6.449036300182343e-05,5.148016498424113e-05,4.661125421989709e-05,-1.3687335012946278e-05,9.579629841027781e-05
5.2951490943087265e-06,-1.3758988643530756e-05,3.3552456443430856e-05,9.598665201338008e-05,-1.6323752788593993e-05,0.00010387031943537295
3.456353624642361e-06,2.9673676181118935e-05,1.7270842363359407e-05,0.00014100689440965652,-1.3833657249051612e-05,0.00010911424033110961
1.917263261930202e-06,5.085664088255726e-05,-1.5970771300999331e-06,0.00015329942107200623,-9.91566321317805e-06,0.00011412599997129291
6.0572169786610175e-06,4.228685065754689e-05,-1.4868232938169967e-05,0.00013085658429190516,-1.3747383491136134e-05,0.0001116794373956509
1.4276696674642153e-05,1.9082472135778517e-05,-1.7296441001235507e-05,9.535768913337961e-05,-2.1507317796931602e-05,0.00010017828753916547
1.7106647646869533e-05,1.5375227349068155e-06,-8.833286301523913e-06,6.405306339729577e-05,-2.356119512114674e-05,8.819864160614088e-05
1.5489877114305273e-05,-5.572454028879292e-06,2.2032725155440858e-07,5.0089383876184e-05,-2.4465742171742022e-05,7.946539699332789e-05
1.5089309272298124e-05,-9.249497452401556e-06,1.999619144044118e-06,5.1819613872794434e-05,-2.9523143894039094e-05,6.872689118608832e-05
1.5120771422516555e-05,-2.2452997654909268e-05,2.9872941809117037e-07,4.533378523774445e-05,-3.277066207374446e-05,5.033076377003454e-05
1.8965802155435085e-05,-5.001803219784051e-05,-3.2894813557504676e-06,2.2081334464019164e-05,-3.880650911014527e-05,3.4551103453850374e-05
2.7256779503659345e-05,-8.01736387074925e-05,-1.93261857930338e-05,-2.732377424763399e-06,-4.571491444949061e-05,2.470159415679518e-05
3.4596872865222394e-05,-9.735838830238208e-05,-5.4072974307928234e-05,-1.0611080142552964e-05,-4.765180347021669e-05,1.749744660628494e-05
4.0138511394616216e-05,-9.59848694037646e-05,-9.331486216979101e-05,1.8976204501086613e-06,-4.542970418697223e-05,1.8249826098326594e-05
4.5226828660815954e-05,-8.584718307247385e-05,-0.00011622239981079474,1.0595656931400299e-05,-3.408206612220965e-05,2.8151331207482144e-05
5.00151545566041e-05,-7.17346410965547e-05,-0.00011370098945917562,-1.4435995581152383e-05,-1.8577653463580646e-05,3.81868303520605e-05
5.0622325943550095e-05,-6.624017260037363e-05,-0.00010326541087124497,-5.868804146302864e-05,-6.49915409667301e-06,4.2393923649797216e-05
4.419217657414265e-05,-7.893767178757116e-05,-9.813064389163628e-05,-7.143990660551935e-05,-1.2174554058219655e-06,4.135979907005094e-05
3.480587474768981e-05,-9.888521890388802e-05,-9.602650243323296e-05,-3.3838477975223213e-05,-2.0983839021937456e-06,3.840656790998764e-05
2.6072197215398774e-05,-0.00010473498696228489,-8.950485789682716e-05,2.3574813894811086e-05,-5.0529356485640164e-06,4.093378811376169e-05
1.9154869733029045e-05,-9.022412268677726e-05,-8.167734631570056e-05,6.409705383703113e-05,-5.710959158022888e-06,5.0530321459518746e-05
1.6455209333798848e-05,-6.760664109606296e-05,-7.00449527357705e-05,7.878258475102484e-05,-1.1787444691435667e-06,6.403498991858214e-05
1.7937636584974825e-05,-4.7948087740223855e-05,-3.8791542465332896e-05,8.389705908484757e-05,7.496392754546832e-06,8.011709724087268e-05
2.0057854271726683e-05,-3.8287693314487115e-05,1.936877379193902e-05,8.839892689138651e-05,1.5791050827829167e-05,9.584517101757228e-05
1.9983999663963914e-05,-3.0631603294750676e-05,0.00010818691225722432,7.725848263362423e-05,2.2948432160774246e-05,0.00010105844557983801
1.856476410466712e-05,-4.338956387073267e-06,0.00021320662926882505,2.7614163627731614e-05,3.1181400117930025e-05,9.354040230391547e-05
1.5700548829045147e-05,3.1720101105747744e-05,0.0002950014022644609,-5.727356256102212e-05,3.666496922960505e-05,7.874930452089757e-05
9.185361705021933e-06,4.3698666559066623e-05,0.0003398713015485555,-0.0001230561756528914,3.191797804902308e-05,5.816863995278254e-05
8.146333385639082e-08,2.13759903999744e-05,0.00038097865763120353,-0.00011610538058448583,1.8558832380222157e-05,3.3785076084313914e-05
-7.962963536556344e-06,-1.955064362846315e-05,0.00040652428288012743,-6.865394243504852e-05,8.454327144136187e-06,1.3089244930597488e-05
-1.3207370102463756e-05,-5.674653948517516e-05,0.0003588010440580547,-4.994135815650225e-05,7.534816177212633e-06,-1.238136064785067e-06
-1.7229021977982484e-05,-8.279652683995664e-05,0.00024582212790846825,-6.204746750881895e-05,8.321006134792697e-06,-1.2442090337572154e-05
-1.7230253433808684e-05,-9.454589599044994e-05,0.00014585163444280624,-6.0735332226613536e-05,3.5347075026948005e-06,-1.5140952200454194e-05
-1.1481916772027034e-05,-9.260598017135635e-05,0.00010515416215639561,-2.5239362003048882e-05,-5.921759111515712e-06,-4.4656117097474635e-06
-4.153422196395695e-06,-8.147017797455192e-05,9.921312448568642e-05,2.870632852136623e-05,-1.4689095223729964e-05,1.2301932656555437e-05
1.376734189761919e-06,-6.545645737787709e-05,9.139202302321792e-05,8.327371324412525e-05,-1.6709958799765445e-05,2.6555051590548828e-05
4.810879090655362e-06,-4.631677074939944e-05,7.214550714707002e-05,0.0001248680055141449,-1.393302773067262e-05,4.3575637391768396e-05
1.1306047781545203e-05,-3.494257543934509e-05,5.05067000631243e-05,0.00013006868539378047,-9.192255674861372e-06,7.112917955964804e-05
2.3998121832846664e-05,-3.595032831071876e-05,3.47964305547066e-05,0.00010246652527712286,-4.1931057239708025e-06,9.396323730470613e-05
3.44297441188246e-05,-3.9213035051943734e-05,1.983838046726305e-05,7.646136509720236e-05,-3.095730335189728e-06,9.781660628505051e-05
3.954003477701917e-05,-3.7216119380900636e-05,4.6730669964745175e-06,7.136187923606485e-05,-5.484747816808522e-06,8.764344966039062e-05
4.177604569122195e-05,-3.191878931829706e-05,-3.766590737086517e-07,7.612079207319766e-05,-9.208712981489953e-06,7.798972364980727e-05
3.8753041735617444e-05,-3.247668064432219e-05,4.909027666144539e-06,6.952943658689037e-05,-1.0802997167047579e-05,7.916994218248874e-05
3.2563108106842265e-05,-3.826704778475687e-05,4.271363650332205e-06,4.83692747366149e-05,-1.2782417798007373e-05,7.905653183115646e-05
2.6602074285619892e-05,-4.749630534206517e-05,-2.5234480744984467e-06,1.876857459137682e-05,-1.3508368283510208e-05,6.891958764754236e-05
2.1146957806195132e-05,-5.8488189097261056e-05,1.518343310635828e-06,-2.729853349592304e-06,-1.0251663297822233e-05,5.230460737948306e-05
1.6711122952983715e-05,-6.743730773450807e-05,2.154031244572252e-05,-3.842727437586291e-06,-7.65171444072621e-06,4.168017767369747e-05
1.5777979569975287e-05,-7.119736255845055e-05,4.278956475900486e-05,1.8080345398630016e-05,-8.558567060390487e-06,4.002818968729116e-05
1.8712342352955602e-05,-7.230625487864017e-05,4.8532034270465374e-05,5.434235936263576e-05,-1.1571403774723876e-05,4.2798415961442515e-05
2.5009841920109466e-05,-7.063979137456045e-05,3.998379179392941e-05,8.509877079632133e-05,-1.2600213267432991e-05,4.896886821370572e-05
3.066668796236627e-05,-6.587337702512741e-05,2.2522814106196165e-05,9.305817366112024e-05,-1.3377210052567534e-05,5.4773976444266737e-05
3.049010774702765e-05,-6.561956251971424e-05,-4.639357030100655e-06,7.51091429265216e-05,-1.7566586393513717e-05,5.750915079261176e-05
2.7590833269641735e-05,-7.252072100527585e-05,-4.170331158093177e-05,4.859553519054316e-05,-2.2313412046059966e-05,5.962975774309598e-05
2.6281169994035736e-05,-8.110868657240644e-05,-7.729590288363397e-05,3.395718158571981e-05,-2.2666359654976986e-05,6.523898628074676e-05
2.5747376639628783e-05,-9.570353722665459e-05,-0.00010008584649767727,3.604327866923995e-05,-2.0921577743138187e-05,7.22571712685749e-05
2.254405990242958e-05,-0.0001276041439268738,-0.00010668808681657538,4.4767508370568976e-05,-2.1655450836988166e-05,7.688509504077956e-05
1.7772601495380513e-05,-0.00015272261225618422,-9.521996980765834e-05,5.3527553973253816e-05,-2.516306994948536e-05,7.83656068961136e-05
1.5886087567196228e-05,-0.0001391871046507731,-7.354812260018662e-05,5.473440978676081e-05,-2.83139779639896e-05,8.222024916904047e-05
1.7858204955700785e-05,-0.0001012172142509371,-5.816390330437571e-05,3.798074976657517e-05,-2.9333528800634667e-05,8.331608114531264e-05
1.9694736693054438e-05,-6.280315574258566e-05,-4.761961827171035e-05,3.3182188872160623e-06,-2.8451062462409027e-05,7.689058111282066e-05
2.096264506690204e-05,-3.1910149118630216e-05,-3.34584983647801e-05,-2.1585750801023096e-05,-2.905667497543618e-05,7.026632374618202e-05
2.1179605028009973e-05,-1.915276334329974e-05,-6.9050347519805655e-06,-1.4647767784481402e-05,-2.9980783438077196e-05,6.634220335399732e-05
1.92535462701926e-05,-2.5986330001614988e-05,3.555592047632672e-05,1.5064994840940926e-05,-2.9790755434078164e-05,7.219432882266119e-05
1.8744563931250013e-05,-3.1656167266191915e-05,7.086838013492525e-05,5.3134095651330426e-05,-2.8799619030905887e-05,8.497590170009062e-05
2.0782263163710013e-05,-1.7037935322150588e-05,7.695994281675667e-05,9.31793765630573e-05,-2.4994642444653437e-05,8.61454609548673e-05
2.2435686332755722e-05,5.778801096312236e-06,6.63859536871314e-05,0.00011542843276401982,-2.131072324118577e-05,7.6364325650502e-05
1.887078906293027e-05,1.7011780073517002e-05,5.4317024478223175e-05,9.984497592085972e-05,-1.9389039152883925e-05,6.689199653919786e-05
1.2011779290332925e-05,1.246106876351405e-05,4.236026870785281e-05,4.9859227146953344e-05,-1.616557165107224e-05,6.328042218228802e-05
1.3874455362383742e-05,-1.2064467682648683e-06,4.125997656956315e-05,-1.3781670531898271e-05,-8.253448868345004e-06,6.462182500399649e-05
2.5332952645840123e-05,-1.3813452824251726e-05,4.587502917274833e-05,-5.818281715619378e-05,-1.2498030628194101e-06,7.259340782184154e-05
3.570574335753918e-05,-1.968632932403125e-05,3.649322752607986e-05,-4.93288243887946e-05,-7.795882339678428e-08,8.316517778439447e-05
3.9174756238935515e-05,-1.8385522707831115e-05,1.1960933079535607e-05,1.1035256648028735e-05,-1.7776966387827997e-07,8.474227070109919e-05
3.7795602111145854e-05,-1.7579799532541074e-05,-9.556921213516034e-06,7.463675865437835e-05,2.729740117501933e-06,7.18849987606518e-05
3.735439167940058e-05,-3.59998521162197e-05,-1.851114211603999e-05,0.00010010762343881652,5.901929398532957e-06,5.466610309667885e-05
3.566482337191701e-05,-7.326042396016419e-05,-1.6766858607297763e-05,9.314122144132853e-05,2.4092303192446707e-06,4.5107866753824055e-05
3.280857708887197e-05,-0.00010475824819877744,-1.3471635611495003e-05,8.540225826436654e-05,-6.216936071723467e-06,4.591506512952037e-05
3.22583073284477e-05,-0.00011578099656617269,-2.2195757992449217e-05,8.948759932536632e-05,-1.567294202686753e-05,5.61733431823086e-05
3.492929681669921e-05,-0.00011008499859599397,-4.495370012591593e-05,8.791541040409356e-05,-2.4618704628665e-05,6.948730879230425e-05
3.677784843603149e-05,-0.00010155602649319917,-7.669735350646079e-05,6.32296287221834e-05,-2.9509401429095306e-05,8.155727118719369e-05
3.766052032005973e-05,-9.552888514008373e-05,-0.00010594407649477944,2.2203708795132115e-05,-2.510587000870146e-05,9.064871846931055e-05
4.237129905959591e-05,-9.051599045051262e-05,-0.00011298567551421002,-1.641966446186416e-05,-9.558625606587157e-06,9.367889288114384e-05
5.035897629568353e-05,-8.992157381726429e-05,-9.381172276334837e-05,-4.017263199784793e-05,7.080643172230339e-06,8.57679988257587e-05
5.6644450523890555e-05,-9.128457168117166e-05,-8.01618371042423e-05,-4.2972114897565916e-05,1.4545054000336677e-05,7.223492866614833e-05
6.076196223148145e-05,-8.050932956393808e-05,-9.723797847982496e-05,-2.466746991558466e-05,1.3240222870081197e-05,6.131894770078361e-05
6.52028902550228e-05,-5.646000863634981e-05,-0.0001307440543314442,-1.0930990356428083e-05,6.6167599470645655e-06,5.4575411922996864e-05
6.558497989317402e-05,-2.5106812245212495e-05,-0.00015217882173601538,-3.445851325523108e-05,-4.200583134661429e-06,4.688405169872567e-05
5.794077878817916e-05,3.313884462841088e-06,-0.0001365540229016915,-9.021734149428084e-05,-1.7111020497395657e-05,3.422332156333141e-05
4.641706982511096e-05,2.4743323592701927e-05,-6.347814633045346e-05,-0.00014891347382217646,-2.705891711229924e-05,2.4730974473641254e-05
3.690012817969546e-05,4.603238630807027e-05,7.288157212315127e-05,-0.00017319076869171113,-2.8044712962582707e-05,2.707312705751974e-05
2.446891630825121e-05,5.249933019513264e-05,0.00022062857169657946,-0.00015329457528423518,-2.053498064924497e-05,3.4156368201365694e-05
5.977447472105268e-06,2.7477104595163837e-05,0.00030515241087414324,-9.225719259120524e-05,-1.545191480545327e-05,3.435913458815776e-05
-9.730674719321541e-06,-9.883619895845186e-06,0.0003143367066513747,3.667542387120193e-06,-2.2068208636483178e-05,3.3248590625589713e-05
-1.8568982341093943e-05,-3.3487278415123e-05,0.0003012907400261611,0.00011024565174011514,-2.999856587848626e-05,4.1024977690540254e-05
-2.4553322873543948e-05,-3.771634146687575e-05,0.0002993207308463752,0.00021028847550041974,-2.7187496016267687e-05,4.512679879553616e-05
-2.6923904442810453e-05,-2.503312862245366e-05,0.0002743052027653903,0.0002681011101230979,-1.4800432836636901e-05,3.799781552515924e-05
-2.436278373352252e-05,-8.986179636849556e-06,0.00019090402929577976,0.00025567621923983097,1.1375082976883277e-05,2.566316834418103e-05
-1.7752498024492525e-05,-1.0899605513259303e-05,8.374362369067967e-05,0.00018245726823806763,4.295407052268274e-05,9.538050107948948e-06
-9.012811460706871e-06,-2.5134992029052228e-05,3.225387627026066e-05,9.053487156052142e-05,6.338268576655537e-05,-1.2342123227426782e-05
-1.3700703220820287e-06,-3.256885611335747e-05,3.866348197334446e-05,8.74958004715154e-06,6.745858991052955e-05,-3.8217105611693114e-05
2.0130023585807066e-06,-3.0343338949023746e-05,5.240210157353431e-05,-3.8982256228337064e-05,6.124084757175297e-05,-5.550072455662303e-05
2.5146446205326356e-06,-1.9997933122795075e-05,3.7793473893543705e-05,-3.6962239391868934e-05,5.133291779202409e-05,-5.30799115949776e-05
1.9993894966319203e-06,-7.410802936647087e-06,-1.2832743777835276e-05,2.837532520061359e-06,3.914062472176738e-05,-3.148448740830645e-05
1.033454509524745e-06,1.375816964355181e-06,-7.67048986745067e-05,4.8443769628647715e-05,2.5718931283336133e-05,-6.669863523711683e-06
1.937127365181368e-07,-1.4813556390436133e-06,-0.0001267392945010215,6.93440597387962e-05,1.1330564120726194e-05,1.3375155504036229e-05
2.3396585220325505e-06,-1.9029044779017568e-05,-0.00014785952225793153,6.186160317156464e-05,-2.7320836579747265e-06,3.119599568890408e-05
8.82105996424798e-06,-5.276686715660617e-05,-0.00013360609591472894,4.11036926379893e-05,-1.557685754960403e-05,4.813941632164642e-05
1.6984891772153787e-05,-9.340230462839827e-05,-7.900306809460744e-05,2.7497668270370923e-05,-2.422635952825658e-05,6.446298357332125e-05
2.3718157535768114e-05,-0.0001213692085002549,8.634755431558006e-06,3.050330633413978e-05,-2.9496544811991043e-05,8.322827488882467e-05
2.531392419768963e-05,-0.00012677266204264015,0.00011310585250612348,4.699577402789146e-05,-3.0011435228516348e-05,0.00010573178587947041
2.2408034055843018e-05,-0.00011531928612384945,0.00019596780475694686,5.785155008197762e-05,-2.395916271780152e-05,0.00012199707271065563
1.962811074918136e-05,-9.78304524323903e-05,0.00022073241416364908,4.7050714783836156e-05,-1.713985147944186e-05,0.00012111738760722801
2.0287383449613117e-05,-8.154076203936711e-05,0.00020123091235291213,1.915029679366853e-05,-1.5185490156000014e-05,0.00010787543578771874
2.2698708562529646e-05,-7.274762901943177e-05,0.0001839957694755867,-1.5135541389099672e-06,-1.9984154278063215e-05,0.00010361408203607425
2.337478508707136e-05,-7.370932144112885e-05,0.0001852525892900303,-3.254475586800254e-06,-2.8456423024181277e-05,0.00010967587877530605
2.3973554561962374e-05,-7.889138214522973e-05,0.000185074532055296,8.296385090034164e-07,-3.533383278409019e-05,0.00011263125634286553
2.7129317459184676e-05,-8.30393546493724e-05,0.0001670405617915094,-2.658543735378771e-06,-3.780225961236283e-05,0.00010911028948612511
2.973966365971137e-05,-8.281244663521647e-05,0.00014420790830627084,-2.4061077965598088e-06,-3.431545337662101e-05,9.288611909141764e-05
3.0281637009466067e-05,-7.401356560876593e-05,0.00012328299635555595,1.3547498383559287e-05,-3.239746729377657e-05,6.493235559901223e-05
3.0431681807385758e-05,-6.832597136963159e-05,9.402674913872033e-05,3.618171831476502e-05,-3.3817221265053377e-05,4.042203727294691e-05
3.222902159905061e-05,-6.764659337932244e-05,3.265455234213732e-05,5.040786345489323e-05,-3.0999668524600565e-05,2.6678644644562155e-05
3.474166805972345e-05,-6.074469638406299e-05,-5.851497917319648e-05,4.557224383461289e-05,-2.5741184799699113e-05,2.581410990387667e-05
3.7581870856229216e-05,-5.067852544016205e-05,-0.0001405859220540151,2.1923995518591255e-05,-2.735134148679208e-05,3.1656731152907014e-05
3.747520531760529e-05,-5.78104481974151e-05,-0.00017854745965451002,4.047829406772507e-06,-3.2042818929767236e-05,3.6727105907630175e-05
3.201838262612e-05,-7.801764877513051e-05,-0.000161490635946393,7.934435416245833e-06,-3.215007018297911e-05,5.045299621997401e-05
2.7063473680755123e-05,-8.552692452212796e-05,-0.00012987021182198077,2.7225585654377937e-05,-2.5727678803377785e-05,7.452614227076992e-05
2.9085096684866585e-05,-7.602856931043789e-05,-0.00010733522503869608,3.910990199074149e-05,-1.6581656382186338e-05,9.707410936243832e-05
3.528020533849485e-05,-6.206885154824704e-05,-8.402555977227166e-05,4.074826938449405e-05,-1.0197416486334987e-05,0.00010573523468337953
3.6699209886137396e-05,-5.881457036593929e-05,-5.1787403208436444e-05,4.058666308992542e-05,-5.852648428117391e-06,9.965088975150138e-05
3.261123492848128e-05,-7.011854904703796e-05,-1.0701898645493202e-05,3.96070463466458e-05,-5.534405318030622e-06,8.76335398061201e-05
2.635444798215758e-05,-0.00010021429625339806,2.4949846192612313e-05,3.688182187033817e-05,-7.5089687925355975e-06,7.683782314416021e-05
1.905092540255282e-05,-0.00014937555533833802,5.065868026576936e-05,2.791737460938748e-05,-1.4893354091327637e-05,6.722896796418354e-05
1.2200532182760071e-05,-0.0001842513884184882,7.974472100613639e-05,1.8304535842617042e-05,-2.6407007680973038e-05,6.171236600494012e-05
7.93653725850163e-06,-0.0001698372361715883,0.00011823129170807078,1.3452303392114118e-05,-3.61750899173785e-05,5.910191248403862e-05
7.501796517317416e-06,-0.00012142633204348385,0.00015028931375127286,1.3511347788153216e-05,-3.829786510323174e-05,5.730287739424966e-05
9.317999683844391e-06,-8.365932444576174e-05,0.00015574225108139217,1.6765961845521815e-05,-3.5208973713451996e-05,5.9324218455003574e-05
1.2065718692610972e-05,-6.879453576402739e-05,0.00013449507241602987,2.5771585569600575e-05,-3.191233554389328e-05,6.739226228091866e-05
1.3199338354752399e-05,-5.0132661272073165e-05,0.00010696230310713872,3.76104362658225e-05,-2.791365477605723e-05,7.853820716263726e-05
1.0257877875119448e-05,-1.5451967556145974e-05,9.530781244393438e-05,5.105120726511814e-05,-2.5737150281202048e-05,8.485982107231393e-05
8.185004844563082e-06,2.1224119336693548e-05,9.169333497993648e-05,6.251265585888177e-05,-2.7364842026145197e-05,8.5630061221309e-05
1.2313377737882547e-05,3.8196816603885964e-05,6.17271289229393e-05,6.911728996783495e-05,-2.798878267640248e-05,8.463089761789888e-05
1.8771828763419762e-05,1.0727999324444681e-05,-5.718788088415749e-06,6.287869473453611e-05,-2.8415361157385632e-05,8.269680984085426e-05
1.807572516554501e-05,-6.409039633581415e-05,-7.467107207048684e-05,4.19306343246717e-05,-3.50841146428138e-05,7.453453144989908e-05
1.7897429643198848e-05,-0.0001613105123396963,-9.055453119799495e-05,2.3135349692893215e-05,-3.7459871236933395e-05,6.463765748776495e-05
2.70478667516727e-05,-0.0002392639289610088,-3.1441311875823885e-05,2.5368184651597403e-05,-2.6501453248783946e-05,6.585374649148434e-05
3.976508742198348e-05,-0.00024890329223126173,4.751758024212904e-05,4.47306374553591e-05,-1.3702527212444693e-05,7.938521594041958e-05
4.942157829646021e-05,-0.0001736544509185478,6.087866495363414e-05,5.714678263757378e-05,-6.7738005782302935e-06,8.406206325162202e-05
5.074074215372093e-05,-5.90341369388625e-05,3.4473534469725564e-05,5.564940511249006e-05,1.239522930518433e-06,7.749891665298492e-05
4.9053043767344207e-05,4.228345278534107e-05,2.6671286832424812e-05,4.560150409815833e-05,1.1686938705679495e-05,7.164158159866929e-05
5.0059734348906204e-05,0.00011818237544503063,3.4111635613953695e-05,1.5617059034411795e-05,2.213950028817635e-05,6.628334085689858e-05
4.5299380872165784e-05,0.00017745993682183325,4.385246575111523e-05,-3.6186731449561194e-05,3.0076269467826933e-05,6.0247668443480507e-05
2.7356478312867694e-05,0.00022005326172802597,3.7071604310767725e-05,-7.514508615713567e-05,2.8061087505193427e-05,4.98295521538239e-05
5.803801741421921e-06,0.0002346437977394089,3.517113145790063e-05,-6.083408879931085e-05,1.6795376723166555e-05,4.1428455006098375e-05
-1.2526626960607246e-05,0.00022282529971562326,5.4180502047529444e-05,-1.0443282008054666e-05,6.708422006340697e-06,4.112546594114974e-05
-2.5422588805668056e-05,0.00018966704374179244,6.961201870581135e-05,1.8049293430522084e-05,2.6047343908430776e-06,3.834576273220591e-05
-3.16015248245094e-05,0.0001381278852932155,6.549531826749444e-05,8.091928066278342e-06,4.632694071915466e-06,3.1013125408208e-05
-2.9163194994907826e-05,7.513591117458418e-05,5.3396561270346865e-05,3.364734084243537e-06,9.444755960430484e-06,2.5658886443125084e-05
-1.9326869733049534e-05,1.6622105249552988e-05,4.997605356038548e-05,3.190543066011742e-05,1.3294474229041953e-05,2.5056253434740938e-05
-8.060375876084436e-06,-2.487107485649176e-05,5.719310502172448e-05,7.896192255429924e-05,1.3453863175527658e-05,3.0148552468745038e-05
2.4188893803511746e-06,-4.963982792105526e-05,6.612339348066598e-05,0.00011484988499432802,1.2246134247106966e-05,3.545133222360164e-05
1.2622884241864085e-05,-6.63630708004348e-05,6.671562005067244e-05,0.00012490447261370718,1.0003213901654817e-05,3.7480949686141685e-05
2.310965646756813e-05,-8.23775480967015e-05,5.557991244131699e-05,0.0001066322874976322,5.122878974361811e-06,3.925032069673762e-05
3.352613202878274e-05,-9.655186295276508e-05,3.5428220144240186e-05,6.449763895943761e-05,-1.8148075469071046e-06,4.262720176484436e-05
4.299916690797545e-05,-0.00010324017057428136,1.6390944438171573e-05,2.3246664568432607e-05,-8.47429419081891e-06,4.769689621753059e-05
4.646339948521927e-05,-0.00010312299127690494,4.68746293336153e-06,7.996520253072958e-06,-1.5112994333321694e-05,5.504003638634458e-05
4.408372114994563e-05,-0.00010293653758708388,-6.269738150876947e-07,1.8416722014080733e-05,-2.001972825382836e-05,6.091631075832993e-05
4.2205250792903826e-05,-0.00010259306873194873,-8.968107067630626e-06,2.6352532586315647e-05,-2.1795285647385754e-05,6.105221109464765e-05
4.361661194707267e-05,-0.00010234160436084494,-2.7725220206775703e-05,1.6472304196213372e-05,-2.0534691429929808e-05,5.9674606745829806e-05
4.396795338834636e-05,-0.00010446487431181595,-5.3025818488094956e-05,6.368828508129809e-06,-1.5785530194989406e-05,6.611903518205509e-05
4.374267518869601e-05,-9.925691847456619e-05,-7.635341171408072e-05,1.662165959714912e-05,-1.3833228877047077e-05,7.405049836961553e-05
4.439987606019713e-05,-7.438939792336896e-05,-9.74801805568859e-05,4.2141593439737335e-05,-1.7590920833754353e-05,7.257914694491774e-05
4.298599742469378e-05,-4.533180617727339e-05,-0.00010784107871586457,6.863107410026714e-05,-2.2332607841235586e-05,7.058194751152769e-05
4.0041057218331844e-05,-3.759923856705427e-05,-0.00011028067820006981,7.404924690490589e-05,-1.831914414651692e-05,7.592531619593501e-05
3.792768620769493e-05,-5.0174065108876675e-05,-0.00011313225695630535,2.019230669247918e-05,-5.3910443966742605e-06,7.319022552110255e-05
4.326068301452324e-05,-6.48055793135427e-05,-0.00011943421850446612,-7.894782174844295e-05,9.212571967509575e-06,6.209846469573677e-05
5.252704067970626e-05,-6.843794108135626e-05,-0.00014121072308626026,-0.0001448683178750798,1.931622864503879e-05,5.175118349143304e-05
5.206063360674307e-05,-6.18847698206082e-05,-0.00015164350043050945,-0.00013570219743996859,2.080824378936086e-05,4.368762165540829e-05
4.337705468060449e-05,-4.102983439224772e-05,-6.950396345928311e-05,-5.1964969316031784e-05,1.790438727766741e-05,4.551563324639574e-05
3.0556962883565575e-05,-1.4370716598932631e-05,0.0001095608458854258,6.45876134512946e-05,1.3276937352202367e-05,5.070819315733388e-05
1.6752394003560767e-05,-1.4582598851120565e-05,0.00025361546431668103,0.0001599568931851536,3.2226166695181746e-06,5.22904701938387e-05
1.2220558573972085e-06,-4.180748146609403e-05,0.0002728993131313473,0.00019373239774722606,-1.2311128557485063e-05,4.909073322778568e-05
-1.3467770259012468e-05,-7.423130591632798e-05,0.00022297938994597644,0.00016768350906204432,-2.8780004868167453e-05,4.452755820238963e-05
-2.3599504856974818e-05,-9.59890749072656e-05,0.00019096444884780794,0.00012082048488082364,-4.010927295894362e-05,4.205591540085152e-05
-2.7976426281384192e-05,-0.00010312083031749353,0.00017795877647586167,8.335769962286577e-05,-4.302583693061024e-05,4.195595101919025e-05
-2.5577881388016976e-05,-0.00010589693556539714,0.00015796929073985666,6.030201984685846e-05,-3.8690108340233564e-05,4.297061241231859e-05
-1.7493877749075182e-05,-0.000112112560600508,0.00013685082376468927,4.122914469917305e-05,-3.4094086004188284e-05,4.3155148887308314e-05
-6.9290585997805465e-06,-0.0001096861669793725,0.00012996171426493675,2.3898839572211727e-05,-3.1445477361558005e-05,4.4346656068228185e-05
2.2670667476631934e-06,-9.288173168897629e-05,0.0001302338787354529,1.0469905646459665e-05,-2.9158571123844013e-05,5.125931784277782e-05
1.1373188499419484e-05,-7.550972804892808e-05,0.00011868233559653163,6.303344889602158e-06,-2.6241637897328474e-05,6.133800343377516e-05
1.8138989617000334e-05,-6.88390209688805e-05,9.170670091407374e-05,9.773610145202838e-06,-2.2993150196271017e-05,6.689500878565013e-05
1.9972030713688582e-05,-7.309898501262069e-05,6.160318298498169e-05,1.5369627362815663e-05,-2.246184703835752e-05,7.050400017760694e-05
1.9913992218789645e-05,-8.176061237463728e-05,4.1184455767506734e-05,1.8129465388483368e-05,-2.5356423066114075e-05,7.641956472070888e-05
2.0653575120377354e-05,-8.502606942784041e-05,2.716835297178477e-05,1.9380062440177426e-05,-3.39171638188418e-05,8.330276614287868e-05
2.0208894056850113e-05,-8.04092560429126e-05,9.580232472217176e-06,1.811519541661255e-05,-4.796926077688113e-05,8.763190999161452e-05
2.243006747448817e-05,-7.985535194166005e-05,-1.49890074681025e-05,1.9613087715697475e-05,-5.737683386541903e-05,8.691325638210401e-05
2.674865572771523e-05,-8.370928844669834e-05,-3.3135445846710354e-05,2.4522470994270407e-05,-5.700814290321432e-05,8.120897837216035e-05
2.8534846933325753e-05,-8.015471394173801e-05,-4.1623108700150624e-05,2.437218790873885e-05,-5.401761882239953e-05,7.53348067519255e-05
2.771258368738927e-05,-7.222411659313366e-05,-4.545817500911653e-05,2.806499287544284e-05,-4.953672760166228e-05,6.78682336001657e-05
2.954932460852433e-05,-7.619378447998315e-05,-3.678291250253096e-05,5.6068962294375524e-05,-3.6714296584250405e-05,6.620978092541918e-05
3.446563641773537e-05,-8.754528971621767e-05,-8.959731530922e-06,9.242034866474569e-05,-1.4471793292614166e-05,7.361919415416196e-05
3.805448432103731e-05,-9.11397801246494e-05,8.874424565874506e-06,7.363027543760836e-05,7.566903605038533e-06,7.799938612151891e-05
3.5409844713285565e-05,-8.754283771850169e-05,-6.198959908942925e-06,8.619900654593948e-06,2.566124385339208e-05,7.47946833143942e-05
2.852262150554452e-05,-7.473971345461905e-05,-2.8725993615807965e-05,-4.754437395604327e-05,4.030271520605311e-05,6.368256435962394e-05
2.6389754566480406e-05,-5.0558104703668505e-05,-2.253210186609067e-05,-0.00010060734348371625,4.796207940671593e-05,5.076553134131245e-05
2.9531111067626625e-05,-2.667839544301387e-05,1.726101436361205e-05,-0.0001433958823326975,4.671820715884678e-05,4.3844884203281254e-05
2.8891541660414077e-05,-1.7877133359434083e-05,6.288399890763685e-05,-0.0001459729392081499,3.5953500628238544e-05,4.1919684008462355e-05
2.2048399841878563e-05,-2.3614209567313083e-05,9.823915752349421e-05,-9.090608364203945e-05,2.4586948711657897e-05,4.011373675893992e-05
1.5073983377078548e-05,-2.0565214072121307e-05,0.00012053745740558952,-1.1025236744899303e-05,1.9390014131204225e-05,3.977587402914651e-05
1.3234742255008314e-05,-5.8487412246677195e-08,0.00012459307617973536,5.2613660955103114e-05,1.7689499145490117e-05,4.0034999983618036e-05
1.587097540323157e-05,1.881826392491348e-05,0.0001017774993670173,7.767193164909258e-05,1.6370409866794944e-05,3.568237661966123e-05
1.965279079740867e-05,1.44839686981868e-05,5.6933047744678333e-05,6.860034045530483e-05,1.3886075066693593e-05,2.9953178454888985e-05
2.3492026230087504e-05,-1.4206093510438222e-05,1.3266439054859802e-05,5.055141809862107e-05,8.233248991018627e-06,2.8304963052505627e-05
2.6018262360594235e-05,-5.322312790667638e-05,-1.0591800673864782e-05,3.72251815861091e-05,8.796561132839997e-07,3.398942499188706e-05
2.902274536609184e-05,-7.877920143073425e-05,-1.3417798982118256e-05,3.336464942549355e-05,-2.6768566385726444e-06,4.318885476095602e-05
3.362632924108766e-05,-8.099554543150589e-05,-6.7412374846753664e-06,3.7979858461767435e-05,3.797528052018606e-07,4.9473896069685e-05
3.766830559470691e-05,-7.245880988193676e-05,-1.2475346920837183e-05,4.3170246499357745e-05,5.2694431360578164e-06,5.3857544116908684e-05
3.7760975828859955e-05,-6.864550232421607e-05,-4.287790579837747e-05,2.9302784241735935e-05,3.656324906842201e-06,5.682511255145073e-05
3.66106687579304e-05,-7.327794446609914e-05,-7.843765342840925e-05,-8.50417407605164e-08,-2.9031059511908097e-06,5.549252455239184e-05
3.882865348714404e-05,-8.253427222371101e-05,-8.887345757102594e-05,-2.3328428142121993e-05,-6.337699232972227e-06,5.565210449276492e-05
4.204217839287594e-05,-9.01095918379724e-05,-5.4011652537155896e-05,-2.482615309418179e-05,-2.3311690711125266e-06,6.357717211358249e-05
4.145220373175107e-05,-8.796624751994386e-05,2.0021023374283686e-05,-1.0163993465539534e-05,6.39230847809813e-06,7.045061647659168e-05
3.9859762182459235e-05,-7.454249862348661e-05,8.56369297252968e-05,1.494023763370933e-05,1.2459835488698445e-05,7.219394319690764e-05
3.932644540327601e-05,-5.215588680584915e-05,0.00010138766083400697,4.9983489589067176e-05,1.2662324479606468e-05,7.285288302227855e-05
3.904180630343035e-05,-2.8039552489644848e-05,8.708691166248173e-05,9.365013102069497e-05,9.260275874112267e-06,7.313313108170405e-05
3.740429019671865e-05,-7.598005140607711e-06,7.671101047890261e-05,0.00013592751929536462,1.0744422525021946e-06,7.572894537588581e-05
3.527101216604933e-05,2.1450275653478457e-06,7.139932858990505e-05,0.00015342931146733463,-8.409962902078405e-06,7.910818385425955e-05
3.034601832041517e-05,3.6813989936490543e-06,5.3124476835364476e-05,0.00013036040763836354,-1.3924636732554063e-05,7.989652658579871e-05
2.6097222871612757e-05,-1.7567539600804594e-07,1.9868661183863878e-05,9.6625488367863e-05,-1.8400651242700405e-05,7.906870450824499e-05
2.4511460651410744e-05,-1.4825577636656817e-05,-1.1144453310407698e-05,6.864457827759907e-05,-1.743967914080713e-05,7.504990207962692e-05
2.1403267965069972e-05,-3.46506894857157e-05,-2.3943854102981277e-05,4.148302105022594e-05,-1.020294803311117e-05,6.410782225430012e-05
2.194803164456971e-05,-4.56871057394892e-05,-1.5768939192639664e-05,1.566835089761298e-05,-6.449841293942882e-06,5.29860335518606e-05
2.57092706306139e-05,-4.740226358990185e-05,1.1294275736872805e-06,1.5195823834801558e-06,-7.456987077603117e-06,5.626997517538257e-05
2.7060585125582293e-05,-4.5262728235684335e-05,1.4123097571427934e-05,9.814453733270057e-06,-1.269473614229355e-05,6.791608029743657e-05
2.027462687692605e-05,-4.587597868521698e-05,2.7437496100901626e-05,2.58993841271149e-05,-1.778788646333851e-05,7.343901233980432e-05
1.1792348232120275e-05,-4.887040995527059e-05,4.3289583118166775e-05,3.482087777229026e-05,-2.0998842956032604e-05,6.362762360367924e-05
8.04029423306929e-06,-4.7292225644923747e-05,4.1446204704698175e-05,3.165438829455525e-05,-2.0505176507867873e-05,4.415549119585194e-05
9.932923603628296e-06,-4.975264164386317e-05,1.4473115697910544e-05,2.232589940831531e-05,-1.7002994354697876e-05,3.978676249971613e-05
1.4039889720152132e-05,-7.794349949108437e-05,-3.4503216738812625e-05,1.1260139217483811e-05,-1.1544820154085755e-05,5.752831566496752e-05
2.07167468033731e-05,-0.000140603820909746,-9.676559420768172e-05,4.5206847971712705e-06,-5.2221644182282034e-06,8.02340655354783e-05
3.0388759114430286e-05,-0.00022295034432318062,-0.00014374979946296662,3.634075483205379e-06,-8.05489037247753e-07,9.085935744224116e-05
3.855075192404911e-05,-0.0002980743593070656,-0.00015706643171142787,3.315573849249631e-06,3.624102873800439e-06,8.835054177325219e-05
4.6610522986156866e-05,-0.0003317247610539198,-0.0001623924617888406,-1.1071733752032742e-05,9.49522654991597e-06,8.293627615785226e-05
5.882696495973505e-05,-0.0003080060123465955,-0.00018870600615628064,-4.4733198592439294e-05,1.5077799616847187e-05,8.281011832877994e-05
7.577205542474985e-05,-0.00025281868875026703,-0.00022553167946171016,-7.405370706692338e-05,1.2381421583995689e-05,8.390787843381986e-05
9.237362974090502e-05,-0.0002004521811613813,-0.0002451654290780425,-5.642423639073968e-05,-3.858868922179681e-07,7.756681588944048e-05
0.00010667141759768128,-0.000138497183797881,-0.00023550968035124242,1.800202517188154e-05,-1.3815648344461806e-05,6.581718480447307e-05
0.0001143779736594297,-3.846311301458627e-05,-0.0002104336890624836,0.00010367930372012779,-1.7229001969099045e-05,5.995775427436456e-05
0.00010979553189827129,8.272288687294349e-05,-0.00017366161046084017,0.00014477816876024008,-1.3280937309900764e-05,6.408982881112024e-05
8.970062481239438e-05,0.0001827806408982724,-8.445711864624172e-05,0.0001349121012026444,-1.1857591744046658e-05,6.759011012036353e-05
5.863438855158165e-05,0.0002517900138627738,5.911542029934935e-05,0.00011369934509275481,-1.3799181942886207e-05,6.64717736071907e-05
1.8540651581133716e-05,0.00030683164368383586,0.00017557349929120392,0.00010968111746478826,-1.1972162610618398e-05,6.793723878217861e-05
-2.5734882001415826e-05,0.00033257054747082293,0.00025203474797308445,0.0001194655051222071,-1.1740828995243646e-05,7.230453047668561e-05
-5.9005400544265285e-05,0.0003062589094042778,0.00032825605012476444,0.00011891245958395302,-1.862420504039619e-05,7.767720671836287e-05
-8.092303323792294e-05,0.0002518124820198864,0.000430828396929428,9.624555241316557e-05,-2.90854641207261e-05,8.154965325957164e-05
-0.00010196218499913812,0.00020522969134617597,0.0005320007912814617,6.380685954354703e-05,-4.272384467185475e-05,7.606791768921539e-05
-0.00012375701044220477,0.00014015630586072803,0.0005643070908263326,2.918760947068222e-05,-6.008731361362152e-05,5.6536246120231226e-05
-0.00013360028970055282,3.864604150294326e-05,0.0005187839269638062,6.554516403411981e-06,-7.139328226912767e-05,3.602334254537709e-05
-0.00012152364797657356,-4.71589264634531e-05,0.0004117534845136106,9.645194950280711e-06,-7.443111826432869e-05,3.095330612268299e-05
-9.753067570272833e-05,-8.541027636965737e-05,0.0002940445556305349,1.0536659829085693e-05,-7.095839828252792e-05,3.089293750235811e-05
-7.086648110998794e-05,-8.415237971348688e-05,0.00019981544755864888,-2.117241638188716e-05,-5.772494478151202e-05,2.6295430870959535e-05
-4.6227400162024423e-05,-7.183445995906368e-05,0.0001411512348568067,-7.377858855761588e-05,-3.825235762633383e-05,2.517396933399141e-05
-2.134011810994707e-05,-6.624524394283071e-05,0.00012348157179076225,-9.835609671426937e-05,-1.832168891269248e-05,3.1727504392620176e-05
-1.39799817588937e-06,-7.009509863564745e-05,0.0001396676670992747,-8.340840577147901e-05,-3.867778559651924e-06,3.758176899282262e-05
5.0435191951692104e-06,-7.229667971841991e-05,0.0001658219116507098,-6.5175088820979e-05,6.065557727197302e-07,3.5254521208116785e-05
5.5507071010652e-06,-5.953230720479041e-05,0.00018369834288023412,-3.5723409382626414e-05,3.664748646770022e-07,3.1280782422982156e-05
9.709907317301258e-06,-4.3479831219883636e-05,0.0001917139597935602,3.875602124026045e-05,1.8352879749272688e-07,3.043966535187792e-05
1.618759961274918e-05,-4.508874917519279e-05,0.00018172062118537724,0.00013590061280410737,-5.2922214308637194e-06,3.136668601655401e-05
1.9890154362656176e-05,-6.44693718641065e-05,0.00014583265874534845,0.00019163617980666459,-1.2745668755087536e-05,3.055567867704667e-05
2.1698411728721112e-05,-8.78913706401363e-05,8.821343362797052e-05,0.00017375126481056213,-1.724268622638192e-05,2.8179740183986723e-05
2.3119740944821388e-05,-0.00010819744056789204,2.660598147485871e-05,0.00010680334526114166,-2.0149336705799215e-05,3.114197897957638e-05
2.492787280061748e-05,-0.00012188865366624668,-3.1862127798376605e-05,3.0547707865480334e-05,-2.549750206526369e-05,3.3263888326473534e-05
2.616927304188721e-05,-0.0001276661059819162,-7.658595131943002e-05,-1.7780721464077942e-05,-2.973656046378892e-05,3.104251663899049e-05
2.768425656540785e-05,-0.0001261670549865812,-9.694259642856196e-05,-1.1213140169274993e-05,-2.7204981961403973e-05,3.447924245847389e-05
2.983075137308333e-05,-0.00011942989658564329,-9.239699284080416e-05,3.070541060878895e-05,-1.923910531331785e-05,4.394013376440853e-05
3.3817486837506294e-05,-0.00010986782581312582,-8.263932977570221e-05,5.6554286857135594e-05,-1.1704827556968667e-05,4.611525946529582e-05
4.0666869608685374e-05,-0.0001011797139653936,-7.80936679802835e-05,3.645580363809131e-05,-1.78852349108638e-06,4.302008528611623e-05
4.7832218115217984e-05,-8.907951269065961e-05,-6.773562199668959e-05,-3.0599130695918575e-05,1.853403591667302e-05,4.8452599003212526e-05
5.1203369366703555e-05,-7.400746835628524e-05,-4.0733364585321397e-05,-0.00012286634591873735,4.0098573663271964e-05,5.6244061852339655e-05
5.1235390856163576e-05,-6.181238131830469e-05,-9.46221553022042e-06,-0.0001693923695711419,4.3678974179783836e-05,5.543350562220439e-05
5.1786249969154596e-05,-5.3932722948957235e-05,4.670502676162869e-06,-0.00011944038124056533,3.050343002541922e-05,4.911321957479231e-05
5.4248914238996804e-05,-4.830970283364877e-05,-1.367725599266123e-05,2.694199565667077e-06,1.0591294994810596e-05,4.6008954086573794e-05
5.367308767745271e-05,-5.161336230230518e-05,-4.481069481698796e-05,0.00010292540537193418,-9.725774361868389e-06,4.6525125071639195e-05
5.049815808888525e-05,-7.446181552950293e-05,-5.912078995606862e-05,0.000125707418192178,-2.8403408578014933e-05,5.313680594554171e-05
5.139412678545341e-05,-0.00011398408241802827,-5.136495383339934e-05,0.0001074516840162687,-4.0941376937553287e-05,6.210108404047787e-05
5.577179399551824e-05,-0.00014106440357863903,-3.687564458232373e-05,8.451595931546763e-05,-4.3986721721012145e-05,6.657010817434639e-05
5.592952584265731e-05,-0.00013894685253035277,-3.3099870051955804e-05,7.334352994803339e-05,-4.9999816837953404e-05,7.045164238661528e-05
5.0260601710760966e-05,-0.0001255954266525805,-4.618592356564477e-05,6.168719846755266e-05,-6.201482756296173e-05,7.0323352701962e-05
4.432298010215163e-05,-0.00012247959966771305,-6.850656791357324e-05,4.283889211365022e-05,-7.151815225370228e-05,6.773354834876955e-05
4.4191107008373365e-05,-0.00013243990542832762,-9.094030247069895e-05,2.0510877220658585e-05,-7.099273352650926e-05,6.946471694391221e-05
4.8554924433119595e-05,-0.00013288756599649787,-0.00010898436448769644,3.750502173716086e-06,-5.8663878007791936e-05,7.243628351716325e-05
5.0720071158139035e-05,-0.00011815327889053151,-0.0001138125589932315,-6.612190645682858e-06,-3.570274566300213e-05,7.119881774997339e-05
4.7098637878661975e-05,-0.00010421918705105782,-0.00011354391608620062,3.7593479191855295e-06,-8.304393304570112e-06,6.272847531363368e-05
4.036358222947456e-05,-0.00010011855920311064,-0.00010653960634954274,3.4984790545422584e-05,2.3345148292719387e-05,5.3479907364817336e-05
3.533864946803078e-05,-9.632380533730611e-05,-7.193708006525412e-05,6.600134656764567e-05,5.515466182259843e-05,5.302014324115589e-05
3.2933512557065114e-05,-7.499077037209645e-05,-1.3689710613107309e-05,8.296481246361509e-05,7.849394751247019e-05,6.040473090251908e-05
3.297862349427305e-05,-3.8412421417888254e-05,2.1966328858979978e-05,8.636508573545143e-05,8.596503175795078e-05,6.736649083904922e-05
3.2344112696591765e-05,-8.263297786470503e-06,1.378779506922001e-05,8.534918015357107e-05,7.654369983356446e-05,6.930608651600778e-05
2.7511037842486985e-05,3.6625692700908985e-06,-1.1128673577331938e-05,8.000942034414038e-05,5.69983349123504e-05,6.771514017600566e-05
2.1034327801316977e-05,7.240394552354701e-06,-2.033683813351672e-05,7.568305591121316e-05,3.55984375346452e-05,6.812137144152075e-05
2.0331381165306084e-05,5.9124686231371015e-06,-8.727581189305056e-06,7.153629849199206e-05,2.081139973597601e-05,7.307119813049212e-05
2.1554369595833123e-05,-7.38233347874484e-06,7.248156634886982e-06,5.783075175713748e-05,1.2912492820760235e-05,8.211985550587997e-05
1.8040815120912157e-05,-2.7093017706647515e-05,8.570525096729398e-06,2.3570020857732743e-05,7.691622158745304e-06,8.956618694355711e-05
1.5017366422398482e-05,-3.987035961472429e-05,-5.725546543544624e-06,-2.321863576071337e-05,4.115059709874913e-06,8.352087752427906e-05
1.819355929910671e-05,-3.830248169833794e-05,-2.197703543060925e-05,-7.432728307321668e-05,2.8392457807058236e-06,6.695816409774125e-05
2.3956663426361047e-05,-1.9667260858113877e-05,-2.275256520078983e-05,-0.00011256098514422774,2.6434788651386043e-06,5.532760769710876e-05
2.827075877576135e-05,-2.1530702269956237e-06,-4.697304575529415e-06,-0.00010759312863228843,3.4650552152015734e-06,5.337655238690786e-05
2.8759117412846535e-05,-5.948227681074059e-06,1.8373879356659018e-05,-5.2709565352415666e-05,4.5246571289681015e-07,5.1810693548759446e-05
2.4324861442437395e-05,-2.980999488499947e-05,2.7680323910317384e-05,2.1286687115207314e-05,-1.2440680620784406e-05,4.179735333309509e-05
1.9822666217805818e-05,-4.7615270887035877e-05,3.832012680504704e-06,6.516676512546837e-05,-3.071592072956264e-05,3.1873023544903845e-05
1.8798842575051822e-05,-4.1408417018828914e-05,-3.138409010716714e-05,4.818843081011437e-05,-4.276393883628771e-05,3.552895941538736e-05
2.0380481146275997e-05,-2.9581831768155098e-05,-2.2390329831978306e-05,1.072915256372653e-05,-4.603557681548409e-05,5.121860885992646e-05
2.0223893443471752e-05,-3.392652070033364e-05,3.73165457858704e-05,5.791862804471748e-06,-4.406309744808823e-05,6.820499402238056e-05
1.9602757674874738e-05,-5.145115210325457e-05,9.979445167118683e-05,4.1542651160852984e-05,-3.964098868891597e-05,8.293577411677688e-05
1.9750332285184413e-05,-5.755925667472184e-05,0.0001378158776788041,9.077520371647552e-05,-3.4196396882180125e-05,9.605828381609172e-05
2.0377754481160082e-05,-4.605234425980598e-05,0.00015940653975121677,0.00012996484292671084,-3.0127795980661176e-05,0.0001046633769874461
2.2776348487241194e-05,-3.153413854306564e-05,0.00017464791017118841,0.00014066552103031427,-2.22598737309454e-05,0.00010603031842038035
2.1900537831243128e-05,-4.9307403969578445e-05,0.00017822517838794738,0.00012289897131267935,-1.0531613042985555e-05,0.00010026540257968009
1.9684404833242297e-05,-9.987514931708574e-05,0.0001605979778105393,8.183810132322833e-05,-6.729904384883412e-07,9.113612031796947e-05
2.254184801131487e-05,-0.00013998096983414143,0.00012269997387193143,3.1885956559563056e-05,3.0551586860383395e-06,8.151104702847078e-05
3.0901323043508455e-05,-0.0001406411756761372,7.636367081431672e-05,-7.039895081106806e-06,4.1230368879041635e-06,7.163683767430484e-05
3.946826473111287e-05,-0.00011353788431733847,2.865055648726411e-05,-3.344211290823296e-05,7.466509032383328e-06,6.303229019977152e-05
4.725650433101691e-05,-8.15767707535997e-05,-1.6124160538311116e-05,-4.4487609557108954e-05,9.76506998995319e-06,5.931973282713443e-05
5.284389771986753e-05,-5.501543273567222e-05,-5.133162630954757e-05,-3.491901225061156e-05,5.2210984904377256e-06,5.730247721658088e-05
5.052296910434961e-05,-4.0771807107375935e-05,-7.561601523775607e-05,-1.0874309737118892e-05,-3.4075731036864454e-06,5.5172851716633886e-05
3.839512646663934e-05,-4.331541640567593e-05,-9.725166455609724e-05,2.550419822000549e-06,-6.553866569447564e-06,5.1741280913120136e-05
2.2524527594214305e-05,-5.699301982531324e-05,-0.00010982286767102778,5.05572927522735e-07,-4.809806796401972e-06,4.636359881260432e-05
9.46912587096449e-06,-6.192054570419714e-05,-7.089894643286243e-05,1.7774824527805322e-06,-6.811821094743209e-06,4.107411587028764e-05
1.8903770069300663e-06,-4.7807247028686106e-05,4.5706099626841024e-05,3.016195842064917e-05,-1.376703403366264e-05,3.704713890329003e-05
-1.0533477734497865e-06,-2.125438186340034e-05,0.00019477921887300909,7.262620783876628e-05,-1.7753955035004765e-05,3.1007100915303454e-05
-2.761074142654252e-07,-5.068361588200787e-06,0.0002900421095546335,8.847271965350956e-05,-2.0282292098272592e-05,2.634960947034415e-05
5.293733920552768e-06,-1.392064405081328e-05,0.0002891825861297548,5.673733903677203e-05,-2.547232543292921e-05,2.8609960281755775e-05
1.0150328307645395e-05,-3.735611971933395e-05,0.00023431114095728844,1.5236014405672904e-05,-3.0607472581323236e-05,2.9423710657283664e-05
1.2754482668242417e-05,-4.968414577888325e-05,0.00018926896154880524,3.1924380436976207e-06,-2.738025432336144e-05,2.9983813874423504e-05
1.0882654351007659e-05,-4.032520155305974e-05,0.0001656770909903571,1.0040834240498953e-05,-2.0174642486381344e-05,4.257054752088152e-05
6.273081453400664e-06,-1.3025498446950223e-05,0.00013386966020334512,1.5321131286327727e-05,-1.8912236555479467e-05,5.929089820710942e-05
5.012086148781236e-06,1.836584124248475e-05,8.044538844842464e-05,2.5003560949699022e-05,-2.1539104636758566e-05,6.575029692612588e-05
9.08364472707035e-06,3.207945701433346e-05,1.2557110494526569e-05,3.6994948459323496e-05,-2.116095674864482e-05,7.261523569468409e-05
1.6404801499447785e-05,1.483835785620613e-05,-6.055712219676934e-05,3.652327723102644e-05,-1.9319319108035415e-05,8.105740562314168e-05
2.399384720774833e-05,-2.3882468667579815e-05,-0.00011838004138553515,2.1343752450775355e-05,-2.062667226709891e-05,7.894745795056224e-05
3.2082512916531414e-05,-7.155151251936331e-05,-0.0001339064765488729,3.78573645321012e-06,-2.340489845664706e-05,6.698636570945382e-05
3.6545963666867465e-05,-0.00010656936501618475,-9.907627827487886e-05,-2.732756001933012e-06,-2.627223148010671e-05,5.600142685580067e-05
3.379848203621805e-05,-0.00011998437548754737,-5.587904524873011e-05,1.0631687473505735e-05,-2.7732377930078655e-05,5.2226867410354316e-05
2.660789505171124e-05,-0.00012173588038422167,-4.198343958705664e-05,3.381091300980188e-05,-2.9215467293397523e-05,4.925926623400301e-05
1.987992254726123e-05,-0.00012706818233709782,-3.0906012398190796e-05,5.993745435262099e-05,-2.940894410130568e-05,4.616270598489791e-05
1.8305530829820782e-05,-0.0001647408789722249,1.681537105469033e-05,8.595666440669447e-05,-2.1301837477949448e-05,4.52006388513837e-05
2.296027378179133e-05,-0.0002314749435754493,8.185529441107064e-05,9.334567585028708e-05,-1.0346596354793292e-05,4.152001565671526e-05
3.0225510272430256e-05,-0.00027648452669382095,0.00011148795601911843,7.824601925676689e-05,-5.070778115623398e-06,3.615458626882173e-05
3.557922536856495e-05,-0.00025527706020511687,9.979000606108457e-05,5.713144128094427e-05,-4.203914613754023e-06,3.9429742173524573e-05
3.725050555658527e-05,-0.00017904404376167804,9.654492896515876e-05,5.413230610429309e-05,-4.043793978780741e-06,5.149042044649832e-05
3.471781383268535e-05,-7.542171806562692e-05,0.00012373067147564143,6.526842480525374e-05,-5.032211447542068e-06,6.228010170161724e-05
2.4284714527311735e-05,3.8395981391659006e-05,0.0001319321891060099,6.47089327685535e-05,-8.300520676129963e-06,6.780422700103372e-05
6.960613973205909e-06,0.00014498810924123973,8.132616494549438e-05,4.0590301068732515e-05,-1.3838543054589536e-05,6.750105967512354e-05
-7.628998446307378e-06,0.00021728008869104087,-4.591490323946346e-06,1.4951515368011314e-05,-2.4958138965303078e-05,6.505048804683611e-05
-1.4831271073489916e-05,0.000244034847128205,-7.226864545373246e-05,5.575739123742096e-06,-4.542857641354203e-05,6.163057696539909e-05
-2.0418614440131932e-05,0.00023773868451826274,-8.963311847764999e-05,5.843035978614353e-06,-6.852213846286759e-05,5.665984281222336e-05
-3.012827983184252e-05,0.00021244300296530128,-6.374913937179372e-05,-1.1049284012187854e-06,-8.047299343161285e-05,5.460940155899152e-05
-4.187249214737676e-05,0.0001750549126882106,-1.9564824469853193e-05,-2.3234992113430053e-05,-7.72928397054784e-05,5.330322892405093e-05
-4.780502422363497e-05,0.0001214522635564208,3.015551919816062e-05,-5.491599949891679e-05,-6.403991574188694e-05,5.211532334215008e-05
-4.014244404970668e-05,5.4679709137417376e-05,7.955182081786916e-05,-5.357788541004993e-05,-4.509996870183386e-05,5.7347057008882985e-05
-2.1849025870324112e-05,-1.3759463399765082e-05,0.00011535049270605668,2.7773128749686293e-05,-2.7792772016255185e-05,6.316728104138747e-05
-2.455842832205235e-06,-6.645165558438748e-05,0.0001236971002072096,0.00015206100943032652,-1.5443669326486997e-05,6.181169737828895e-05
1.5728757716715336e-05,-0.00010076779290102422,9.431145736016333e-05,0.00022720509150531143,1.637632294659852e-06,5.9391855756985024e-05
2.826115996867884e-05,-0.0001208124085678719,4.6531793486792594e-05,0.00019837485160678625,1.781598257366568e-05,6.109452806413174e-05
3.514918716973625e-05,-0.000128484025481157,1.709250318526756e-05,0.00012292340397834778,3.0845632863929495e-05,6.936126010259613e-05
3.6418896343093365e-05,-0.0001407118543284014,7.687027391511947e-06,7.963815005496144e-05,4.0855953557183966e-05,8.295424049720168e-05
3.3583030017325655e-05,-0.00015415929374285042,2.6926018108497374e-06,6.57843702356331e-05,4.4151827751193196e-05,9.164952643914148e-05
3.6598863516701385e-05,-0.00014655673294328153,1.977685315068811e-06,5.072923158877529e-05,4.94438863825053e-05,8.882283873390406e-05
4.200812691124156e-05,-0.00011482231639092788,1.258936754311435e-05,1.975685518118553e-05,5.4174310207599774e-05,7.843170169508085e-05
4.1420149500481784e-05,-8.853172039380297e-05,2.6973038984579034e-05,-1.5512014215346426e-05,5.076875095255673e-05,6.938359001651406e-05
3.440678119659424e-05,-7.534526230301708e-05,2.8459053282858804e-05,-3.8916456105653197e-05,4.1109560697805136e-05,6.46735934424214e-05
3.2220512366620824e-05,-6.389839836629108e-05,2.6829822672880255e-05,-3.235832627979107e-05,3.293004192528315e-05,6.721568206558004e-05
3.9400820242008194e-05,-4.778181391884573e-05,2.850682540156413e-05,-6.356253379635746e-06,2.558794221840799e-05,7.622606790391728e-05
4.6269691665656865e-05,-2.832873724400997e-05,2.0521463738987222e-05,-2.3912546112114796e-06,1.7473394109401852e-05,7.190241012722254e-05
4.3687366996891797e-05,-1.3648193998960778e-05,1.0401616918898071e-06,-4.3924315832555294e-05,1.3375080015975982e-05,5.057587259216234e-05
3.6524572351481766e-05,-7.978013854881283e-06,-2.6227853595628403e-05,-0.00011426550918258727,1.8692106095841154e-05,3.557531817932613e-05
3.653791645774618e-05,-1.6247891835519113e-05,-5.694909850717522e-05,-0.00016671147022861987,2.6575688025332056e-05,3.0410807084990665e-05
4.32533270213753e-05,-3.65056621376425e-05,-8.288477692985907e-05,-0.00015016261022537947,2.3691703972872347e-05,2.0547500753309578e-05
4.679955236497335e-05,-6.219602073542774e-05,-9.354813664685935e-05,-5.5837921536294743e-05,8.980473467090633e-06,8.590093784732744e-06
4.160499156569131e-05,-8.129556226776913e-05,-7.08271109033376e-05,6.156296149129048e-05,-5.302597401168896e-06,9.004676030599512e-06
3.366958844708279e-05,-9.210170537699014e-05,-5.831239377585007e-06,0.0001368768425891176,-1.1028630069631618e-05,2.4813331037876196e-05
2.922771091107279e-05,-9.827323083300143e-05,5.994579260004684e-05,0.00014778847980778664,-1.1869815352838486e-05,4.315447949920781e-05
2.5912118871929124e-05,-0.00010334474791307002,7.038637704681605e-05,0.00011555427045095712,-1.360347778245341e-05,5.1370963774388656e-05
2.2296775568975136e-05,-0.00010519015631871298,3.741107866517268e-05,7.084877142915502e-05,-1.7849406503955834e-05,5.1726507081184536e-05
2.1050951545475982e-05,-0.00010728911001933739,1.1123046533612069e-05,3.92999172618147e-05,-2.0582037905114703e-05,5.1780836656689644e-05
1.9634238924481906e-05,-0.00011613873357418925,1.167474238172872e-05,2.8305817977525294e-05,-2.230032259831205e-05,5.1940376579295844e-05
1.6035981388995424e-05,-0.0001249453198397532,3.549991379259154e-05,3.0710787541465834e-05,-2.5830528102233075e-05,4.9800983106251806e-05
1.4472234397544526e-05,-0.00012089611118426546,6.238651258172467e-05,3.214386379113421e-05,-2.9757364245597273e-05,5.065834557171911e-05
2.1572355763055384e-05,-9.896521805785596e-05,6.622193177463487e-05,2.1382427803473547e-05,-2.9979486498632468e-05,6.06961220910307e-05
3.304082929389551e-05,-7.058810297166929e-05,4.3813834054162726e-05,6.694109742966248e-06,-2.92158656520769e-05,7.905031088739634e-05
4.403840284794569e-05,-7.83516516094096e-05,2.3935614080983214e-05,9.629128726373892e-06,-2.9750295652775094e-05,8.772696310188621e-05
5.5031887313816696e-05,-0.00014089439355302602,9.263233550882433e-06,2.860770473489538e-05,-3.2617910619592294e-05,8.349546260433272e-05
6.473638495663181e-05,-0.000203554387553595,-2.9900622394052334e-05,4.795218410436064e-05,-3.453219687798992e-05,8.689569949638098e-05
6.809312617406249e-05,-0.00020588900952134281,-8.456186333205551e-05,6.630076677538455e-05,-3.3244887163164094e-05,9.397797111887485e-05
6.6072003392037e-05,-0.00015712878666818142,-0.00012329619494266808,8.865468407748267e-05,-2.934073199867271e-05,9.993644925998524e-05
6.0077472880948335e-05,-9.156649321084842e-05,-0.00012733085895888507,0.0001028777114697732,-2.6643410819815472e-05,0.00010805435158545151
4.8407455324195325e-05,-2.216947359556798e-05,-9.3453774752561e-05,9.441415022592992e-05,-2.649392445164267e-05,0.00011835196346510202
3.700170782394707e-05,2.888297058234457e-05,-4.0333179640583694e-05,6.851072248537093e-05,-2.177179339923896e-05,0.00012188971595605835
2.712539571803063e-05,4.589007585309446e-05,-1.2686996342381462e-06,3.916891728295013e-05,-1.6668132957420312e-05,0.00011152982187923044
1.2353450074442662e-05,4.859364344156347e-05,3.7289963074726984e-05,-8.529891601938289e-07,-1.5117907423700672e-05,9.355507791042328e-05
-6.516887879115529e-06,6.664363172603771e-05,0.00011169977369718254,-5.212148607824929e-05,-1.2710353985312395e-05,7.437268504872918e-05
-1.9727196558960713e-05,9.89733962342143e-05,0.00020349828992038965,-7.945300603751093e-05,-5.253530162008246e-06,5.269642497296445e-05
-2.812893762893509e-05,0.00011634965630946681,0.00026027130661532283,-6.53765382594429e-05,1.8303992419532733e-06,3.0247154427343048e-05
-3.469236253295094e-05,9.320361277787015e-05,0.0002630370145197958,-3.757407466764562e-05,3.5295884117658716e-06,9.443903763894923e-06
-3.8040776416892186e-05,4.18832860304974e-05,0.00024247993133030832,-3.773596108658239e-05,5.554062681767391e-06,-9.044745638675522e-06
-3.6531990190269426e-05,-7.434118288074387e-06,0.00022573827300220728,-6.856437539681792e-05,9.008425877254922e-06,-2.0417044652276672e-05
-2.8819571525673382e-05,-3.529569585225545e-05,0.000219605746679008,-9.570579277351499e-05,9.64353239396587e-06,-2.0168472474324517e-05
-1.4065815776120871e-05,-3.3825690479716286e-05,0.00022123348026070744,-8.789164712652564e-05,1.0367411050538067e-05,-5.8273158174415585e-06
1.6515970173713868e-06,-1.6618247173028067e-05,0.00022229424212127924,-4.5505690650315955e-05,1.2214673915877938e-05,1.3412236512522213e-05
9.8516165962792e-06,-1.7004414985422045e-05,0.00020379875786602497,2.5094586817431264e-06,9.667256563261617e-06,2.4806015062495135e-05
1.101122597901849e-05,-4.177951268502511e-05,0.00015086724306456745,2.7390335162635893e-05,3.840841031887976e-07,1.962286296475213e-05
1.083174083760241e-05,-6.448548811022192e-05,7.39509632694535e-05,3.536111398716457e-05,-1.0669438779586926e-05,6.63906212139409e-06
1.3097171176923439e-05,-7.161299436120316e-05,8.543884177925065e-06,4.5163920731283724e-05,-1.6760175640229136e-05,3.319081542940694e-06
1.5612866263836622e-05,-7.531636219937354e-05,-1.7242242392967455e-05,7.223454304039478e-05,-1.880459240055643e-05,1.6179599697352387e-05
2.0380506612127647e-05,-8.339733176399022e-05,-3.7056490782561013e-06,0.00011886934953508899,-2.1548286895267665e-05,3.394357190700248e-05
2.8036951334797777e-05,-9.092014806810766e-05,1.9395834897295572e-05,0.00015717087080702186,-2.391658563283272e-05,4.448452818905935e-05
3.4709566534729674e-05,-9.308437438448891e-05,2.6283156330464408e-05,0.0001771502720657736,-2.4922372176661156e-05,5.171932571101934e-05
4.178074959781952e-05,-8.543643343728036e-05,1.1170644029334653e-05,0.00017007262795232236,-2.8701939299935475e-05,6.039169602445327e-05
4.6285978896776214e-05,-6.83595790178515e-05,-1.970376069948543e-05,0.00013509596465155482,-2.763461998256389e-05,6.942483014427125e-05
4.361645915196277e-05,-5.567074185819365e-05,-4.534311665338464e-05,9.897346899379045e-05,-2.3809105186956003e-05,6.980849866522476e-05
3.589174957596697e-05,-5.295290975482203e-05,-5.841228266945109e-05,7.264838495757431e-05,-2.4341954485862516e-05,6.159866461530328e-05
2.6008972781710327e-05,-4.613659984897822e-05,-6.126777589088306e-05,5.829988731420599e-05,-2.1453985027619638e-05,5.600616350420751e-05
1.3796456187264994e-05,-3.593750443542376e-05,-4.574508420773782e-05,5.158035128260963e-05,-1.7377180483890697e-05,5.813129246234894e-05
1.1621298199315788e-06,-3.442690649535507e-05,-3.5398290947341593e-06,3.689226650749333e-05,-1.4769684639759362e-05,6.161999772302806e-05
-4.4961002458876465e-06,-3.785957596846856e-05,4.721301593235694e-05,7.77965487941401e-06,-1.0373863915447146e-05,5.885194696020335e-05
-2.228762696177e-06,-3.852168083540164e-05,8.730105764698237e-05,-1.915651409944985e-05,-5.9884096117457375e-06,5.284797225613147e-05
2.253252205264289e-06,-3.7164547393331304e-05,9.980391041608527e-05,-3.7020643503637984e-05,-5.588989552052226e-06,4.58098656963557e-05
7.143235507101053e-06,-3.8631977076875046e-05,7.070304855005816e-05,-5.5614022130612284e-05,-6.457541076088091e-06,4.031544813187793e-05
1.3437108464131597e-05,-4.291602817829698e-05,1.387186421197839e-05,-6.720552482875064e-05,-4.2154633774771355e-06,3.31526534864679e-05
1.9537990738172084e-05,-4.915031240670942e-05,-3.576483504730277e-05,-5.614011752186343e-05,-1.3465123629430309e-06,3.144574293401092e-05
2.2137906853458844e-05,-6.302033580141142e-05,-5.837122444063425e-05,-2.7715304895536974e-05,-1.2622531642136892e-07,4.033241930301301e-05
2.178383874706924e-05,-8.267533121397719e-05,-6.26585679128766e-05,7.154512786655687e-06,-7.73163009171185e-08,5.26863950653933e-05
2.2223570340429433e-05,-9.494726691627875e-05,-5.99934792262502e-05,4.7605477448087186e-05,5.416990234152763e-07,6.37582124909386e-05
2.584671528893523e-05,-9.239932842319831e-05,-5.56591221538838e-05,8.648834773339331e-05,-7.934083896543598e-07,7.582068792544305e-05
3.1360264983959496e-05,-7.838716555852443e-05,-4.92655199195724e-05,0.00010584728443063796,-6.366035904648015e-06,8.86095585883595e-05
3.615277091739699e-05,-5.818945282953791e-05,-3.3546475606272e-05,0.00010272249346598983,-1.1331630958011374e-05,9.577058517606929e-05
3.857879346469417e-05,-4.358791557024233e-05,-3.0872149636707036e-06,9.121102630160749e-05,-1.1281719707767479e-05,9.819654951570556e-05
3.805212691077031e-05,-4.359660670161247e-05,3.14544522552751e-05,7.791399548295885e-05,-9.279636287828907e-06,0.00010110279981745407
3.5452962038107216e-05,-5.1918646931881085e-05,5.662489638780244e-05,6.206564285093918e-05,-1.0085645953950007e-05,0.00010035889863502234
3.308169834781438e-05,-6.124740320956334e-05,6.85252744005993e-05,3.9183902117656544e-05,-1.2360785149212461e-05,9.322116966359317e-05
3.208011548849754e-05,-7.758592255413532e-05,6.775378278689459e-05,1.661943315411918e-05,-1.11594845293439e-05,8.82186068338342e-05
3.2338346500182524e-05,-9.648798732087016e-05,5.857239375473e-05,6.306915565801319e-06,-8.412794159085024e-06,8.69210489327088e-05
3.212667797924951e-05,-0.0001043347074300982,5.078385947854258e-05,6.756456059520133e-06,-8.374942808586638e-06,8.946184971136972e-05
3.4280768886674196e-05,-0.00010445831867400557,3.420112989260815e-05,1.5621495549567044e-05,-7.259212452481734e-06,8.489583706250414e-05
3.8482183299493045e-05,-0.00010380316962255165,-2.696829142223578e-06,1.1138492482132278e-05,-9.636785762268119e-06,7.397683657472953e-05
4.4435797462938353e-05,-0.00011193459067726508,-4.935044125886634e-05,-2.8104450393584557e-05,-1.6251258784905076e-05,6.590901466552168e-05
5.134569073561579e-05,-0.00013923074584454298,-8.568995690438896e-05,-5.5021395382937044e-05,-2.17091273952974e-05,6.0605052567552775e-05
5.3194951760815457e-05,-0.00016066340322140604,-0.00010181457037106156,-2.1470559659064747e-05,-2.534401028242428e-05,5.811764640384354e-05
5.4816733609186485e-05,-0.0001412831770721823,-0.00010513817687751725,4.7512850869679824e-05,-2.6775362130138092e-05,6.590547127416357e-05
5.525672168005258e-05,-9.249588038073853e-05,-0.00010400808969279751,8.744188380660489e-05,-2.8184464099467732e-05,8.019251254154369e-05
5.370405051507987e-05,-5.4128526244312525e-05,-9.846730245044455e-05,7.353079854510725e-05,-3.300887328805402e-05,8.807878475636244e-05
5.257266093394719e-05,-4.045630703330971e-05,-7.323321187868714e-05,5.027983570471406e-05,-4.2411411413922906e-05,8.746726962272078e-05
5.413037069956772e-05,-3.953654595534317e-05,-1.939924004545901e-05,5.467796290758997e-05,-5.3772793762618676e-05,8.03381044534035e-05
5.345978570403531e-05,-3.4606102417455986e-05,4.474712477531284e-05,6.616969767492265e-05,-6.387673056451604e-05,7.572957838419825e-05
4.7486493713222444e-05,-1.3179577763366979e-05,8.672819967614487e-05,5.546925967792049e-05,-6.60948280710727e-05,7.997668581083417e-05
3.9163311157608405e-05,2.1903444576309994e-05,9.582308848621324e-05,2.530104211473372e-05,-5.869734741281718e-05,8.728465036256239e-05
2.9154298317735083e-05,5.7428678701398894e-05,9.23165789572522e-05,-8.321168934344314e-06,-4.2193369154119864e-05,8.658502338221297e-05
1.5448373233084567e-05,7.412485138047487e-05,0.000108893851574976,-2.481316914781928e-05,-2.0331088308012113e-05,7.56777444621548e-05
7.015830192358408e-07,6.817526445956901e-05,0.00014678195293527097,-1.6899844922591e-05,2.7980572667729575e-06,6.075062265153974e-05
-7.563105100416578e-06,5.643706754199229e-05,0.00016943260561674833,-6.275684427237138e-06,2.671815855137538e-05,5.420234447228722e-05
-1.0668090908438899e-05,5.982813672744669e-05,0.00016232070629484951,-8.847690878610592e-06,4.8072852223413065e-05,5.969869016553275e-05
-1.374664316244889e-05,7.706756878178567e-05,0.00014923590060789138,-7.63783828006126e-06,6.095157368690707e-05,7.215086952783167e-05
-1.81903742486611e-05,8.382763189729303e-05,0.0001437212195014581,9.446686817682348e-06,6.311434844974428e-05,8.563448500353843e-05
-1.8645101590664126e-05,6.040769221726805e-05,0.00013810209929943085,2.8528498660307378e-05,5.833551404066384e-05,9.446720650885254e-05
-1.3026658962189686e-05,1.085747226170497e-05,0.00012731796596199274,3.752514749066904e-05,4.9827554903458804e-05,9.75138318608515e-05
-2.2608410290558822e-06,-4.175297362962738e-05,0.00011099760013166815,3.886207196046598e-05,4.052707299706526e-05,9.366073209093884e-05
7.683269359404221e-06,-8.283604256575927e-05,8.558836998417974e-05,4.141803947277367e-05,2.7627716917777434e-05,8.428035653196275e-05
1.3149515325494576e-05,-0.00010840829781955108,4.223773430567235e-05,4.51875566795934e-05,1.083283314073924e-05,6.991498958086595e-05
9.904615581035614e-06,-0.00010571750317467377,-1.0147564353246707e-05,4.577111394610256e-05,-4.928553607896902e-06,4.699976489064284e-05
2.4220748855441343e-06,-8.175316179404035e-05,-3.525414285832085e-05,5.3978292271494865e-05,-1.4787267900828738e-05,2.3287686417461373e-05
3.6721028209285578e-06,-6.941406172700226e-05,-3.4065353247569874e-05,6.233141903067008e-05,-2.3426660845871083e-05,1.0238358299829997e-05
1.4353096958075184e-05,-6.456943810917437e-05,-5.096121458336711e-05,5.169072755961679e-05,-3.2048461434897035e-05,1.759534097800497e-05
2.507709177734796e-05,-4.890085619990714e-05,-6.001633300911635e-05,3.7528534448938444e-05,-3.40479746228084e-05,3.912468673661351e-05
3.129562537651509e-05,-3.25434775731992e-05,-2.9536638976424e-05,4.3222946260357276e-05,-3.120492328889668e-05,5.7894161727745086e-05
3.410192584851757e-05,-2.1322344764485024e-05,4.294701284379698e-06,6.21417275397107e-05,-2.6895659175352193e-05,7.185994763858616e-05
3.463330722297542e-05,-1.4306147022580262e-05,2.0140194465056993e-05,6.503556505776942e-05,-2.1710300643462688e-05,7.604158599860966e-05
3.207493864465505e-05,-2.04801053769188e-05,2.540739660616964e-05,4.835827712668106e-05,-1.848877036536578e-05,6.530575774377212e-05
2.6645300749805756e-05,-5.250517642707564e-05,2.8349802960292436e-05,2.7239122573519126e-05,-1.8714894395088777e-05,4.7957655624486506e-05
2.2313928639050573e-05,-0.0001004769146675244,3.368868783582002e-05,2.033993240502241e-07,-1.6860674804775044e-05,3.9027374441502616e-05
2.0186540496069938e-05,-0.00012932160461787134,4.0131457353709266e-05,-4.323238681536168e-05,-9.253861207980663e-06,3.898185241268948e-05
1.9242077542003244e-05,-0.00012811258784495294,3.646930417744443e-05,-8.878723019734025e-05,3.2472678412887035e-06,3.946963624912314e-05
2.290515294589568e-05,-0.0001120922970585525,2.061448867607396e-05,-9.593163849785924e-05,1.0250670129607897e-05,3.238093268009834e-05
3.138936881441623e-05,-9.852366929408163e-05,-7.036977649477194e-07,-4.8070487537188455e-05,8.581046131439507e-06,2.147558370779734e-05
3.968400415033102e-05,-8.832551975501701e-05,-2.244422648800537e-05,2.4601989935035817e-05,2.554411082655861e-07,1.3339930774236564e-05
4.1835672163870186e-05,-6.972971459617838e-05,-4.439244366949424e-05,7.36824658815749e-05,-7.456292223650962e-06,5.978940407658229e-06
3.52677125192713e-05,-4.4963289838051423e-05,-6.614327139686793e-05,7.982878742041066e-05,-1.01457135315286e-05,-4.547785081854272e-08
2.5707837266963907e-05,-3.420600114623085e-05,-6.853313971078023e-05,6.077344005461782e-05,-1.1286658263998106e-05,-1.1978677321167197e-06
1.9292745491839014e-05,-4.4900756620336324e-05,-2.2597791030420922e-05,4.499217538977973e-05,-1.3022917300986592e-05,3.0182670798239997e-06
1.701263136055786e-05,-6.0491569456644356e-05,7.051261491142213e-05,4.7468831326114014e-05,-1.333336240350036e-05,1.5050918591441587e-05
1.4925378309271764e-05,-6.655966717517003e-05,0.00017065390420611948,6.599480548175052e-05,-9.274901458411478e-06,3.444290268816985e-05
1.356859957013512e-05,-6.297505024122074e-05,0.00022222324332688004,8.118171535898e-05,-4.729262400360312e-06,5.014967609895393e-05
1.2987949958187528e-05,-5.793098534923047e-05,0.00019439913739915937,6.876800034660846e-05,-8.529137630830519e-06,5.9781061281682923e-05
1.3003945241507608e-05,-5.976248939987272e-05,0.00012036018597427756,3.302773257018998e-05,-2.14255469472846e-05,6.187206599861383e-05
1.8423648725729436e-05,-7.721539441263303e-05,5.4906060540815815e-05,2.7821072308142902e-06,-2.8756792744388804e-05,5.7323250075569376e-05
2.6618105039233342e-05,-0.00011256150901317596,2.7577352739172056e-05,-1.2378672181512229e-05,-2.7033762307837605e-05,5.2044375479454175e-05
2.6754501959658228e-05,-0.00013507144467439502,4.080201324541122e-05,-1.6031910490710288e-05,-2.153266905224882e-05,4.89589074277319e-05
2.227092772955075e-05,-0.00012362608686089516,7.227918831631541e-05,-7.760747394058853e-06,-1.7391765140928328e-05,5.0922630180139095e-05
2.2913272914593108e-05,-0.00010943734378088266,0.00011323374201310799,1.3412941370916087e-05,-1.5739580703666434e-05,5.2315070206532255e-05
2.835758641595021e-05,-0.00010881645721383393,0.00015118638111744076,4.432997593539767e-05,-1.7468748410465196e-05,5.40043183718808e-05
3.1027688237372786e-05,-9.844142914516851e-05,0.00016724532179068774,7.121648377506062e-05,-2.1183843273320235e-05,5.8946381614077836e-05
3.1159121135715395e-05,-7.53503481973894e-05,0.00015588299720548093,7.598093361593783e-05,-2.461535950715188e-05,6.356398080242798e-05
2.9849288694094867e-05,-5.436747596831992e-05,0.00011871878086822107,4.383475607028231e-05,-2.2841610189061612e-05,7.305667531909421e-05
2.6811827410710976e-05,-2.6788091417984106e-05,6.970583490328863e-05,-2.9976631594763603e-06,-2.0276080249459483e-05,8.635689300717786e-05
2.4229046175605617e-05,1.063294166669948e-05,1.918826274049934e-05,-2.80545591522241e-05,-2.614193181216251e-05,9.98601972241886e-05
1.970935227291193e-05,4.267746408004314e-05,-2.484990363882389e-05,-1.935487125592772e-05,-3.5639634006656706e-05,0.00011023366096196696
1.7293237760895863e-05,5.183009125175886e-05,-5.191081072553061e-05,7.5272246249369346e-06,-3.7940866604913026e-05,0.00011349030683049932
1.864641126303468e-05,3.7647718272637576e-05,-5.293525100569241e-05,3.1116764148464426e-05,-2.8046122679370455e-05,0.00010604775889078155
2.374558062001597e-05,1.1086206541222055e-05,-5.0246293540112674e-05,4.249483754392713e-05,-1.249851266038604e-05,9.228939597960562e-05
2.5671648472780362e-05,-1.2020753274555318e-05,-5.125242387293838e-05,3.593974179239012e-05,5.726387257709575e-07,7.780698069836944e-05
2.2908099708729424e-05,-2.2705373339704238e-05,-4.1530929593136534e-05,1.4608352103095967e-05,6.675523309240816e-06,6.627230322919786e-05
1.917320150823798e-05,-3.2191077480092645e-05,-2.5629302399465814e-05,-1.6963620510068722e-05,5.63817184229265e-06,5.895443609915674e-05
1.72819709405303e-05,-5.30169672856573e-05,-1.9609975424828008e-05,-4.8344587412429973e-05,-4.098856436485221e-07,5.54258658667095e-05
1.870915002655238e-05,-7.39455281291157e-05,-2.548727388784755e-05,-6.558336463058367e-05,-1.1000798622262664e-05,5.126625910634175e-05
2.039122409769334e-05,-7.642669515917078e-05,-2.5956025638151914e-05,-5.591978697339073e-05,-2.7439367840997875e-05,3.759780520340428e-05
1.6188094377866946e-05,-6.417794793378562e-05,-1.543143116577994e-05,-1.6574380424572155e-05,-4.590029493556358e-05,1.7595493773114868e-05
6.965557531657396e-06,-5.128447446622886e-05,-7.081533567543374e-06,4.031886055599898e-05,-5.8627316320780665e-05,4.250668553140713e-06
4.1472167140454985e-06,-4.328859722591005e-05,-1.8656335669220425e-05,0.00010121781815541908,-6.171991117298603e-05,8.270945727417711e-06
1.0985332664859015e-05,-4.566583811538294e-05,-5.2382569265319034e-05,0.00015993701526895165,-5.621401214739308e-05,2.4657407266204245e-05
2.1815887521370314e-05,-6.82991449139081e-05,-8.523246651748195e-05,0.0002018634113483131,-4.325341433286667e-05,4.1954059270210564e-05
3.229495632695034e-05,-9.296149801230058e-05,-8.605120092397556e-05,0.00020249775843694806,-2.5084194930968806e-05,5.321512435330078e-05
4.371842078398913e-05,-8.95880366442725e-05,-7.157092477427796e-05,0.0001616852096049115,-2.3064330889610574e-06,6.359691906254739e-05
4.9215414037462324e-05,-6.595488957827911e-05,-7.959374488564208e-05,0.00011200097651453689,2.3592840079800226e-05,7.366980571532622e-05
4.5022217818768695e-05,-5.9714322560466826e-05,-0.00010310309880878776,7.192417251644656e-05,4.4372336560627446e-05,7.876134623074904e-05
3.3093525416916236e-05,-7.537542114732787e-05,-0.00010395573917776346,3.808586552622728e-05,4.862134301220067e-05,7.742838351987302e-05
2.225870412075892e-05,-7.614752394147217e-05,-5.626354686683044e-05,1.6269426851067692e-05,4.605155481840484e-05,6.866228068247437e-05
2.1440635464387015e-05,-5.075620720162988e-05,4.375567732495256e-05,-3.0256494483182905e-06,5.207950380281545e-05,6.458943244069815e-05
2.6399622583994642e-05,-3.318890594528057e-05,0.00013631244655698538,-4.656704550143331e-05,5.86703754379414e-05,6.773339555365965e-05
3.6145836929790676e-05,-3.804697917075828e-05,0.0001613972126506269,-8.423301187576726e-05,6.238617788767442e-05,7.029100379440933e-05
4.6281147660920396e-05,-4.605442154570483e-05,0.00014965125592425466,-5.80500163778197e-05,6.357028905767947e-05,6.928469520062208e-05
4.785892815561965e-05,-3.423589441808872e-05,0.00013910513371229172,4.523427833191818e-06,6.071563984733075e-05,6.557566666742787e-05
3.61736019840464e-05,-2.1413786726043327e-06,0.00013408820086624473,4.561571404337883e-05,5.359082206268795e-05,6.21171566308476e-05
1.1272813935647719e-05,3.0275321478256956e-05,0.00013033587310928851,5.9297573898220435e-05,3.9805334381526336e-05,5.965517630102113e-05
-9.75619514065329e-06,3.7034566048532724e-05,0.00012243495439179242,6.440994184231386e-05,2.6278512450517155e-05,6.278711225604638e-05
-1.5116919712454546e-05,2.8533977456390858e-06,0.00010734472016338259,5.8500325394561514e-05,1.536958916403819e-05,6.855518586235121e-05
-8.494088433508296e-06,-4.877157698501833e-05,9.673568274592981e-05,4.577432628138922e-05,5.426691700449737e-07,7.144629489630461e-05
-8.650337122162455e-07,-7.98825712990947e-05,0.0001056850451277569,3.842938531306572e-05,-1.475304270570632e-05,7.007951353443787e-05
2.9576694942079484e-06,-7.72105559008196e-05,0.00012774940114468336,3.8128942833282053e-05,-2.401665369688999e-05,7.105612166924402e-05
5.1041356528003234e-06,-6.184967060107738e-05,0.00014802980876993388,3.955524516641162e-05,-2.8114103770349175e-05,7.919979543657973e-05
7.428647222695872e-06,-5.642562609864399e-05,0.00014383815869223326,3.393187580513768e-05,-2.916973789979238e-05,8.533857180736959e-05
1.1123453987238463e-05,-5.710587720386684e-05,0.00010703276348067448,2.1966890926705673e-05,-2.8980781280552037e-05,7.788982475176454e-05
1.64920165843796e-05,-4.7787147195776924e-05,5.515833254321478e-05,1.5227623407554347e-05,-2.8176047635497525e-05,6.218760245246813e-05
2.0738680177601054e-05,-3.490137169137597e-05,1.1448715667938814e-05,2.175350527977571e-05,-2.831240817613434e-05,5.178304490982555e-05
1.9145158148603514e-05,-4.2988751374650747e-05,-1.3321865480975248e-05,2.9861670554964803e-05,-3.0598002922488376e-05,5.1901435654144734e-05
1.2602052265719976e-05,-6.694222975056618e-05,-2.2252474082051776e-05,2.333502925466746e-05,-3.378443943802267e-05,5.6986871641129255e-05
4.143843852943974e-06,-7.335004193009809e-05,-2.1193665816099383e-05,7.251527449625428e-07,-3.661819573608227e-05,5.817237979499623e-05
-1.06459211224319e-07,-6.0107806348241866e-05,9.318142133452056e-07,-2.0045914425281808e-05,-3.660188303911127e-05,5.374214379116893e-05
2.0600773495971225e-06,-4.141072713537142e-05,5.0747166824294254e-05,-2.64501813944662e-05,-3.182878572260961e-05,5.0389044190524146e-05
6.3227012105926406e-06,-2.3216238332679495e-05,0.00010017836757469922,-1.981263812922407e-05,-2.8799213396268897e-05,5.2329341997392476e-05
9.134128958976362e-06,-1.774978773028124e-05,0.0001147714865510352,-2.108992703142576e-06,-2.9027651180513203e-05,5.135553146828897e-05
9.22004892345285e-06,-2.4107514036586508e-05,8.105719462037086e-05,2.1156514776521362e-05,-2.966521969938185e-05,4.85548771393951e-05
7.682197065150831e-06,-3.0450522899627686e-05,3.462628956185654e-05,4.4543634430738166e-05,-2.9433771487674676e-05,5.376894478104077e-05
1.0050581295217853e-05,-1.7722575648804195e-05,1.691486977506429e-05,8.06142488727346e-05,-3.217209450667724e-05,6.098336598370224e-05
1.4027328688825946e-05,1.331969633611152e-05,1.6190757378353737e-05,0.00011169763456564397,-3.793426003539935e-05,5.9261921705910936e-05
1.676061401667539e-05,2.739342744462192e-05,9.36333708523307e-06,0.00011158686538692564,-3.703645779751241e-05,5.945808516116813e-05
2.0292336557758972e-05,7.748313691990916e-06,-2.9514801553887082e-06,8.794169843895361e-05,-3.224557440262288e-05,6.588588439626619e-05
2.143004530807957e-05,-2.5393634132342413e-05,-3.0495353712467477e-05,6.116292934166268e-05,-2.6545771106611937e-05,7.134290353860706e-05
2.3021435481496155e-05,-5.617434726445936e-05,-6.68530774419196e-05,4.143255500821397e-05,-2.0686151401605457e-05,7.481631473638117e-05
2.5697187084006146e-05,-7.747576455585659e-05,-9.331543697044253e-05,2.986548497574404e-05,-1.7148684491985478e-05,7.759671279927716e-05
2.562070767453406e-05,-8.68800634634681e-05,-0.000102729864011053,2.9277027351781726e-05,-1.5802294001332484e-05,7.912167347967625e-05
2.6430456273374148e-05,-8.868477016221732e-05,-9.134424908552319e-05,2.988138294313103e-05,-1.3786750969302375e-05,7.894141162978485e-05
2.7565169148147106e-05,-8.546776371076703e-05,-6.233136809896678e-05,2.7372427211957984e-05,-8.836848792270757e-06,7.434505823766813e-05
2.8851425668108277e-05,-8.337139297509566e-05,-2.2317663024296053e-05,2.123501144524198e-05,-3.912395641236799e-06,6.618636689381674e-05
2.87838774966076e-05,-8.939866529544815e-05,2.1822155758854933e-05,1.9908862668671645e-05,-3.7337547382776393e-06,6.2153885664884e-05
2.7804389901575632e-05,-0.00010362471221014857,6.467290950240567e-05,2.9643340894836e-05,-6.975386440899456e-06,6.312683399301022e-05
2.500186747056432e-05,-0.0001135924831032753,8.051922486629337e-05,3.812022623606026e-05,-1.0093261153087951e-05,6.756414950359613e-05
2.4014236259972677e-05,-0.00010826864308910444,6.0929836763534695e-05,3.2787633244879544e-05,-1.2248032362549566e-05,6.973595736781135e-05
2.7062591470894404e-05,-8.851473830873147e-05,3.821707650786266e-05,2.1455747628351673e-05,-1.3512770237866789e-05,6.864079477963969e-05
3.0437842724495567e-05,-6.319353269645944e-05,4.2419582314323634e-05,2.264729300804902e-05,-1.2511568456829991e-05,6.810542981838807e-05
3.110008401563391e-05,-4.1288552893092856e-05,6.992172711761668e-05,3.708826989168301e-05,-1.0593081242404878e-05,6.796132947783917e-05
2.9906628697062843e-05,-3.036826274183113e-05,9.54872157308273e-05,4.64917320641689e-05,-1.3188316188461613e-05,6.481081072706729e-05
2.8721464332193136e-05,-3.265939812990837e-05,9.851327922660857e-05,4.175608410150744e-05,-1.9315262761665508e-05,5.577032789005898e-05
2.8805583497160114e-05,-4.198897659080103e-05,7.815391290932894e-05,3.745640424313024e-05,-2.368694003962446e-05,4.752534005092457e-05
2.9538632588810287e-05,-4.547936987364665e-05,4.63063370261807e-05,4.315596743253991e-05,-2.3638167476747185e-05,4.9191246944246814e-05
2.4657936592120677e-05,-4.261087087797932e-05,9.321217476099264e-06,4.3656073103193194e-05,-2.193298496422358e-05,5.6738517741905525e-05
2.0199087884975597e-05,-4.414063732838258e-05,-2.7142194085172378e-05,2.6667963538784534e-05,-2.0426479750312865e-05,6.297134677879512e-05
2.6034202164737508e-05,-5.21581168868579e-05,-4.744949546875432e-05,1.1412791536713485e-05,-1.8668155462364666e-05,6.729253800585866e-05
3.685022966237739e-05,-6.402027793228626e-05,-4.066693873028271e-05,9.969765415007714e-06,-1.3637805750477128e-05,7.303939491976053e-05
3.948149242205545e-05,-7.88640754763037e-05,-2.186829260608647e-05,8.284633622679394e-06,-3.584361593311769e-06,7.642231503268704e-05
3.8246900658123195e-05,-0.0001164242421509698,-4.647560217563296e-06,-3.0928301839594496e-06,1.5294576769520063e-06,7.02771358191967e-05
4.1048042476177216e-05,-0.00017001948435790837,1.5435383829753846e-05,-1.7058349840226583e-05,-4.621990228770301e-06,5.72061471757479e-05
4.598621671902947e-05,-0.00020250091620255262,4.8604659241391346e-05,-2.6319426979171112e-05,-1.2748787412419915e-05,4.373333649709821e-05
4.8906091251410544e-05,-0.00022276017989497632,8.018827065825462e-05,-2.4313083486049436e-05,-1.4547005775966682e-05,3.78667791665066e-05
4.991708919988014e-05,-0.00023283316113520414,8.80859442986548e-05,-7.658884896954987e-06,-1.1819060091511346e-05,3.8249341741902754e-05
5.375011096475646e-05,-0.00021733886387664825,7.158242078730837e-05,1.4150200513540767e-05,-5.3279245548765175e-06,3.870614091283642e-05
6.0705286159645766e-05,-0.00017603332526050508,2.1372045011958107e-05,2.7219832190894522e-05,1.92004767995968e-06,3.9864953578216955e-05
6.269568257266656e-05,-0.00011833150347229093,-5.343890734366141e-05,2.710734770516865e-05,4.571618774207309e-06,4.7827474190853536e-05
5.6042204960249364e-05,-5.7030178140848875e-05,-0.00012013463128823787,2.774479435174726e-05,4.3149859152435965e-07,5.637871436192654e-05
4.1553168557584286e-05,4.637413894670317e-06,-0.0001438286853954196,3.09930182993412e-05,-8.410974260186777e-06,5.332209912012331e-05
2.2348249331116676e-05,6.0660153394564986e-05,-0.00013208811287768185,3.1763920560479164e-05,-1.463386979594361e-05,3.969030876760371e-05
3.845762876153458e-06,0.00011553013609955087,-0.00013582082465291023,3.1999577913666144e-05,-1.7382697478751652e-05,3.21985426126048e-05
-1.0635725629981607e-05,0.0001621098635951057,-0.00015768525190651417,3.3396008802810684e-05,-1.8222332073491998e-05,3.627227124525234e-05
-2.2670094040222466e-05,0.00018131783872377127,-0.0001535696064820513,3.1017458240967244e-05,-1.9278499166830443e-05,4.142267789575271e-05
-3.052594911423512e-05,0.00016709408373571932,-9.363287244923413e-05,1.5827825336600654e-05,-1.8540888049756177e-05,4.23947349190712e-05
-3.1280782422982156e-05,0.00013008045789320022,2.784770003927406e-05,-5.501268560692552e-07,-1.4669550182588864e-05,3.982583075412549e-05
-2.7199477699468844e-05,8.060320396907628e-05,0.00019632579642347991,-1.142583755608939e-06,-1.0020849003922194e-05,4.229802652844228e-05
-2.2648438971373253e-05,2.6649049686966464e-05,0.0003503155894577503,1.4136830031930003e-05,-9.0085168267251e-06,4.74951411888469e-05
-2.2098864064901136e-05,-1.7176113033201545e-05,0.000437449780292809,3.507653673295863e-05,-1.2619022527360357e-05,4.86420321976766e-05
-2.346762630622834e-05,-3.631196159403771e-05,0.0004681505961343646,5.61519009352196e-05,-1.3681897144124378e-05,5.055424844613299e-05
-1.9898263417417184e-05,-3.3710944990161806e-05,0.00045454729115590453,6.764558929717168e-05,-7.367832040472422e-06,6.144270446384326e-05
-1.3347380445338786e-05,-3.0499561034957878e-05,0.00036905324668623507,5.2119630709057674e-05,-1.2978554195797187e-06,7.49214887036942e-05
-9.177301762974821e-06,-3.683699469547719e-05,0.00022304167214315385,1.826998413889669e-05,-5.347844307834748e-06,7.876745803514495e-05
-1.3205910818214761e-06,-4.184577483101748e-05,8.47402770887129e-05,3.9173955883597955e-06,-1.4780168385186698e-05,7.62630152166821e-05
9.424915333511308e-06,-4.419459219207056e-05,8.150844337251328e-07,1.7135644156951457e-05,-2.484891410858836e-05,7.446945528499782e-05
1.8698243366088718e-05,-5.433043770608492e-05,-2.2414536942960694e-05,3.666471820906736e-05,-2.7265925382380374e-05,7.467585965059698e-05
2.6676452762330882e-05,-6.596974708372727e-05,-9.776502338354476e-06,4.8071149649331346e-05,-2.0904690245515667e-05,7.593951158924028e-05
3.0507604606100358e-05,-7.268061017384753e-05,4.035114670841722e-06,4.713214366347529e-05,-1.6654330465826206e-05,7.007943349890411e-05
2.9473523682099767e-05,-7.13338959030807e-05,7.75148748743959e-07,4.239616828272119e-05,-1.2692775271716528e-05,6.033695171936415e-05
2.9829836421413347e-05,-6.702085374854505e-05,-7.485226433345815e-06,4.2292576836189255e-05,-4.805626304005273e-06,6.033438694430515e-05
3.47966342815198e-05,-6.223849050002173e-05,-1.265955506823957e-05,4.466376412892714e-05,2.579961801529862e-06,7.156265201047063e-05
3.894024484907277e-05,-5.7050056057050824e-05,-1.6548890926060267e-05,5.0131173338741064e-05,1.9161723230354255e-06,8.036796498345211e-05
3.987013769801706e-05,-5.7367145927855745e-05,-1.6183616025955416e-05,5.518263787962496e-05,-8.737647476664279e-06,7.308422209462151e-05
3.9732934965286404e-05,-6.0537793615367264e-05,-1.411088123859372e-05,5.663195042870939e-05,-2.3787728423485532e-05,5.6164204579545185e-05
3.936842404073104e-05,-6.273196049733087e-05,-1.422297464159783e-05,6.278449291130528e-05,-3.837753683910705e-05,4.656500823330134e-05
3.7873382098041475e-05,-6.656199548160657e-05,-1.1448483746789861e-05,7.354950503213331e-05,-5.1152008381905034e-05,4.976349009666592e-05
3.394224404473789e-05,-7.667467434657738e-05,-1.837273657656624e-06,7.970234582899138e-05,-6.228082929737866e-05,5.847298962180503e-05
2.946826134575531e-05,-9.105751087190583e-05,3.877169547195081e-06,6.951028626644984e-05,-6.9137015088927e-05,6.458042480517179e-05
2.7313619284541346e-05,-9.929962834576145e-05,-4.909984909318155e-06,6.034647230990231e-05,-6.7737782956101e-05,6.898038554936647e-05
3.089213714702055e-05,-9.860585851129144e-05,-1.8080960217048414e-05,7.368595106527209e-05,-5.930141924181953e-05,7.594737689942122e-05
3.908450162271038e-05,-9.487068746238947e-05,-1.614455868548248e-05,9.864437743090093e-05,-4.624601569958031e-05,8.552275539841503e-05
4.591460310621187e-05,-9.09156515263021e-05,-8.409147085330915e-06,0.00010536272748140618,-2.613839205878321e-05,9.783433051779866e-05
4.71778548671864e-05,-9.020797733683139e-05,-2.2992344383965246e-05,7.622335397172719e-05,2.8277115688979393e-06,0.00010848131205420941
4.400615580379963e-05,-0.00010325751645723358,-6.183220830280334e-05,1.6751379007473588e-05,3.5381450288696215e-05,0.00011168140918016434
4.1250652429880574e-05,-0.0001267947518499568,-9.35308780753985e-05,-5.9609399613691494e-05,6.203837256180122e-05,0.00010481254139449447
4.10087923228275e-05,-0.00013563486572820693,-9.627210965845734e-05,-0.00013496854808181524,7.734202517895028e-05,9.250149014405906e-05
3.9777441998012364e-05,-0.00011935896327486262,-7.786408968968317e-05,-0.00018720771186053753,8.071691991062835e-05,7.655529043404385e-05
3.235299664083868e-05,-9.215484169544652e-05,-5.6085449614329264e-05,-0.00019344809697940946,7.031550194369629e-05,5.4935520893195644e-05
1.8970977180288173e-05,-5.984868039377034e-05,-3.474556433502585e-05,-0.0001505875843577087,4.969463043380529e-05,3.183424996677786e-05
8.322272151417565e-06,-2.150705586245749e-05,3.258354809076991e-06,-9.014818351715803e-05,3.662161543616094e-05,1.8935479602077976e-05
5.998429969622521e-06,8.285737749247346e-06,6.208982085809112e-05,-6.14856107858941e-05,3.753121927729808e-05,2.0088849851163104e-05
8.59798183228122e-06,2.0577166651492007e-05,0.00011094508954556659,-6.149701948743314e-05,4.383359555504285e-05,2.744756238826085e-05
1.279967364098411e-05,2.953091825474985e-05,0.00012467359192669392,-1.9725664969882928e-05,4.698376505984925e-05,3.454843317740597e-05
1.3964939171273727e-05,4.38948227383662e-05,0.0001138301522587426,0.00011206747876713052,3.827508044196293e-05,3.2720785384299234e-05
1.1584975254663732e-05,4.7922956582624465e-05,0.0001006678503472358,0.00028727538301609457,1.2524245903478004e-05,2.0858673451584764e-05
1.4859924704069272e-05,2.748102997429669e-05,9.424548625247553e-05,0.00035481175291351974,-1.3095082977088168e-05,1.0606870091578458e-05
2.1979531084070913e-05,-3.918739366781665e-06,8.382787927985191e-05,0.0002758741320576519,-2.1230407583061606e-05,6.712449703627499e-06
2.4819284590194002e-05,-2.514574589440599e-05,6.370540359057486e-05,0.00012853083899244666,-1.569529740663711e-05,9.141220289166085e-06
2.5219700546585955e-05,-3.847917105304077e-05,5.064009383204393e-05,-1.9198772861273028e-05,-4.706236268248176e-06,1.0458326869411394e-05
2.584633148217108e-05,-5.069886174169369e-05,4.751483356812969e-05,-9.280408266931772e-05,1.9616770714492304e-06,-3.195440285708173e-07
2.6059284209623e-05,-5.81113672524225e-05,5.3527055570157245e-05,-8.740713383303955e-05,1.694646812211431e-06,-2.121916077157948e-05
2.6174535378231667e-05,-6.105504871811718e-05,6.766584556316957e-05,-3.656986154965125e-05,-6.397433025995269e-06,-3.89844281016849e-05
2.7846808734466322e-05,-7.25970312487334e-05,7.222304702736437e-05,-2.398256128799403e-06,-1.3870308066543657e-05,-3.966646545450203e-05
2.8723479772452265e-05,-9.647426486480981e-05,6.369173206621781e-05,-1.974958649952896e-06,-1.724116191326175e-05,-2.3753420464345254e-05
2.9780958357150666e-05,-0.0001137841391027905,5.445126225822605e-05,-7.513813216064591e-06,-1.7895770724862814e-05,4.906407298221893e-07
3.2970725442282856e-05,-0.00011018054647138342,6.517092697322369e-05,1.5782728951307945e-05,-1.35495574795641e-05,2.4242131985374726e-05
3.7825884646736085e-05,-9.950077219400555e-05,9.332416084362194e-05,5.948287434875965e-05,-6.949767339392565e-06,4.2372696043457836e-05
3.9137266867328435e-05,-0.00010087888222187757,0.00011599223944358528,8.22787478682585e-05,-2.199856680817902e-06,5.326901737134904e-05
3.3402549888705835e-05,-0.0001097184358513914,0.00011237792205065489,7.599388482049108e-05,-4.873386387771461e-06,5.655187487718649e-05
2.4432874852209352e-05,-0.00010606575233396143,8.059366518864408e-05,7.223551074275747e-05,-1.2473857168515678e-05,5.49361648154445e-05
1.6239260730799288e-05,-8.816822082735598e-05,3.0932831577956676e-05,9.13562616915442e-05,-1.9063147192355245e-05,5.48478274140507e-05
1.0616548024700023e-05,-7.00113014318049e-05,-2.5946781534003094e-05,0.00010318301065126434,-2.4463306544930674e-05,5.71839336771518e-05
7.683642252231948e-06,-5.3937463235342875e-05,-7.225550507428125e-05,8.383214299101382e-05,-3.1937532185111195e-05,6.140424375189468e-05
7.44101953387144e-06,-3.333936911076307e-05,-8.926492591854185e-05,4.623105996870436e-05,-3.905357516487129e-05,7.056213507894427e-05
8.541159331798553e-06,-1.6108646377688274e-05,-8.500745752826333e-05,2.343287087569479e-05,-4.345459092292003e-05,8.268628153018653e-05
1.22208612083341e-05,-1.9579942090786062e-05,-8.343780791619793e-05,2.1373582058004104e-05,-4.4613574573304504e-05,9.048796346178278e-05
1.740001971484162e-05,-3.540510078892112e-05,-7.470333366654813e-05,2.746967766142916e-05,-4.330199953983538e-05,9.273675095755607e-05
2.063123793050181e-05,-3.441258013481274e-05,-2.720886914175935e-05,2.4575498173362575e-05,-3.7438319850480184e-05,9.509578376309946e-05
2.2173584511619993e-05,-1.4599255337088834e-05,4.6288230805657804e-05,2.1087715140311047e-05,-2.9633503800141625e-05,9.777189552551135e-05
2.0478368242038414e-05,-6.518618192785652e-06,8.308252290589735e-05,1.77021611307282e-05,-2.9484619517461397e-05,9.894572576740757e-05
1.5487406926695257e-05,-1.0926371032837778e-05,6.499746086774394e-05,1.0071505130326841e-05,-3.42649182130117e-05,9.535363642498851e-05
5.59285444978741e-06,-3.176659220116562e-06,2.1984029444865882e-05,-3.5623031635623192e-06,-3.36976554535795e-05,8.547680045012385e-05
1.3883344536225195e-06,1.839966898842249e-05,-2.953907767277997e-07,-1.3692147149413358e-05,-2.6756510123959742e-05,8.052158955251798e-05
8.733992217457853e-06,1.7857952116173692e-05,2.0928446247125976e-06,-1.948865428857971e-05,-1.6841951946844347e-05,7.730085053481162e-05
1.6669529941282235e-05,-3.015715628862381e-05,-1.212851543641591e-06,-2.5984911189880222e-05,-1.0338753781979904e-05,7.227664900710806e-05
2.4877201212802902e-05,-9.364176366943866e-05,-2.017488623096142e-05,-2.722237513808068e-05,-7.854210707591847e-06,6.827431207057089e-05
3.0492316000163555e-05,-0.00013252656208351254,-4.109965811949223e-05,-2.8947413738933392e-05,-3.0245230391301448e-06,6.139304605312645e-05
3.6986180930398405e-05,-0.0001350457314401865,-5.657469591824338e-05,-4.025357338832691e-05,2.5034767077158904e-06,5.451055403682403e-05
4.3224721594015136e-05,-0.00011574645031942055,-7.284914318006486e-05,-4.9466394557384774e-05,2.9010686830588384e-06,4.8883110139286146e-05
4.8427194997202605e-05,-0.00010295969696016982,-8.082495332928374e-05,-1.9704517399077304e-05,-2.29315060096269e-06,5.2998660976300016e-05
5.4391726735047996e-05,-0.0001060348586179316,-9.112100815400481e-05,6.363142892951146e-05,-7.228668891912093e-06,6.400204438250512e-05
5.779308776254766e-05,-0.00010524942626943812,-0.00010515673784539104,0.00015083276957739145,-1.2454023817554116e-05,7.435283623635769e-05
5.8147456002188846e-05,-7.618851668667048e-05,-9.529503586236387e-05,0.0001818801974877715,-1.9370570953469723e-05,8.207903010770679e-05
5.475524812936783e-05,-2.6813899239641614e-05,-3.655661566881463e-05,0.00014858807844575495,-2.553525882831309e-05,8.715889998711646e-05
4.838090535486117e-05,5.089120804768754e-06,4.866941162617877e-05,9.325044084107503e-05,-2.3412416339851916e-05,9.291758760809898e-05
3.7125457311049104e-05,-8.644872650620528e-06,0.00010447808017488569,5.547042383113876e-05,-1.7360634956276044e-05,9.573020361131057e-05
2.034996396105271e-05,-5.52390847587958e-05,9.93371577351354e-05,3.7599133065668866e-05,-1.8426286260364577e-05,8.69292052811943e-05
1.2405309917085106e-06,-8.800384239293635e-05,4.643053762265481e-05,2.716231028898619e-05,-2.464458520989865e-05,7.093734166119248e-05
-1.3641119949170388e-05,-7.448431279044598e-05,-1.5231916222546715e-05,1.82836865860736e-05,-2.4207236492657103e-05,6.199147901497781e-05
-1.954655635927338e-05,-2.7429827241576277e-05,-4.5189437514636666e-05,1.041070936480537e-05,-1.5063816135807429e-05,6.418749399017543e-05
-1.4194670256983954e-05,1.5223529771901667e-05,-2.4098566427710466e-05,6.677332748949993e-06,-4.926885139866499e-06,7.026652747299522e-05
-1.8709998812482809e-06,1.882231117633637e-05,2.8957376343896613e-05,1.5413083019666374e-05,6.713397056046233e-07,7.232520874822512e-05
8.168606655090116e-06,-2.2303232981357723e-05,9.192129800794646e-05,2.946640415757429e-05,-9.858304110821337e-07,6.922406464582309e-05
1.232906106451992e-05,-7.20555181032978e-05,0.0001716584083624184,3.880777512677014e-05,-7.783412911521737e-06,6.544301140820608e-05
1.8454511518939398e-05,-9.523783955955878e-05,0.00023850654542911798,3.65931264241226e-05,-1.950821933860425e-05,6.832158396719024e-05
2.6942818294628523e-05,-7.06678256392479e-05,0.00022601507953368127,1.3965686775918584e-05,-2.7204665457247756e-05,7.296257535926998e-05
3.000160177180078e-05,-1.8978087609866634e-05,0.00016459859034512192,-1.8503955288906582e-05,-2.7772723115049303e-05,7.541061495430768e-05
2.57189658441348e-05,3.821538939519087e-06,0.00014695816207677126,-2.4970910089905374e-05,-3.1049003155203536e-05,7.65669101383537e-05
1.897058609756641e-05,-4.465113761398243e-06,0.00021114780975040048,1.5600713595631532e-05,-2.9124552384018898e-05,7.422343333018944e-05
1.609978062333539e-05,-1.2280017472221516e-05,0.00028413961990736425,6.041860979166813e-05,-1.9113973394269124e-05,7.021831697784364e-05
1.3546742593462113e-05,-9.65386425377801e-06,0.000296119978884235,5.883856283617206e-05,-1.0747056876425631e-05,6.724824925186113e-05
7.747114977973979e-06,6.523689535242738e-07,0.0002570441865827888,2.195329034293536e-05,-3.7933693874947494e-06,6.511611718451604e-05
5.025288828619523e-06,1.1844454093079548e-05,0.00020223925821483135,-1.2426246030372567e-05,5.589635293290485e-06,6.22892621322535e-05
8.472256013192236e-06,7.80485243012663e-06,0.00015739724040031433,-1.1119582268293016e-05,1.709034404484555e-05,5.745709495386109e-05
1.2439090824045707e-05,-1.605336547072511e-05,0.00011517593520693481,1.2673762284975965e-05,2.5830246158875525e-05,5.452311961562373e-05
8.527583304385189e-06,-4.1454535676166415e-05,7.979811925906688e-05,3.50680566043593e-05,2.99556995742023e-05,5.664074342348613e-05
1.4930099041521316e-06,-4.644878572435118e-05,5.6840217439457774e-05,4.027298928122036e-05,2.9206899853306822e-05,6.249811849556863e-05
-2.9590560188808013e-06,-3.471086893114261e-05,3.7681216781493276e-05,3.748278322746046e-05,2.8004466003039852e-05,6.719770317431539e-05
-6.6254392550035845e-06,-2.23872484639287e-05,1.593764500285033e-05,3.3299511414952576e-05,2.5087696485570632e-05,6.846128235338256e-05
-8.911072654882446e-06,-2.0109293473069556e-05,-1.3025302905589342e-05,2.7204983780393377e-05,1.8214144802186638e-05,6.49284920655191e-05
-7.024450951576e-06,-3.04190325550735e-05,-6.0883990954607725e-05,2.5339622879982926e-05,7.234737495309673e-06,5.924555443925783e-05
1.4599095266021322e-07,-5.827340282849036e-05,-0.00011758473556255922,3.085843854933046e-05,-1.646887426431931e-06,5.5953201808733866e-05
1.1685467143252026e-05,-0.00010099945939145982,-0.00015144979988690466,4.340287341619842e-05,-4.310832082410343e-06,5.447602234198712e-05
2.672107075341046e-05,-0.00014488885062746704,-0.00015280199295375496,5.201931708143093e-05,-3.0513281217281474e-06,5.5257991334656253e-05
4.162162804277614e-05,-0.0001856438466347754,-0.0001445681555196643,5.39671273145359e-05,-3.458392257016385e-06,5.436955689219758e-05
5.283101927489042e-05,-0.00020919149392284453,-0.00014382615336216986,5.282146230456419e-05,-7.466500846931012e-06,4.731832450488582e-05
6.029862561263144e-05,-0.00019971981237176806,-0.00014112186909187585,5.382100061979145e-05,-1.1846456800412852e-05,3.483070031506941e-05
6.785251025576144e-05,-0.00016098098421934992,-0.00012036250700475648,5.585661710938439e-05,-1.3853215932613239e-05,2.5738056137925014e-05
7.278758130269125e-05,-0.00011114883091067895,-8.652218093629926e-05,5.6128752476070076e-05,-1.3970165127830114e-05,2.657531513250433e-05
7.048690895317122e-05,-6.312824552878737e-05,-6.260796362766996e-05,3.555642979335971e-05,-1.618086753296666e-05,3.4757711546262726e-05
6.016321640345268e-05,-2.079065416182857e-05,-5.946426244918257e-05,-1.8453936718287878e-05,-2.096174648613669e-05,4.7707853809697554e-05
4.486990292207338e-05,2.1078700228827074e-05,-6.374880467774346e-05,-9.347544983029366e-05,-2.4587096049799584e-05,6.144661892903969e-05
3.163986548315734e-05,5.513098949450068e-05,-6.230873259482905e-05,-0.00014056045620236546,-2.205818054790143e-05,6.280580419115722e-05
2.5502087737550028e-05,7.903004006948322e-05,-5.9734513342846185e-05,-0.00010825085337273777,-1.5870491552050225e-05,5.16702129971236e-05
1.928150959429331e-05,0.00010653114441083744,-4.41757874796167e-05,-1.0661742635420524e-05,-8.210613486880902e-06,4.9857888370752335e-05
7.433530299749691e-06,0.0001265022438019514,5.123026858200319e-05,9.465515904594213e-05,-7.30584133634693e-06,6.115240830695257e-05
-5.304849310050486e-06,0.0001020810886984691,0.0001951700687641278,0.0001523687387816608,-1.7470851162215695e-05,7.28764571249485e-05
-1.115148734243121e-05,5.4314059525495395e-05,0.0002572543453425169,0.00014912858023308218,-2.9700946470256895e-05,7.963875395944342e-05
-9.508868060947862e-06,2.3725524442852475e-05,0.00023774891451466829,0.0001126364732044749,-3.2645668397890404e-05,7.3920855356846e-05
-1.1386774531274568e-05,6.327650794446527e-07,0.00018694248865358531,5.711205449188128e-05,-2.916364792326931e-05,6.096398283261806e-05
-2.029319693974685e-05,-3.263575490564108e-05,0.00014500324323307723,8.067450494309014e-07,-2.778858834062703e-05,5.3205774747766554e-05
-2.6749175958684646e-05,-7.946391269797459e-05,0.0001429500407539308,-3.7133737350814044e-05,-2.619752376631368e-05,4.9128750106319785e-05
-1.9055974917137064e-05,-0.00012046202755300328,0.00017067229782696813,-4.104632535018027e-05,-2.1720183212892152e-05,4.446682214620523e-05
-3.0190801680873847e-07,-0.00014157971600070596,0.00018239724158775061,-1.9490888007567264e-05,-1.9080203855992295e-05,4.0840393921826035e-05
1.3854692042514216e-05,-0.0001380913599859923,0.0001570938911754638,1.318617069046013e-05,-2.112152833433356e-05,4.036546670249663e-05
1.6357233107555658e-05,-0.00012050267105223611,0.00010265826131217182,4.041754436912015e-05,-2.8211268727318384e-05,4.404610808705911e-05
1.2310564670769963e-05,-9.934491390595213e-05,2.964224768220447e-05,4.452745270100422e-05,-3.299273157608695e-05,5.362237061490305e-05
8.605606126366183e-06,-7.841871411073953e-05,-3.047533391509205e-05,1.2741116734105162e-05,-3.0158929803292267e-05,6.474275141954422e-05
9.61960631684633e-06,-6.158509495435283e-05,-5.517883982975036e-05,-4.168020313954912e-05,-2.327771289856173e-05,7.344286132138222e-05
1.5844796507735737e-05,-5.349721323000267e-05,-4.680234269471839e-05,-7.06391001585871e-05,-1.8172504496760666e-05,7.749845826765522e-05
