-6.4389478211523965e-06,-8.585486284573562e-06,8.615277693024836e-06,2.9530921892728657e-05,-5.69304665987147e-06,6.305471470113844e-05
2.351605326111894e-05,2.1057556296000257e-05,1.179802438855404e-05,2.780456270556897e-05,-2.95047311738017e-06,6.407004548236728e-05
3.967678640037775e-05,3.0448018151219003e-05,1.8988754163729027e-05,3.063772965106182e-05,3.348920699863811e-06,7.926317630335689e-05
3.9523609302705154e-05,1.3790973753202707e-05,2.4073844542726874e-05,3.1704890716355294e-05,8.822336894809268e-06,8.645688649266958e-05
3.0797324143350124e-05,-7.969262696860824e-06,3.0404762583202682e-05,3.31243900291156e-05,1.3337044038053136e-05,8.675393473822623e-05
2.3870074073784053e-05,-1.249610158993164e-05,4.013046054751612e-05,3.724168345797807e-05,1.5616986274835654e-05,8.852521568769589e-05
2.1549572920775972e-05,-8.810839972284157e-06,4.9249512812821195e-05,4.082061059307307e-05,1.253755635843845e-05,8.470428292639554e-05
2.109537490468938e-05,-9.905907973006833e-06,4.7989480663090944e-05,4.060345236212015e-05,6.413969913410256e-06,7.348084182012826e-05
2.322372529306449e-05,-2.2907361199031584e-05,4.0209237340604886e-05,3.435149847064167e-05,-2.5079682330897413e-08,6.273363396758214e-05
2.3449309082934633e-05,-5.5056982091628015e-05,3.394748637219891e-05,2.430556014587637e-05,-2.442986215100973e-06,5.689101817552e-05
2.0006120394100435e-05,-8.70093354023993e-05,3.2162319257622585e-05,1.3496402971213683e-05,-2.8802310225728434e-07,5.728142423322424e-05
1.7617767298361287e-05,-8.749825065024197e-05,3.4026612411253154e-05,5.883440735487966e-06,1.7143886452686274e-06,6.201447831699625e-05
1.871014137577731e-05,-6.170580309117213e-05,3.710381133714691e-05,5.163593868928729e-06,1.1952635077250306e-06,6.479776493506506e-05
1.8997428924194537e-05,-4.864971197093837e-05,4.143518162891269e-05,9.675753972260281e-06,5.005608727515209e-07,6.888353527756408e-05
1.6038447938626632e-05,-6.068302900530398e-05,4.304976755520329e-05,1.3125369150657207e-05,1.065451556314656e-06,7.445120718330145e-05
1.6743020751164295e-05,-7.182961417129263e-05,4.0170412830775604e-05,1.444888494006591e-05,2.5845508844213327e-08,7.566699059680104e-05
2.184175536967814e-05,-6.293792830547318e-05,3.565949737094343e-05,1.803343548090197e-05,-5.97424741499708e-06,6.805172597523779e-05
2.4174349164240994e-05,-4.626813461072743e-05,3.4097749448847026e-05,2.025734465860296e-05,-1.598691233084537e-05,5.788082125945948e-05
2.1229991034488194e-05,-3.896706402883865e-05,3.5466397093841806e-05,2.141733239113819e-05,-2.7053942176280543e-05,5.591620356426574e-05
1.7176744222524576e-05,-4.8246165533782914e-05,3.4554843296064064e-05,2.5101959181483835e-05,-3.454679244896397e-05,6.681764352833852e-05
1.8866523532778956e-05,-6.306333671091124e-05,2.968341505038552e-05,2.94775418296922e-05,-3.621219366323203e-05,8.519615221302956e-05
2.5301609639427625e-05,-6.926260539330542e-05,2.7671118004946038e-05,3.0016508389962837e-05,-3.843858212349005e-05,0.00010346726776333526
2.8623620892176405e-05,-6.754475907655433e-05,2.6345524020143785e-05,2.7785821657744236e-05,-4.588681986206211e-05,0.00011554099182831123
2.5143686798401177e-05,-6.254875188460574e-05,2.1120391465956345e-05,2.281886372657027e-05,-6.0303649661364034e-05,0.00012017465633107349
1.7463658878114074e-05,-5.0687271141214296e-05,1.7133479559561238e-05,1.5369967513834126e-05,-7.618051313329488e-05,0.0001186508743558079
1.1545304005267099e-05,-3.443165041971952e-05,1.7617423509364016e-05,1.5315892596845515e-05,-7.9654848377686e-05,0.00011321260535623878
1.0367579307057895e-05,-2.815754123730585e-05,2.418587973807007e-05,2.5831292077782564e-05,-6.949053204152733e-05,0.00010089678835356608
1.3596390090242494e-05,-3.889762592734769e-05,3.376676613697782e-05,3.630734499893151e-05,-4.892290962743573e-05,5.6142340326914564e-05
2.0333227439550683e-05,-4.948469722876325e-05,4.129051376366988e-05,4.386719592730515e-05,-2.1297659259289503e-05,5.911085281695705e-06
2.8496528102550656e-05,-5.224399865255691e-05,4.577193976729177e-05,4.2588439100654796e-05,1.1489534699649084e-05,-6.127043889136985e-06
3.2958490919554606e-05,-5.6980054068844765e-05,4.0814124076860026e-05,3.1377367122331634e-05,4.044267916469835e-05,-6.450137561841984e-07
3.0413017157115974e-05,-6.183920049807057e-05,3.331928382976912e-05,2.028343988058623e-05,5.878438241779804e-05,-3.1211984605761245e-06
2.348992529732641e-05,-6.194408342707902e-05,3.3178126614075154e-05,2.071434755634982e-05,6.607167597394437e-05,-1.5661766155972145e-05
1.3565753761213273e-05,-5.7896715588867664e-05,3.9724629459669814e-05,2.7970872906735167e-05,6.438992568291724e-05,-1.5686826372984797e-05
8.811030966171529e-06,-5.304470323608257e-05,4.4980461098020896e-05,3.376629683771171e-05,5.764438901678659e-05,-2.3077072341948224e-07
1.118706859415397e-05,-5.08257799083367e-05,4.346578134573065e-05,3.8148980820551515e-05,4.566686402540654e-05,1.396669540554285e-05
1.2991086805413943e-05,-5.0962757086381316e-05,3.805091182584874e-05,4.121707388549112e-05,3.291579196229577e-05,1.9353285097167827e-05
1.1446139069448691e-05,-4.9886333727044985e-05,2.8215015845489688e-05,3.797571116592735e-05,1.915513348649256e-05,2.5926894522854127e-05
7.797631042194553e-06,-4.8158126446651295e-05,1.6548736311960965e-05,3.115412619081326e-05,6.1320120039454196e-06,3.420605571591295e-05
4.10813800044707e-06,-4.811188773601316e-05,9.44846760830842e-06,3.100179310422391e-05,-5.594858521362767e-06,3.96613722841721e-05
2.7803266675618943e-06,-4.858562897425145e-05,9.826815585256554e-06,3.8742895412724465e-05,-1.7324411601293832e-05,4.579213054967113e-05
6.271970505622448e-06,-4.537054701359011e-05,1.4302761883300263e-05,4.679900303017348e-05,-2.6505973437451757e-05,4.912950680591166e-05
1.538496326247696e-05,-4.1348546801600605e-05,1.9013865312444977e-05,4.95043168484699e-05,-3.0269662602222525e-05,4.802586045116186e-05
2.7226778911426663e-05,-4.2545660107862204e-05,2.332472831767518e-05,5.056780355516821e-05,-2.8511014534160495e-05,4.709709537564777e-05
3.470630326773971e-05,-4.787488796864636e-05,2.5398949219379574e-05,4.9743943236535415e-05,-2.4791175746941008e-05,5.484637586050667e-05
3.6794030165765435e-05,-5.3596279030898586e-05,2.4009394110180438e-05,4.431782872416079e-05,-2.2132204321678728e-05,6.47260167170316e-05
3.880774602293968e-05,-5.980969945085235e-05,2.3222317395266145e-05,3.5788230889011174e-05,-2.3138853066484444e-05,6.686440610792488e-05
4.346350397099741e-05,-6.31306684226729e-05,2.607111309771426e-05,3.057625872315839e-05,-2.695018883969169e-05,6.15380413364619e-05
4.9416968977311626e-05,-5.849593799212016e-05,3.136660598102026e-05,2.9334047212614678e-05,-2.5729870685609058e-05,5.987127224216238e-05
5.05855459778104e-05,-4.902233195025474e-05,3.745614594663493e-05,3.0157076253090054e-05,-1.5952924513840117e-05,6.516611756524071e-05
4.126659769099206e-05,-4.281181827536784e-05,4.1117393266176805e-05,3.3928205084521323e-05,-7.369742888840847e-06,7.420568726956844e-05
2.9604780138470232e-05,-4.741931115859188e-05,3.9646860386710614e-05,3.670182195492089e-05,-7.350089163082885e-06,7.892189751146361e-05
2.0783674699487165e-05,-6.237637717276812e-05,3.54509538738057e-05,3.456453850958496e-05,-1.2884484931419138e-05,8.5323081293609e-05
8.3610211731866e-06,-8.30832141218707e-05,3.195948011125438e-05,3.052049214602448e-05,-1.701269684417639e-05,9.426335600437596e-05
-1.5886163964751177e-05,-0.00010430315160192549,3.068034493480809e-05,3.02047046716325e-05,-1.4341861060529482e-05,9.44366620387882e-05
-3.7519388570217416e-05,-0.00010697716061258689,3.2100535463541746e-05,3.614290835685097e-05,-8.297009117086418e-06,8.781791984802112e-05
-3.435603866819292e-05,-9.087859507417306e-05,3.446925984462723e-05,3.8113856135169044e-05,-5.323496225173585e-06,8.486455044476315e-05
-2.308206785528455e-05,-7.000964251346886e-05,3.3253680157940835e-05,3.417291009100154e-05,-4.990617981093237e-06,8.820122457109392e-05
-2.3550383048132062e-05,-4.406932202982716e-05,2.7880549168912694e-05,2.949815825559199e-05,-4.8262986638292205e-06,9.013644739752635e-05
-1.3407138794718776e-05,-1.851434717536904e-05,2.5977473342209123e-05,3.428299169172533e-05,-5.346810212358832e-06,8.252983388956636e-05
2.5607763745938428e-05,-3.013610921698273e-06,3.20393119181972e-05,4.765163976117037e-05,-4.036525297124172e-06,6.527962977997959e-05
6.54799587209709e-05,1.0828583981492557e-05,3.33602620230522e-05,5.605777550954372e-05,6.444575433306454e-07,5.4985481256153435e-05
7.503561209887266e-05,4.692734364653006e-05,2.8667378501268104e-05,4.697523036156781e-05,3.230320999136893e-06,6.164131627883762e-05
6.558390305144712e-05,0.0001060871800291352,2.725399644987192e-05,2.27735818043584e-05,1.386749772791518e-06,7.680906855966896e-05
6.441907316911966e-05,0.00015479278226848692,2.9547889425884932e-05,1.4733177522430196e-06,-2.264327804368804e-06,9.57177035161294e-05
6.774545181542635e-05,0.0001322890311712399,2.768842750811018e-05,-4.587729108607164e-06,-5.380561560741626e-06,0.00011427442950662225
5.531220813281834e-05,2.235812644357793e-05,1.560148120915983e-05,-2.1146752260392532e-07,-1.0289675628882833e-05,0.00011858983634738252
3.2027510314946994e-05,-0.00010886176460189745,-3.2882962841540575e-06,2.03632203010784e-06,-1.7925611246027984e-05,0.00010402008047094569
2.5310013370472006e-05,-0.0001829793181968853,-1.9183422409696504e-05,-3.3060184705391293e-06,-2.780608156172093e-05,8.164890459738672e-05
3.900786396116018e-05,-0.00016119741485454142,-1.971216988749802e-05,-8.273071216535755e-06,-3.662341623567045e-05,7.136772910598665e-05
4.9924721679417416e-05,-7.384153286693618e-05,8.573039735892962e-07,7.255166565300897e-07,-3.731171818799339e-05,7.589293090859428e-05
4.3901683966396376e-05,-2.211398896179162e-05,3.6614299460779876e-05,1.8900902432505973e-05,-2.894333374570124e-05,7.983890827745199e-05
3.260028097429313e-05,-5.751729622716084e-05,7.188964809756726e-05,3.4656790376175195e-05,-1.9740033167181537e-05,7.621037366334349e-05
2.93546290777158e-05,-0.00010928503616014495,9.114399290410802e-05,4.6112363634165376e-05,-1.3727208170166705e-05,6.79217409924604e-05
3.34159194608219e-05,-0.00010351332457503304,8.727910608286038e-05,6.010876677464694e-05,-8.819375580060296e-06,5.3950148867443204e-05
3.8208010664675385e-05,-6.24514723313041e-05,6.915313861100003e-05,7.066123362164944e-05,-4.902425189357018e-06,2.929350739577785e-05
3.9438120438717306e-05,-4.223454379825853e-05,4.4632201024796814e-05,6.782712443964556e-05,-3.349321332279942e-06,-1.4589802958653308e-05
3.70426059816964e-05,-5.670257451129146e-05,2.1519026631722227e-05,5.428726944955997e-05,-5.611613687506178e-06,-6.284299161052331e-05
3.303819539723918e-05,-7.340946467593312e-05,1.4938074855308514e-05,3.991895209765062e-05,-8.755176168051548e-06,-8.238455484388396e-05
3.164852023473941e-05,-5.732319186790846e-05,2.652975672390312e-05,2.9951470423839055e-05,-1.131634144257987e-05,-7.049160194583237e-05
2.1486954210558906e-05,-4.5320331992115825e-05,4.33534623880405e-05,2.1387675587902777e-05,-1.586529288033489e-05,-4.4610646000364795e-05
-5.660327246914676e-07,-8.363738015759736e-05,6.010654760757461e-05,1.4253306289901957e-05,-2.0389687051647343e-05,-1.305558907915838e-05
-1.217042427015258e-05,-0.00012887187767773867,7.638621173100546e-05,1.7829686839831993e-05,-1.6409358067903668e-05,1.839300966821611e-05
-8.01022270024987e-06,-0.00013749375648330897,8.50065189297311e-05,2.9825423553120345e-05,-9.220932042808272e-06,5.066722951596603e-05
2.0494426280492917e-06,-0.00012481083103921264,8.27639814815484e-05,4.0077593439491466e-05,-2.84620773527422e-06,7.11397806298919e-05
1.583067569299601e-05,-0.0001060081776813604,7.131596794351935e-05,4.3101859773742035e-05,4.534722847893136e-06,6.448134809033945e-05
2.8193036996526644e-05,-9.048236097441986e-05,5.4984568123472854e-05,4.2753472371259704e-05,7.410328635160113e-06,6.009488788549788e-05
3.022588680323679e-05,-7.692373037571087e-05,4.169677777099423e-05,3.7751367926830426e-05,1.8672866417546174e-06,7.507475675083697e-05
2.028374365181662e-05,-5.159319698577747e-05,3.0331835660035722e-05,2.8791844670195132e-05,-9.172573300020304e-06,9.109644452109933e-05
9.543705346004572e-06,-1.1858436664624605e-05,1.813100061553996e-05,2.6178518965025432e-05,-1.7356083844788373e-05,9.443542512599379e-05
5.174103989702417e-06,1.2948325093020685e-05,3.5878579183190595e-06,2.5074616132769734e-05,-2.143686833733227e-05,8.943409193307161e-05
6.723062142555136e-06,-2.638893647599616e-06,-7.646076483069919e-06,1.9160004740115255e-05,-2.3408343622577377e-05,8.260666800197214e-05
1.2881415386800654e-05,-6.412619404727593e-05,-1.2042688467772678e-05,1.3153357940609567e-05,-2.4874483642634004e-05,7.257264951476827e-05
2.0848743588430807e-05,-0.00010946686961688101,-1.2217846233397722e-05,1.427896768291248e-05,-2.5677180019556545e-05,6.328662857413292e-05
2.4980123271234334e-05,-7.664760778425261e-05,-2.806328438964556e-06,2.5542689400026575e-05,-2.4352131731575355e-05,6.088417649152689e-05
2.1030858988524415e-05,-1.1765689123421907e-05,1.9778999558184296e-05,3.915462366421707e-05,-2.1279971406329423e-05,6.470723747042939e-05
1.361438353342237e-05,7.252429440995911e-06,4.8591249651508406e-05,4.389342575450428e-05,-1.85912249435205e-05,6.89400767441839e-05
1.2573806088767014e-05,-2.964079612866044e-05,7.054150046315044e-05,3.985958392149769e-05,-1.7876211131806485e-05,7.273996016010642e-05
1.787723522284068e-05,-7.146364077925682e-05,7.653006468899548e-05,3.218410347471945e-05,-1.954311846930068e-05,7.500607171095908e-05
2.1715473849326372e-05,-8.84809487615712e-05,6.774070061510429e-05,2.2603131583309732e-05,-2.017704173340462e-05,7.283847662620246e-05
1.9471748601063155e-05,-8.171569788828492e-05,5.62102286494337e-05,1.3776234482065775e-05,-1.7370726709486917e-05,6.662830128334463e-05
1.2661301298066974e-05,-6.653957098023966e-05,5.25845680385828e-05,1.5054196410346776e-05,-1.346937187918229e-05,6.0849291912745684e-05
7.157964773796266e-06,-5.654849883285351e-05,5.478017556015402e-05,2.459912320773583e-05,-1.1713477761077229e-05,5.087193494546227e-05
5.6814428717189e-06,-5.634365152218379e-05,4.871264172834344e-05,3.1497063901042566e-05,-1.296679511142429e-05,3.458715946180746e-05
9.783740097191185e-06,-6.0474820202216506e-05,3.296888098702766e-05,3.076003122259863e-05,-1.2942687135364395e-05,3.248090433771722e-05
1.7964446669793688e-05,-6.064371336833574e-05,1.889550003397744e-05,2.6004263418144546e-05,-1.0946428119495977e-05,4.970464942744002e-05
2.5538462068652734e-05,-5.409300865721889e-05,1.5171713130257558e-05,2.94967285299208e-05,-8.615439583081752e-06,6.932671385584399e-05
2.766954457911197e-05,-4.962581078871153e-05,1.9724831872736104e-05,3.737424049177207e-05,-8.516291927662678e-06,7.772647950332612e-05
2.7698419216903858e-05,-5.113755469210446e-05,2.2223232008400373e-05,4.008970790891908e-05,-9.192231118504424e-06,7.510891009587795e-05
3.131492849206552e-05,-5.187655187910423e-05,2.0991801648051478e-05,3.7403406167868525e-05,-7.576780717499787e-06,7.131921302061528e-05
3.330120671307668e-05,-4.591104880091734e-05,2.097805372613948e-05,3.09930182993412e-05,-9.938710718415678e-06,6.738880620105192e-05
3.0013894502189942e-05,-4.1575473005650565e-05,2.33092978305649e-05,2.567020601418335e-05,-1.3476597814587876e-05,5.7147335610352457e-05
2.578592648205813e-05,-4.407816959428601e-05,2.6676734705688432e-05,2.269054857606534e-05,-1.1718932910298463e-05,4.094786709174514e-05
2.5381963496329263e-05,-4.9914277042262256e-05,3.0512097509927116e-05,2.400909761490766e-05,-5.31232080902555e-06,3.944178024539724e-05
3.0079107091296464e-05,-5.0615872169146314e-05,3.14791795972269e-05,2.546507676015608e-05,-7.748244001959392e-07,5.284819781081751e-05
3.252242458984256e-05,-4.722973972093314e-05,2.7671367206494324e-05,2.756570029305294e-05,-1.1855308912345208e-06,6.494225090136752e-05
2.8384545657900162e-05,-4.5597280404763296e-05,2.1643258151016198e-05,3.0699065973749384e-05,-2.0349521037132945e-06,7.28127415641211e-05
2.2226202418096364e-05,-4.8127141781151295e-05,1.8024265955318697e-05,3.1903095077723265e-05,-3.5970854241895722e-06,7.443613867508247e-05
1.8666476535145193e-05,-5.240841710474342e-05,1.915421489684377e-05,2.9905877454439178e-05,-3.0587084438593592e-06,7.384340278804302e-05
1.4047217518964317e-05,-5.237364530330524e-05,2.2703790818923153e-05,2.8436590582714416e-05,-1.4115920521362568e-07,7.620908581884578e-05
8.551834980607964e-06,-4.9876653065439314e-05,2.6961557523463853e-05,2.8975260647712275e-05,2.702501205931185e-06,8.21804060251452e-05
1.1097881724708714e-05,-4.8477857490070164e-05,2.9038741558906622e-05,2.5200202799169347e-05,1.994647163883201e-06,8.882192923920229e-05
2.1312886019586585e-05,-5.222066101850942e-05,2.5567504053469747e-05,1.8185994122177362e-05,-3.5121158816764364e-06,8.953436918091029e-05
2.614245022414252e-05,-5.5087242799345404e-05,2.003831286856439e-05,1.3442194358503912e-05,-1.3514565580408089e-05,8.065139991231263e-05
1.5949050066410564e-05,-5.077855894342065e-05,2.0288789528422058e-05,1.2250968211446889e-05,-2.5419951271032915e-05,7.552387978648767e-05
6.484582627308555e-06,-4.1997176595032215e-05,2.3898634026409127e-05,9.800265615922399e-06,-3.667081909952685e-05,8.027879084693268e-05
2.1911690055276267e-05,-3.639308124547824e-05,2.306830901943613e-05,4.484777491597924e-06,-4.290795186534524e-05,8.836887718643993e-05
5.1974951929878443e-05,-3.063749318243936e-05,1.850655098678544e-05,-3.133563666324335e-07,-3.973716957261786e-05,9.640411008149385e-05
6.300830864347517e-05,-1.905362842080649e-05,1.550558408780489e-05,-1.5307853118429193e-06,-3.202853258699179e-05,0.00010037701576948166
4.700934368884191e-05,-4.502667707129149e-06,1.5155466826399788e-05,8.908839390642243e-07,-2.6080806492245756e-05,0.00010160372039536014
2.6465762857696973e-05,6.332264092634432e-06,1.7911284885485657e-05,3.416108484088909e-06,-2.3942493498907425e-05,0.00010974887118209153
1.7552369172335602e-05,1.4977848877606448e-05,2.0790494090761058e-05,2.562010195106268e-06,-1.9657096345326863e-05,0.00012066622730344534
1.6719111954444088e-05,1.0606446267047431e-05,2.0433250028872862e-05,8.207568498619366e-06,-6.4540199673501775e-06,0.00012054161925334483
2.031321855611168e-05,-1.6923650036915205e-05,1.9950795831391588e-05,2.3384218366118148e-05,8.949901712185238e-06,0.00010271149221807718
2.7796926588052884e-05,-5.5960546887945384e-05,2.09320496651344e-05,3.606655081966892e-05,1.8514761904953048e-05,6.810281047364697e-05
3.4325628803344443e-05,-0.00010510202264413238,2.305381713085808e-05,4.364895721664652e-05,2.138841045962181e-05,1.776316094037611e-05
3.5350425605429336e-05,-0.00013585544365923852,2.602448148536496e-05,4.9568890972295776e-05,1.9287637769593857e-05,-3.0979368602856994e-05
3.1941595807438716e-05,-0.00011612683738349006,3.292868859716691e-05,5.418993896455504e-05,1.5885969332884997e-05,-6.615929305553436e-05
2.452802254993003e-05,-7.578717486467212e-05,4.04065394832287e-05,5.770450661657378e-05,1.066153072315501e-05,-8.66701957420446e-05
1.8146793081541546e-05,-5.3607411246048287e-05,4.527095006778836e-05,6.247395504033193e-05,4.887695013167104e-06,-8.312230056617409e-05
1.662228532950394e-05,-5.056696682004258e-05,4.817041553906165e-05,7.186250877566636e-05,-2.144164454875863e-06,-5.8435864048078656e-05
1.553100810269825e-05,-4.240611087880097e-05,4.6440065489150584e-05,7.287854532478377e-05,-6.288362783379853e-06,-1.6297257388941944e-05
1.632000748941209e-05,-2.9050986995571293e-05,4.404708306537941e-05,6.163420039229095e-05,-8.723958671907894e-06,2.917221536336001e-05
1.889518716780003e-05,-2.4469662093906663e-05,4.3926316720899194e-05,4.547500429907814e-05,-1.2131027688155882e-05,6.192337605170906e-05
1.8835842638509348e-05,-3.2908519642660394e-05,4.239317058818415e-05,3.1015919375931844e-05,-1.1713901585608255e-05,7.941204967210069e-05
1.7356700482196175e-05,-4.2861425754381344e-05,3.7624791730195284e-05,2.4392100385739468e-05,-9.220121683028992e-06,9.3650865892414e-05
1.6795314877526835e-05,-4.661186540033668e-05,3.2422543881693855e-05,2.3919166778796352e-05,-1.182510004582582e-05,0.00010584989649942145
1.836943738453556e-05,-4.676767275668681e-05,3.0421753763221204e-05,2.673321978363674e-05,-1.805268220778089e-05,0.00011310345871606842
2.2249447283684276e-05,-4.5026506995782256e-05,3.0784940463490784e-05,2.8405109333107248e-05,-2.0955725631210953e-05,0.00011757468018913642
2.5485476726316847e-05,-4.281000656192191e-05,3.2805619412101805e-05,2.8668324375757948e-05,-2.016884354816284e-05,0.00011478653323138133
2.551413308538031e-05,-4.156796421739273e-05,3.4147549740737304e-05,2.9550070394179784e-05,-1.8094397091772407e-05,0.0001025227174977772
2.1669024135917425e-05,-4.460742275114171e-05,3.140793342026882e-05,3.335903966217302e-05,-1.6306659745168872e-05,8.553131920052692e-05
1.6677722669555806e-05,-5.1225371862528846e-05,2.716059134399984e-05,3.71055502910167e-05,-1.5718153008492664e-05,6.889623182360083e-05
1.4611608094128314e-05,-5.8385190641274676e-05,2.763319935183972e-05,3.759996252483688e-05,-1.5641877325833775e-05,5.5420179705834016e-05
1.4569896848115604e-05,-5.8919838920701295e-05,3.0333063477883115e-05,3.0615992727689445e-05,-1.534789043944329e-05,4.664110383600928e-05
1.2205880921101198e-05,-5.3816176659893245e-05,2.8749667762895115e-05,2.2807034838479012e-05,-1.6211213733186014e-05,3.412375008338131e-05
8.995443749881815e-06,-4.8621259338688105e-05,2.661702092154883e-05,3.0975625122664496e-05,-1.658382279856596e-05,1.625922777748201e-05
1.089882971427869e-05,-4.832524064113386e-05,2.8883203412988223e-05,4.659132537199184e-05,-1.5449342754436657e-05,2.863282134057954e-06
1.599432471266482e-05,-4.97362416354008e-05,3.448921052040532e-05,4.748540959553793e-05,-1.3007922461838461e-05,1.2602055221577757e-07
1.9155886548105627e-05,-5.0068112614098936e-05,4.1193947254214436e-05,3.6507397453533486e-05,-1.0699375707190484e-05,6.414518338715425e-06
2.1398775061243214e-05,-5.4449355957331136e-05,4.4991720642428845e-05,3.185593959642574e-05,-6.730838777002646e-06,2.040939398284536e-05
2.5931065465556458e-05,-6.67964486638084e-05,4.154254565946758e-05,3.658490095403977e-05,-4.210406132187927e-06,3.987417585449293e-05
2.9886443371651694e-05,-7.700806600041687e-05,3.155752347083762e-05,3.637142071966082e-05,-9.370008228870574e-06,5.517604586202651e-05
3.153732541250065e-05,-7.27451333659701e-05,2.0287967345211655e-05,2.7782090910477564e-05,-1.6200723621295765e-05,5.979564230074175e-05
3.609609484556131e-05,-6.183477671584114e-05,1.485192660766188e-05,1.5437359252246097e-05,-1.7564754671184346e-05,6.150318222353235e-05
4.0589598938822746e-05,-5.906345177209005e-05,1.6466417946503498e-05,1.4968704817874823e-05,-1.4510389519273303e-05,6.544985808432102e-05
3.992934216512367e-05,-6.508094520540908e-05,2.1293921236065216e-05,2.6426514523336664e-05,-1.206685192300938e-05,7.292197551578283e-05
2.8500402549980208e-05,-7.170849858084694e-05,2.8333848604233935e-05,3.5435488825896755e-05,-1.0373200893809553e-05,7.808739610482007e-05
1.678995249676518e-05,-6.760759424651042e-05,3.6305977118900046e-05,3.659951835288666e-05,-4.651352810469689e-06,7.949421706143767e-05
1.8411628843750805e-05,-5.4529526096303016e-05,4.069630813319236e-05,2.8322132493485697e-05,9.513746590528172e-07,8.427340071648359e-05
1.764386433933396e-05,-4.200083276373334e-05,4.143511978327297e-05,1.821950172598008e-05,1.319305170000007e-06,8.726365922484547e-05
4.5320880417420994e-06,-4.056203397340141e-05,3.7440906453412026e-05,1.3161802598915529e-05,-1.4915019619365921e-06,8.289713878184557e-05
-3.685592446345254e-06,-4.6052507968852296e-05,3.1837447750149295e-05,1.7722220945870504e-05,-3.45756120623264e-06,7.743542664684355e-05
5.391983904701192e-06,-5.177453567739576e-05,2.9429467758745886e-05,2.2102567527326755e-05,-2.7971891540801153e-06,7.603906124131754e-05
2.3697541109868325e-05,-5.5387408792739734e-05,2.976145697175525e-05,2.2300879209069535e-05,6.853298941678077e-07,7.830274989828467e-05
3.640894647105597e-05,-5.546458123717457e-05,3.1987219699658453e-05,2.0759087419719435e-05,5.807152319903253e-06,8.039572276175022e-05
3.24690954585094e-05,-5.222759136813693e-05,3.261954043409787e-05,2.0973157006665133e-05,6.961141934880288e-06,7.874990842537954e-05
2.0280544049455784e-05,-4.801571776624769e-05,3.196191755705513e-05,2.2936346795177087e-05,3.2139546419784892e-06,7.323383033508435e-05
1.4259858289733529e-05,-4.767382415593602e-05,3.160041887895204e-05,2.8977859983569942e-05,-2.1697869669878855e-06,6.031434895703569e-05
1.5452082152478397e-05,-4.7267847548937425e-05,2.969374145322945e-05,3.686911077238619e-05,-7.262066446855897e-06,4.156975410296582e-05
1.7037711586453952e-05,-3.390277925063856e-05,2.4349777959287167e-05,4.255652675055899e-05,-8.680745850142557e-06,3.258286960772239e-05
2.0374469386297278e-05,-6.5592917053436395e-06,1.920229260576889e-05,4.772287866217084e-05,-6.252706953091547e-06,3.861798904836178e-05
2.864150701498147e-05,1.2484762009989936e-05,1.9052162315347232e-05,5.2172203140798956e-05,-7.20006300980458e-06,4.996543066226877e-05
3.799108526436612e-05,1.9094948129350087e-06,2.1822868802701123e-05,5.72979733988177e-05,-1.2615911145985592e-05,6.100515020079911e-05
3.949727033614181e-05,-4.9529826355865225e-05,2.2599728254135698e-05,5.570505163632333e-05,-1.6331105143763125e-05,6.682131061097607e-05
3.0139646696625277e-05,-9.64776991168037e-05,2.33827067859238e-05,4.115117189940065e-05,-1.655166306591127e-05,7.222130079753697e-05
2.1170848413021304e-05,-7.831636321498081e-05,2.8046004445059225e-05,2.1728823412558995e-05,-1.6871796105988324e-05,8.503028220729902e-05
2.1399402612587437e-05,-2.1445364836836234e-05,3.4507007512729615e-05,8.688471098139416e-06,-2.1830344849149697e-05,9.813279757509008e-05
2.936169403255917e-05,7.477086910512298e-06,3.931981336791068e-05,4.379214715299895e-06,-2.991978544741869e-05,0.00010729130735853687
3.3514781534904614e-05,-2.9710718081332743e-06,3.641155126388185e-05,3.504696906020399e-06,-3.797607132582925e-05,0.00010159576049773023
3.134784856229089e-05,-2.089298504870385e-05,2.2999422071734443e-05,3.49466586158087e-06,-4.826422082260251e-05,7.01817189110443e-05
2.7185114959138446e-05,-1.7822201698436402e-05,9.199726264341734e-06,3.859247954096645e-06,-6.0318696341710165e-05,5.213877011556178e-05
1.8317226931685582e-05,7.866513442422729e-06,1.5005955447122687e-06,-3.00639406702885e-08,-6.98555595590733e-05,6.996705633355305e-05
1.0052916877612006e-05,4.613688724930398e-05,-2.571779077698011e-06,-3.2672794532118132e-06,-7.13767294655554e-05,9.994176070904359e-05
9.115336069953628e-06,7.613364141434431e-05,-1.604106614649936e-06,1.0118183126905933e-06,-6.205091631272808e-05,0.00011145822645630687
1.0446819032949861e-05,8.506345329806209e-05,9.669517567090224e-06,1.01973719210946e-05,-4.7218563850037754e-05,9.859511919785291e-05
4.072809133504052e-06,1.77659258042695e-05,3.556921365088783e-05,1.97054905584082e-05,-2.7077894628746435e-05,8.071529737208039e-05
-2.9562083909695502e-06,-0.0001416379673173651,6.656572804786265e-05,2.6941805117530748e-05,1.2454229363356717e-06,6.348462920868769e-05
-2.4840132937242743e-06,-0.0002455220092087984,8.27156618470326e-05,3.285013008280657e-05,3.064783231820911e-05,3.687678690766916e-05
-5.144591796124587e-06,-0.0001995699421968311,8.5494939412456e-05,4.2694817238952965e-05,5.294089351082221e-05,-6.0963448049733415e-06
-1.4360987734107766e-05,-9.843270527198911e-05,8.84210821823217e-05,5.028500527259894e-05,6.942759500816464e-05,-3.896278576576151e-05
-1.277474711969262e-05,-5.958507608738728e-05,9.128296369453892e-05,4.742277815239504e-05,7.91854108683765e-05,-3.219400969101116e-05
6.4562227635178715e-06,-7.682065188419074e-05,8.496263762935996e-05,3.657077468233183e-05,7.587092113681138e-05,6.812622359575471e-06
2.507890349079389e-05,-9.004594176076353e-05,6.873333040857688e-05,2.872010736609809e-05,6.0365367971826345e-05,4.033397635794245e-05
3.04920304188272e-05,-8.181939483620226e-05,5.087903264211491e-05,2.7347648938302882e-05,4.006215021945536e-05,4.641367195290513e-05
3.109155659331009e-05,-6.890735676279292e-05,3.612284854170866e-05,2.7234196750214323e-05,2.056540506600868e-05,2.8063497666153125e-05
3.6822526453761384e-05,-6.078417209209874e-05,2.765131284832023e-05,2.5431621907046065e-05,5.536103344638832e-06,3.639232090790756e-06
4.1635164961917326e-05,-5.3852727432968095e-05,2.4374277927563526e-05,2.5419336452614516e-05,-3.992990514234407e-06,-3.0475162020593416e-06
3.9598347939318046e-05,-4.3644911784213036e-05,2.424427839287091e-05,2.697929994610604e-05,-1.2454484021873213e-05,1.5764897398184985e-05
3.517300501698628e-05,-2.8864737032563426e-05,2.5492709028185345e-05,2.525127820263151e-05,-2.0814813979086466e-05,3.457044658716768e-05
3.248792563681491e-05,-2.01702077902155e-05,2.6540543331066146e-05,2.1647463654517196e-05,-2.644421147124376e-05,2.7181728000869043e-05
2.853329169738572e-05,-2.606906127766706e-05,3.0258899641921744e-05,2.5829865990090184e-05,-2.9784172511426732e-05,9.081914868147578e-06
2.4500272047589533e-05,-4.374545096652582e-05,3.8273032259894535e-05,3.677360655274242e-05,-3.0230312404455617e-05,4.8337647058360744e-06
2.162014425266534e-05,-7.108151476131752e-05,4.4846605305792764e-05,3.7442645407281816e-05,-2.6942978365696035e-05,2.066251363430638e-05
2.3225680706673302e-05,-9.955484711099416e-05,4.6139812184264883e-05,2.5887178708217107e-05,-2.1938378267805092e-05,4.742620876641013e-05
3.0903825972927734e-05,-0.00010730259236879647,4.2746454710140824e-05,1.801985126803629e-05,-1.766590321494732e-05,7.34612112864852e-05
3.8429956475738436e-05,-9.189308912027627e-05,3.8468348066089675e-05,2.1375484720920213e-05,-1.7276401194976643e-05,9.76272058323957e-05
3.799156183958985e-05,-7.815683784428984e-05,3.561333141988143e-05,2.2200123567017727e-05,-2.6180976419709623e-05,0.00011778586485888809
3.272301546530798e-05,-7.290414941962808e-05,2.8933145586051978e-05,2.3094948119251058e-05,-4.007158349850215e-05,0.00011678952432703227
3.0380693715414964e-05,-6.937002035556361e-05,1.4908187949913554e-05,3.145532900816761e-05,-4.483567681745626e-05,9.518767183180898e-05
2.11568931263173e-05,-5.796020559500903e-05,2.9790166991006117e-06,3.7137877370696515e-05,-4.012533827335574e-05,6.932304677320644e-05
2.305495627297205e-06,-3.441852823016234e-05,6.5250019360973965e-06,3.674593972391449e-05,-3.56834898411762e-05,5.702897396986373e-05
-7.558364359283587e-06,-2.051920091616921e-05,1.7552432836964726e-05,3.6597539292415604e-05,-3.180429484928027e-05,6.518675218103454e-05
5.184629117138684e-06,-2.4244787709903903e-05,2.205653981945943e-05,4.0456929127685726e-05,-2.5015217033796944e-05,7.968154386617243e-05
2.3315527869272046e-05,-3.39131111104507e-05,2.1619229300995357e-05,4.268332850188017e-05,-1.7479396774433553e-05,8.447165600955486e-05
2.7733000024454668e-05,-3.933337939088233e-05,1.9615285054896958e-05,3.636681867646985e-05,-1.0019060937338509e-05,7.849706889828667e-05
1.915515895234421e-05,-3.763873246498406e-05,1.9820145098492503e-05,2.5504445147817023e-05,-4.252365670254221e-06,7.097150228219107e-05
9.307978871220257e-06,-3.474695040495135e-05,2.3329219402512535e-05,1.9384669940336607e-05,-6.140771233731357e-07,6.585516530321911e-05
8.1970183600788e-06,-3.623740121838637e-05,2.6075969799421728e-05,2.0410516299307346e-05,-1.1226472906855633e-07,6.413197115762159e-05
1.318212252954254e-05,-4.379707752377726e-05,2.665114516275935e-05,2.3223416064865887e-05,-3.7133486330276355e-06,6.619610940106213e-05
1.7208878489327617e-05,-5.256728400127031e-05,2.4708409910090268e-05,2.679994940990582e-05,-6.70696135784965e-06,6.934347766218707e-05
1.8025035387836397e-05,-5.748327384935692e-05,2.2974762032390572e-05,3.350558108650148e-05,-4.923862434225157e-06,7.195663783932105e-05
2.244076858914923e-05,-5.6962227972690016e-05,2.327561924175825e-05,3.849030690616928e-05,-1.7947900232684333e-06,7.542750972788781e-05
3.47876557498239e-05,-5.4156196711119264e-05,2.6164592782151885e-05,3.870399814331904e-05,9.890896990327747e-07,7.788190123392269e-05
4.786934005096555e-05,-4.960176374879666e-05,2.9733140763710253e-05,3.871275839628652e-05,6.314295205811504e-06,7.971103332238272e-05
4.9352434871252626e-05,-4.318183346185833e-05,3.1797029805602506e-05,4.0331175114260986e-05,1.148789124272298e-05,7.963292591739446e-05
3.783320789807476e-05,-3.7433062971103936e-05,3.2812338758958504e-05,4.323719986132346e-05,1.2768879969371483e-05,7.826184446457773e-05
2.5406352506252006e-05,-3.5254710383014753e-05,3.281867248006165e-05,4.288779746275395e-05,9.982459232560359e-06,7.963913958519697e-05
2.0733779820147902e-05,-3.809623376582749e-05,2.8044243663316593e-05,3.511113754939288e-05,6.679653324681567e-06,8.419827645411715e-05
1.756563870003447e-05,-4.050702409585938e-05,2.2699041437590495e-05,2.676478288776707e-05,4.005746177426772e-06,8.633804827695712e-05
9.816320925892796e-06,-3.797643876168877e-05,2.5458661184529774e-05,2.1432182620628737e-05,2.305209363839822e-06,8.077111124293879e-05
6.082926574890735e-06,-3.756975274882279e-05,3.266892963438295e-05,2.002435940084979e-05,1.606654564056953e-06,7.456854655174538e-05
1.0053789992525708e-05,-4.198962415102869e-05,3.715203274623491e-05,1.7430955267627724e-05,-1.2684633077242324e-07,7.44939679862e-05
2.2775393517804332e-05,-4.715452450909652e-05,3.821646896540187e-05,1.39436360768741e-05,-2.527227479731664e-06,7.028458639979362e-05
3.674696563393809e-05,-4.672331488109194e-05,3.610436397138983e-05,1.7540623957756907e-05,-1.9875442376360297e-06,6.405834574252367e-05
4.6102883061394095e-05,-3.799186379183084e-05,3.4177759516751394e-05,2.5665131033747457e-05,-2.5210565581801347e-06,7.284266030183062e-05
4.985218038200401e-05,-2.5365683541167527e-05,3.46457636624109e-05,3.597951217670925e-05,-4.616397291101748e-06,9.826204768614843e-05
4.391027323435992e-05,-1.0609135642880574e-05,3.106197254965082e-05,4.746903869090602e-05,-5.0838407332776114e-06,0.0001263926678802818
3.7357021938078105e-05,-6.391093847923912e-06,2.4177597879315726e-05,5.37741907464806e-05,-5.740081178373657e-06,0.00014407432172447443
3.261740494053811e-05,-3.324702993268147e-05,1.8736962374532595e-05,5.082555071567185e-05,-4.734789854410337e-06,0.0001554570480948314
3.4530938137322664e-05,-6.173527799546719e-05,1.335943761660019e-05,4.4296644773567095e-05,-5.1855113269994035e-06,0.00014612823724746704
3.650093640317209e-05,-4.50308398285415e-05,1.2205241546325851e-05,3.833342998404987e-05,-8.238002919824794e-06,0.00010447713430039585
3.26093468174804e-05,-1.673976657912135e-05,2.1227764591458254e-05,3.829859633697197e-05,-8.662875188747421e-06,5.882863842998631e-05
2.6016414267360233e-05,-2.5396835553692654e-05,3.193263182765804e-05,4.191239349893294e-05,-7.961382834764663e-06,3.083819319726899e-05
2.0130264601903036e-05,-5.384313044487499e-05,3.548329186742194e-05,4.003841240773909e-05,-1.1220963642699644e-05,3.1615334137313766e-06
1.7075381038011983e-05,-4.858925240114331e-05,3.17887679557316e-05,3.1270625186152756e-05,-1.615331530047115e-05,-3.221557926735841e-05
1.7648502762313e-05,6.348120678012492e-06,2.309198862349149e-05,2.57978117588209e-05,-1.9108565538772382e-05,-5.580867946264334e-05
2.210693492088467e-05,6.44226893200539e-05,7.827085028111469e-06,2.9105920475558378e-05,-2.0713585399789736e-05,-5.031792534282431e-05
2.5506944439257495e-05,6.670010043308139e-05,-7.540926617366495e-06,3.462689710431732e-05,-2.472951564413961e-05,-2.791909901134204e-05
2.5255209038732573e-05,2.0648013787649688e-07,-1.224321204063017e-05,3.5417175240581855e-05,-3.0429591788561083e-05,-1.723389323160518e-05
2.2502195861306973e-05,-9.866003529168665e-05,-8.268272608802363e-07,2.9287342840689234e-05,-3.421370274736546e-05,-1.9194081687601283e-05
2.153744389943313e-05,-0.00015047511260490865,2.496660999895539e-05,2.1325886336853728e-05,-3.1432278774445876e-05,-1.0263958756695502e-05
1.5820818589418195e-05,-0.00012337820953689516,5.709429387934506e-05,1.6036290617194027e-05,-2.1143569028936327e-05,1.5074909242684953e-05
4.048467872053152e-06,-9.45800420595333e-05,8.709650137461722e-05,1.7512094927951694e-05,-1.3006484550714958e-05,3.4991193388123065e-05
-3.785410171985859e-06,-0.00011115508095826954,0.00010123933316208422,2.3531896658823825e-05,-1.2553543456306215e-05,4.3339994590496644e-05
-1.7139232113549951e-06,-0.00013083027442917228,9.270736336475238e-05,2.7298172426526435e-05,-1.6504029190400615e-05,4.1813495045062155e-05
6.138988283055369e-06,-0.00012217769108247012,7.263603765750304e-05,2.8604661565623246e-05,-1.892388900159858e-05,3.031969208677765e-05
1.3170130841899663e-05,-9.936882270267233e-05,5.0707945774775e-05,3.4490669349906966e-05,-1.9757284462684765e-05,2.1784693672088906e-05
1.774307747837156e-05,-8.480824180878699e-05,3.493316035019234e-05,4.2738724005175754e-05,-2.319442864973098e-05,3.303922130726278e-05
2.4685750759090297e-05,-8.0679397797212e-05,3.177978578605689e-05,4.316666672821157e-05,-2.5012104742927477e-05,6.146728992462158e-05
2.790359576465562e-05,-7.726040348643437e-05,3.198275953764096e-05,3.241944432375021e-05,-2.498050707799848e-05,9.53780472627841e-05
2.145966573152691e-05,-6.970600225031376e-05,3.154095247737132e-05,2.245809810119681e-05,-2.7004958610632457e-05,0.00012045769835822284
1.4800100871070754e-05,-5.732076897402294e-05,2.7588634111452848e-05,2.002473411266692e-05,-3.2327523513231426e-05,0.0001268536871066317
2.0906209101667628e-05,-4.7875899326754734e-05,2.0629204300348647e-05,2.5897474188241176e-05,-3.389771518413909e-05,0.00011767305113608018
2.624031185405329e-05,-4.498339694691822e-05,1.5098657968337648e-05,3.744177593034692e-05,-2.782518458843697e-05,0.0001003545185085386
1.450510899303481e-05,-4.7793990233913064e-05,1.581670221639797e-05,4.6858327550580725e-05,-2.63878027908504e-05,7.735222607152537e-05
-1.7082268186641159e-06,-5.2287323342170566e-05,2.45219034695765e-05,5.463733396027237e-05,-3.2003204978536814e-05,4.1901257645804435e-05
-3.4957070056407247e-06,-6.076211866457015e-05,3.0346309358719736e-05,5.646658246405423e-05,-3.8799222238594666e-05,4.571022600430297e-06
6.837395631009713e-06,-7.284168532351032e-05,3.012169872818049e-05,5.184316978557035e-05,-3.6785797419724986e-05,-8.397949386562686e-06
1.693046033324208e-05,-8.189962682081386e-05,2.7215319278184325e-05,4.9594535084906965e-05,-2.7054275051341392e-05,2.3437276013282826e-06
2.5134853785857558e-05,-8.12201906228438e-05,2.4706059775780886e-05,4.743588579003699e-05,-1.984230948437471e-05,1.2174919902463444e-05
3.046986057597678e-05,-7.53462954889983e-05,2.4184151698136702e-05,3.966192525695078e-05,-1.762786450854037e-05,8.534982953278814e-06
2.742571450653486e-05,-6.243868119781837e-05,2.49777967837872e-05,3.223231033189222e-05,-1.2964927009306848e-05,3.970263605879154e-06
2.065405533357989e-05,-4.603391425916925e-05,2.7912652512895875e-05,2.6486577553441748e-05,-3.5874520563083934e-06,1.2444424100976903e-05
2.379306170041673e-05,-3.739359090104699e-05,3.290360837127082e-05,2.2806383640272543e-05,3.62320315616671e-06,3.2020947401179e-05
3.4514199796831235e-05,-3.8646852772217244e-05,3.793623181991279e-05,2.5449580789427273e-05,6.526097422465682e-06,5.0602575356606394e-05
3.805439700954594e-05,-4.181276381132193e-05,4.128474392928183e-05,3.07864866044838e-05,1.0770594599307515e-05,6.0490681789815426e-05
2.8698503228952177e-05,-4.2936066165566444e-05,4.03442645620089e-05,2.9701814128202386e-05,1.922248884511646e-05,6.6807318944484e-05
1.6312951629515737e-05,-4.38560928159859e-05,3.6701312637887895e-05,2.573689562268555e-05,2.4879680495359935e-05,7.499648199882358e-05
1.0949967872875277e-05,-4.342722240835428e-05,3.5294138797326013e-05,2.634457814565394e-05,2.402115387667436e-05,8.300087210955098e-05
1.6090527424239554e-05,-4.5038403186481446e-05,3.650081271189265e-05,2.9434038879116997e-05,1.888919905468356e-05,8.821560913929716e-05
2.75855309155304e-05,-4.904992238152772e-05,3.740782995009795e-05,2.8556218239828013e-05,1.0705824024626054e-05,8.881873509380966e-05
3.625619865488261e-05,-5.271371264825575e-05,3.442577144596726e-05,2.3324380890699103e-05,2.7587745989876566e-06,8.129582420224324e-05
3.730434400495142e-05,-5.23419730598107e-05,2.8459531677071936e-05,1.783476363925729e-05,4.015596459794324e-07,7.224736327771097e-05
3.684206967591308e-05,-4.972723399987444e-05,2.471649531798903e-05,1.429339772585081e-05,1.8863402146962471e-06,6.97341383784078e-05
3.313598790555261e-05,-4.3947220547124743e-05,2.6031970264739357e-05,1.3515914361050818e-05,1.2544293213068158e-06,7.290959911188111e-05
2.4584320271969773e-05,-4.120595258427784e-05,2.7562209652387537e-05,1.2421739484125283e-05,-2.0048862552357605e-06,7.840349280741066e-05
1.688126940280199e-05,-4.652139978134073e-05,2.462673728587106e-05,9.543236046738457e-06,-4.901537067780737e-06,7.930506399134174e-05
1.3866162589692976e-05,-5.715461520594545e-05,1.9083070583292283e-05,5.898973995499546e-06,-1.0460773410159163e-05,7.079480565153062e-05
1.5106647879292723e-05,-5.534572119358927e-05,1.5485793483094312e-05,2.7324879283696646e-06,-1.4594332242268138e-05,6.394072261173278e-05
1.6876732843229547e-05,-2.8434000341803767e-05,1.6563730241614394e-05,5.2607792895287275e-06,-1.4213707800081465e-05,7.112495950423181e-05
1.6657504602335393e-05,-7.976746928761713e-06,2.3972401322680525e-05,1.4505290891975164e-05,-1.2074612641299609e-05,8.740204793866724e-05
1.9642862753244117e-05,-2.0177598344162107e-05,3.3281914511462674e-05,1.9963455997640267e-05,-1.339332084171474e-05,9.645819227444008e-05
2.7817744921776466e-05,-4.282203008187935e-05,3.849006679956801e-05,2.305837915628217e-05,-1.6289661289192736e-05,9.488257637713104e-05
3.802360515692271e-05,-5.641256211674772e-05,4.052844815305434e-05,2.6685902412282303e-05,-1.7359679986839183e-05,8.925522706704214e-05
4.196275403955951e-05,-6.048388604540378e-05,4.4810054532717913e-05,3.4198659704998136e-05,-1.6858530216268264e-05,8.651436655782163e-05
3.21190818795003e-05,-5.5180644267238677e-05,5.0660302804317325e-05,4.361832907306962e-05,-1.4280310097092297e-05,8.812487067189068e-05
1.4063222806726117e-05,-3.515166827128269e-05,4.977238131687045e-05,4.7359149903059006e-05,-1.2517258255684283e-05,8.907806477509439e-05
-2.7661365038511576e-06,-8.154797797033098e-06,4.485661338549107e-05,4.4947937567485496e-05,-1.2618963410204742e-05,8.74792822287418e-05
-1.1220391570532229e-05,2.2134061055112397e-06,4.4242980948183686e-05,4.032137439935468e-05,-1.2910481927974615e-05,7.976983033586293e-05
-1.0861363989533857e-05,-1.7132606444647536e-05,4.4501692173071206e-05,3.472143362159841e-05,-1.338292258878937e-05,6.788245809730142e-05
-3.0288915695564356e-06,-4.587126386468299e-05,3.7680467357859015e-05,2.9972306947456673e-05,-1.3087089428154286e-05,5.1836250349879265e-05
6.746726285200566e-06,-4.81408933410421e-05,2.8547925467137247e-05,3.065995406359434e-05,-1.0428846508148126e-05,2.95311492664041e-05
1.7571073840372264e-05,-1.65108449436957e-05,2.7651780328596942e-05,3.427168121561408e-05,-6.087348538130755e-06,1.0916263818216976e-05
2.6736930522019975e-05,1.0555037079029717e-05,3.473228571237996e-05,3.6602767067961395e-05,-2.007264811254572e-06,9.653830602474045e-06
3.053733234992251e-05,-9.546100955049042e-06,3.7836856790818274e-05,3.1524836231255904e-05,-1.6390970358770574e-06,2.6268682631780393e-05
2.9657036066055298e-05,-6.141298217698932e-05,3.2674175599822775e-05,1.9504774172673933e-05,-8.567095392209012e-06,5.000570308766328e-05
2.984767888847273e-05,-8.80065854289569e-05,2.8763775844709016e-05,9.600576959201135e-06,-2.361123370064888e-05,7.29718740331009e-05
3.460129664745182e-05,-7.274490053532645e-05,2.8563510568346828e-05,5.1929014261986595e-06,-3.587720129871741e-05,9.162088099401444e-05
3.5746325011132285e-05,-4.411927147884853e-05,2.3669572328799404e-05,-3.700441538967425e-06,-3.781454870477319e-05,0.00010094107710756361
2.8028363885823637e-05,-1.3938060874352232e-05,1.4848319551674649e-05,-1.1661490134429187e-05,-3.576601739041507e-05,9.667564154369757e-05
1.9559896827558987e-05,2.2158579668030143e-05,1.3375029993767384e-05,-7.1962772381084505e-06,-3.381422357051633e-05,8.037577936192974e-05
1.9573351892177016e-05,4.7057732444955036e-05,1.9587248971220106e-05,7.089889095368562e-06,-2.54212263826048e-05,6.096106517361477e-05
2.6233390599372797e-05,2.6982252165907994e-05,2.3739827156532556e-05,1.7613001546123996e-05,-1.437075661669951e-05,4.686538522946648e-05
3.2276624551741406e-05,-6.45000982331112e-05,2.850689270417206e-05,1.5079691365826875e-05,-4.339002316555707e-06,3.433646634221077e-05
3.528708839439787e-05,-0.00016175660130102187,3.311801265226677e-05,4.48300033895066e-06,3.8300595406326465e-06,1.7917773220688105e-05
3.440340151428245e-05,-0.00015795990475453436,3.052959073102102e-05,-4.1785506255109794e-06,8.798519047559239e-06,7.779327688695048e-07
2.8752021535183303e-05,-9.076201968127862e-05,2.701510129554663e-05,-1.3488214563039946e-06,1.369780602544779e-05,-3.5060411391896196e-06
2.205850432801526e-05,-6.23594896751456e-05,2.475913606758695e-05,5.23952212461154e-06,1.7245576600544155e-05,1.4168204870657064e-05
1.8764803826343268e-05,-8.144933235598728e-05,1.6762474842835218e-05,5.47226090930053e-06,2.042685264314059e-05,5.211654206505045e-05
1.8801911210175604e-05,-6.426334584830329e-05,1.045510362018831e-05,3.3478283967269817e-06,2.077242788800504e-05,9.117001900449395e-05
1.5958339645294473e-05,-2.658846278791316e-05,1.8937007553176954e-05,7.747122253931593e-06,1.90885675692698e-05,0.00010323422611691058
1.1032413567590993e-05,-4.05746468459256e-05,3.649146674433723e-05,2.3935621356940828e-05,1.6844582205521874e-05,8.700715261511505e-05
9.164989023702219e-06,-8.8009204773698e-05,5.377736306400038e-05,4.256992906448431e-05,1.4505537365039345e-05,5.946874443907291e-05
9.665486686571967e-06,-0.00011505476868478581,6.316293001873419e-05,5.218190563027747e-05,1.1276368240942247e-05,2.8476521038101055e-05
9.164595212496351e-06,-0.00010627425945131108,6.301721441559494e-05,5.4370637371903285e-05,3.635174834926147e-06,6.169528205646202e-06
1.0196329640166368e-05,-8.704859646968544e-05,5.711478661396541e-05,5.4579300922341645e-05,-6.936008503544144e-06,1.4726152585353702e-05
1.4715698853251524e-05,-7.190802716650069e-05,4.849317701882683e-05,5.511392737389542e-05,-1.6708276234567165e-05,5.0571728934301063e-05
1.9396315110498108e-05,-6.457675772253424e-05,4.091102891834453e-05,5.619608782581054e-05,-2.3967902961885557e-05,8.370066643692553e-05
1.8898754206020385e-05,-5.983972005196847e-05,3.5231652873335406e-05,5.4997690313030034e-05,-3.032933091162704e-05,9.072167449630797e-05
1.4732742783962749e-05,-5.672796760336496e-05,3.0735940526938066e-05,4.928149064653553e-05,-3.51967646565754e-05,7.59548565838486e-05
1.2651702490984462e-05,-5.4390875448007137e-05,2.789652171486523e-05,4.0373219235334545e-05,-3.78852964786347e-05,5.843130202265456e-05
1.4858360373182222e-05,-5.199409133638255e-05,2.626712193887215e-05,3.4592867450555786e-05,-3.654245665529743e-05,5.687672091880813e-05
2.061284612864256e-05,-4.839300163439475e-05,2.4247594410553575e-05,3.604037192417309e-05,-3.16918631142471e-05,7.086026016622782e-05
2.4983057301142253e-05,-4.4862976210424677e-05,2.5386028937646188e-05,4.276319305063225e-05,-2.6321131372242235e-05,8.455279021291062e-05
2.4402295821346343e-05,-4.1168979805661365e-05,2.8433561965357512e-05,4.7939029172994196e-05,-2.2057407477404922e-05,8.6848514911253e-05
2.201017559855245e-05,-4.176167203695513e-05,3.0127343052299693e-05,4.450751293916255e-05,-1.8453658412909135e-05,7.883697253419086e-05
2.2693910068483092e-05,-4.5343713281909004e-05,3.1756215321365744e-05,3.5365599615033716e-05,-1.4134354387351777e-05,7.137952343327925e-05
2.746080281212926e-05,-4.718045238405466e-05,3.1816882255952805e-05,2.73619189101737e-05,-1.1541259482328314e-05,6.74707189318724e-05
3.150179691147059e-05,-4.5965858589624986e-05,2.9647035262314603e-05,2.7543670512386598e-05,-1.3089053027215414e-05,6.030684380675666e-05
3.1910123652778566e-05,-4.288172203814611e-05,2.477129783073906e-05,3.4368869819445536e-05,-1.559716838528402e-05,5.0547372666187584e-05
2.958171535283327e-05,-3.956280852435157e-05,2.0502016923273914e-05,3.53809809894301e-05,-1.8795946743921377e-05,4.612295379047282e-05
2.88844221358886e-05,-3.6256857129046693e-05,2.432356086501386e-05,2.870683056244161e-05,-1.9152759705320932e-05,4.7536803322145715e-05
3.107239172095433e-05,-3.443847890594043e-05,2.812449383782223e-05,2.501321432646364e-05,-1.3987913007440511e-05,4.407243977766484e-05
3.324258796055801e-05,-3.9545448089484125e-05,2.472353480698075e-05,2.6956642614095472e-05,-8.16024203231791e-06,3.0584884370910004e-05
3.5634508094517514e-05,-4.5427321310853586e-05,2.037990270764567e-05,2.894120007113088e-05,-6.035914793756092e-06,2.276861596328672e-05
3.774464494199492e-05,-4.413763963384554e-05,2.0978724933229387e-05,2.777848203550093e-05,-6.665211913059466e-06,3.009861393366009e-05
4.1513052565278485e-05,-4.454563168110326e-05,2.47796815529e-05,2.3715459974482656e-05,-5.962385785096558e-06,4.707556945504621e-05
4.398232340463437e-05,-5.122560105519369e-05,3.055112392758019e-05,2.0453890101634897e-05,-5.49853621123475e-06,5.965299715171568e-05
4.145157799939625e-05,-6.022759771440178e-05,3.764481152757071e-05,1.824360151658766e-05,-6.158920768939424e-06,5.9188896557316184e-05
3.4046643122565e-05,-6.252027378650382e-05,3.8022375520085916e-05,1.6194700947380625e-05,-8.510713996656705e-06,5.069574399385601e-05
2.6478173822397366e-05,-5.7561512221582234e-05,3.5758122976403683e-05,1.98412271856796e-05,-9.415078238816932e-06,4.764428376802243e-05
1.7803648006520234e-05,-4.911287396680564e-05,3.633511732914485e-05,2.633189069456421e-05,-7.480452040908858e-06,5.9369311202317476e-05
8.84293422132032e-06,-4.165297650615685e-05,3.6432244087336585e-05,2.9198472475400195e-05,-6.524412583530648e-06,8.001382957445458e-05
8.471641194773838e-06,-3.551393820089288e-05,3.337728776386939e-05,3.1449053494725376e-05,-5.410492121882271e-06,9.172737918561324e-05
2.0451487216632813e-05,-3.317080336273648e-05,3.068965452257544e-05,3.6271641874918714e-05,-2.6929378691420425e-06,9.067041537491605e-05
3.5374981962377205e-05,-3.5375607694732025e-05,3.0750703444937244e-05,3.847401239909232e-05,-4.356661520432681e-06,9.422026778338477e-05
4.365846325526945e-05,-3.8810656405985355e-05,2.939102159871254e-05,3.593875953811221e-05,-9.135980690189172e-06,0.0001066614204319194
4.696264659287408e-05,-4.207149686408229e-05,2.6770911063067615e-05,3.203743108315393e-05,-8.369093848159537e-06,0.0001110791927203536
4.894812809652649e-05,-4.579823144013062e-05,2.6163059374084696e-05,2.9508635634556413e-05,-5.362713636714034e-06,0.00010182953701587394
4.7942270612111315e-05,-4.5242624764796346e-05,2.7749922082875855e-05,3.187531547155231e-05,-1.2411643183440901e-05,8.933615026762709e-05
4.1651353967608884e-05,-3.555281728040427e-05,2.7810407118522562e-05,3.9090733480406925e-05,-2.7122641768073663e-05,8.08323165983893e-05
3.308600207674317e-05,-2.9802027711411938e-05,2.7033303922507912e-05,4.3674786866176873e-05,-3.819872654275969e-05,7.278655539266765e-05
2.2977708795224316e-05,-5.591822991846129e-05,2.6176836399827152e-05,4.204148717690259e-05,-4.530831938609481e-05,5.6820452300598845e-05
1.1910397006431594e-05,-9.997258166549727e-05,2.478762689861469e-05,3.876458140439354e-05,-4.5735770981991664e-05,4.020544292870909e-05
6.462964392994763e-06,-8.380875806324184e-05,3.105941868852824e-05,4.2093619413208216e-05,-2.7836438675876707e-05,3.435624603298493e-05
6.10243341725436e-06,-8.406263077631593e-06,4.973806062480435e-05,5.013040572521277e-05,4.787387297255918e-06,3.165239468216896e-05
7.556903256045189e-06,3.716402352438308e-05,6.27291519776918e-05,4.898815313936211e-05,3.5812434362014756e-05,2.43059348576935e-05
5.890656211704481e-06,2.7386206056689844e-05,5.133738159202039e-05,3.113575075985864e-05,5.98405058553908e-05,2.572341873019468e-05
-1.0238088776759469e-07,4.170424290350638e-06,3.272550748079084e-05,1.4783853657718282e-05,7.080665091052651e-05,3.2176794775296e-05
5.22932396052056e-06,-5.308320396579802e-06,2.3155791495810263e-05,1.6702833818271756e-05,7.112338789738715e-05,3.692324389703572e-05
1.7424687030143104e-05,1.5453833839274012e-06,1.6023894204408862e-05,2.5776511392905377e-05,6.456313712988049e-05,4.018153413198888e-05
2.3795455490471795e-05,1.6549302017665468e-05,6.405205567716621e-06,2.749231680354569e-05,4.7668934712419286e-05,3.4246670111315325e-05
2.2095202439231798e-05,-8.780728421697859e-06,6.891172006362467e-07,2.100194978993386e-05,2.766424040601123e-05,2.2335567336995155e-05
2.005374881264288e-05,-6.070654126233421e-05,5.550855348701589e-06,1.9664155843202025e-05,7.9789970186539e-06,1.491935381636722e-05
1.5865234672673978e-05,-8.023525879252702e-05,1.4754902622371446e-05,2.5194774934789166e-05,-1.0313737220712937e-05,1.984172558877617e-05
9.555710676067974e-06,-8.755721501074731e-05,2.4083232347038575e-05,3.2804080547066405e-05,-2.6189462005277164e-05,3.0840892577543855e-05
7.4669769674073905e-06,-0.00010257717804051936,3.589410334825516e-05,4.1403473005630076e-05,-3.8706533814547583e-05,3.945064599975012e-05
6.911518994456856e-06,-0.00010501129145268351,4.976294803782366e-05,5.0997990911128e-05,-4.504905882640742e-05,4.545900446828455e-05
8.532481842848938e-06,-8.677752339281142e-05,5.5374974181177095e-05,5.2487619541352615e-05,-4.545929914456792e-05,5.589041393250227e-05
1.1261089639447164e-05,-6.306704744929448e-05,5.187384886085056e-05,4.725091275759041e-05,-4.431014895089902e-05,7.54176580812782e-05
1.5995952708180994e-05,-4.673276998801157e-05,4.562055255519226e-05,4.106236156076193e-05,-4.4891221477882937e-05,9.658447379479185e-05
2.3929849703563377e-05,-4.489932325668633e-05,4.2644631321309134e-05,3.6115765396971256e-05,-4.664346852223389e-05,0.00010563463729340583
3.6331635783426464e-05,-5.613633766188286e-05,4.443073703441769e-05,3.493184703984298e-05,-4.411009285831824e-05,0.00010040239430963993
4.917791375191882e-05,-6.91898021614179e-05,4.9991358537226915e-05,3.442254092078656e-05,-3.5687397030415013e-05,9.280926315113902e-05
5.140506982570514e-05,-7.80423724791035e-05,5.588682688539848e-05,3.151726923533715e-05,-3.0630628316430375e-05,8.447974687442183e-05
3.480029045022093e-05,-8.433902985416353e-05,5.4738040489610285e-05,2.6899184376816265e-05,-3.251953603466973e-05,7.156237552408129e-05
1.3992701497045346e-05,-8.389611321035773e-05,4.666001404984854e-05,2.790167673083488e-05,-3.5925917472923175e-05,6.221598596312106e-05
9.775666512723546e-06,-7.390042446786538e-05,3.944789568777196e-05,3.64075240213424e-05,-3.352788553456776e-05,6.303196278167889e-05
1.9767512640100904e-05,-6.07991823926568e-05,3.526396176312119e-05,4.8004767450038344e-05,-2.3508995582233183e-05,7.003136852290481e-05
2.597832826722879e-05,-5.237000732449815e-05,3.279204975115135e-05,4.99371271871496e-05,-1.096289179258747e-05,8.003877883311361e-05
2.4877914256649092e-05,-5.225749919191003e-05,3.1402247259393334e-05,3.519499659887515e-05,-3.0812493605480995e-06,8.472493209410459e-05
2.4585615392425098e-05,-5.5782616982469335e-05,2.7502896045916714e-05,1.4040029782336205e-05,-3.3697795061016222e-06,7.934042514534667e-05
2.8545528039103374e-05,-5.526753739104606e-05,2.2815922420704737e-05,2.00233398572891e-06,-6.99794964020839e-06,6.52877424727194e-05
3.1953819416230544e-05,-5.393444371293299e-05,1.566651917528361e-05,-7.823203986845328e-07,-8.342894034285564e-06,3.628918784670532e-05
3.72960239474196e-05,-4.7540917876176536e-05,1.4626531083195005e-05,5.738319487136323e-06,-7.57169846110628e-06,7.66758694226155e-06
4.434460061020218e-05,-3.506693246890791e-05,2.2703130525769666e-05,1.2519673873612192e-05,-3.0821568088867934e-06,1.2458850505936425e-05
4.0959566831588745e-05,-3.0178331144270487e-05,2.8196063794894144e-05,1.5133141459955368e-05,7.475856023120286e-07,3.1920546462060884e-05
2.3091644834494218e-05,-3.221832957933657e-05,2.5673958589322865e-05,2.0691664758487605e-05,2.0021100226585986e-06,4.1368060919921845e-05
1.996211267396575e-06,-3.631803338066675e-05,2.2580756194656715e-05,2.774331187538337e-05,2.943406514077651e-07,4.2431100155226886e-05
-4.766156507685082e-06,-4.1170682379743084e-05,2.5001576432259753e-05,3.133109203190543e-05,-4.7862654355412815e-06,4.321431333664805e-05
1.6715046058379812e-06,-5.4719512263545766e-05,2.9345876100705937e-05,2.8033809940097854e-05,-8.806882760836743e-06,5.359318311093375e-05
9.616838724468835e-06,-8.069920295383781e-05,3.061337338294834e-05,2.2936659661354497e-05,-1.2589018297148868e-05,6.555960862897336e-05
7.884947081038263e-06,-0.00010152927279705182,2.7254580345470458e-05,1.657478787819855e-05,-1.7453501641284674e-05,7.050150452414528e-05
3.48432251939812e-07,-0.00010037335596280172,2.174813562305644e-05,9.334704373031855e-06,-2.078351280943025e-05,6.456921255448833e-05
-2.9391633233899483e-06,-8.15747698652558e-05,2.0864046746282838e-05,9.390029845235404e-06,-1.8855451344279572e-05,6.461186421802267e-05
-5.422272124633309e-07,-5.951381172053516e-05,2.5844134142971598e-05,1.9583379980758764e-05,-1.4227661267796066e-05,6.95791604812257e-05
2.9014397568971617e-06,-3.906134588760324e-05,3.239070065319538e-05,3.1358104024548084e-05,-9.270728696719743e-06,7.024793012533337e-05
1.1149946658406407e-05,-1.623262323846575e-05,3.774469223571941e-05,3.926490535377525e-05,-5.29312455910258e-06,6.878231943119317e-05
2.4397777451667935e-05,-1.427780262019951e-06,4.0993152651935816e-05,4.288389391149394e-05,-1.0945369695036788e-06,7.161417306633666e-05
3.532205300871283e-05,-1.062485171132721e-05,4.1882420191541314e-05,4.331547097535804e-05,3.919523351214593e-06,7.87212120485492e-05
4.0137336327461526e-05,-3.234736868762411e-05,3.831639332929626e-05,4.446753519005142e-05,9.708802281238604e-06,8.764649828663096e-05
3.8587659219047055e-05,-3.834069138974883e-05,3.2628591725369915e-05,4.8035763029474765e-05,1.3233558092906605e-05,9.579245670465752e-05
3.405617826501839e-05,-1.8449465642333962e-05,2.9426990295178257e-05,5.4214087867876515e-05,1.0649241630744655e-05,0.00010175240458920598
2.978243173856754e-05,8.964382686826866e-06,3.0326482374221087e-05,6.043702887836844e-05,4.775803063239437e-06,0.00010895753803197294
3.256195122958161e-05,1.916405926749576e-05,3.2405470847152174e-05,5.345924728317186e-05,4.884800546278711e-07,0.00011789563723141328
4.312341843615286e-05,8.602992238593288e-06,3.444565300014801e-05,3.0897306714905426e-05,-1.7900282500704634e-06,0.00012469314970076084
4.9231286538997665e-05,-1.152742152044084e-05,3.394313171156682e-05,1.308677383349277e-05,-3.4611130104167387e-06,0.0001185627916129306
4.592825280269608e-05,-2.8408785510691814e-05,2.9892127713537775e-05,6.319555723166559e-06,-5.774144028691808e-06,0.0001049668644554913
4.3497933802427724e-05,-2.811880040098913e-05,2.774406129901763e-05,3.3835215162980603e-06,-8.250749488070142e-06,8.629783405922353e-05
4.143177284277044e-05,-1.461977262806613e-05,3.283372279838659e-05,3.245738753321348e-07,-7.474601716239704e-06,5.517212048289366e-05
3.61803722626064e-05,-8.66980553837493e-06,3.7627927667927e-05,-1.2101420452381717e-06,-6.376040801114868e-06,1.5027010704216082e-05
2.7611426048679277e-05,-2.547055555623956e-05,2.9537775844801217e-05,-5.1458305279084016e-06,-1.2694673387159128e-05,-2.8605225452338345e-05
2.1235695385257713e-05,-7.776700840622652e-06,1.7659884179010987e-05,-6.243034022190841e-06,-2.1306341295712627e-05,-6.910568481544033e-05
1.5623611034243368e-05,6.380952254403383e-05,1.1935651855310425e-05,1.2875909305876121e-05,-2.4094810214592144e-05,-0.00010486707469681278
1.1345176062604878e-05,9.70857436186634e-05,6.691445832984755e-06,4.1203278669854626e-05,-2.490557926648762e-05,-0.00011639759759418666
1.2683103705057874e-05,2.2908838218427263e-05,3.5002090044145007e-06,6.315726932371035e-05,-2.524854789953679e-05,-7.836260192561895e-05
2.157204653485678e-05,-0.00014410997391678393,6.290368219197262e-06,6.481778109446168e-05,-2.7734271498047747e-05,-2.013025550695602e-05
3.2258889405056834e-05,-0.00024329109874088317,1.1413854736019857e-05,4.4929340219823644e-05,-3.157174069201574e-05,2.9709774025832303e-05
3.0444572985288687e-05,-0.00019850955868605524,2.0238945580786094e-05,2.1925843611825258e-05,-3.4114385925931856e-05,6.520338502014056e-05
1.31719452838297e-05,-0.00013084129022900015,4.186095975455828e-05,1.6774876712588593e-05,-3.252909300499596e-05,8.539096597814932e-05
-6.122617378423456e-06,-0.00012780916586052626,7.128564902814105e-05,3.544855280779302e-05,-2.7065614631283097e-05,8.231941319536418e-05
-8.874105333234183e-06,-0.000158124283188954,9.0492692834232e-05,5.8819969126489013e-05,-2.0080427930224687e-05,7.045492384349927e-05
-2.2559831904800376e-06,-0.00015827424067538232,8.911158511182293e-05,6.917060818523169e-05,-1.5331388567574322e-05,5.486258669407107e-05
1.4357379995999509e-07,-0.00012756955402437598,7.106548582669348e-05,6.409456545952708e-05,-1.335181514150463e-05,3.882074452121742e-05
-4.6978161662991624e-06,-9.280100493924692e-05,4.606691800290719e-05,5.058326860307716e-05,-1.2362745110294782e-05,3.7520567275350913e-05
-8.616325430921279e-06,-7.244353037094697e-05,2.651279828569386e-05,3.196655598003417e-05,-1.164793320640456e-05,5.756365862907842e-05
-5.250168669590494e-06,-6.351184856612235e-05,1.8175223885918967e-05,1.5027433619252406e-05,-1.0895065315708052e-05,9.20228922041133e-05
4.950638412992703e-06,-5.928010068600997e-05,1.820466604840476e-05,5.263542334432714e-06,-1.3024409781792201e-05,0.00012020432768622413
1.4185736290528439e-05,-5.506110755959526e-05,1.968984906852711e-05,7.261961627591518e-07,-1.4891371392877772e-05,0.000130556189105846
1.7555519661982544e-05,-5.050965046393685e-05,1.99608566617826e-05,-6.565929311364016e-07,-1.2261574738658965e-05,0.00012702900858130306
1.9354860341991298e-05,-4.7806959628360346e-05,2.2418284061132e-05,5.257541488390416e-06,-5.505699846253265e-06,0.0001283576712012291
2.198201764258556e-05,-4.6652443415950984e-05,2.7352589313522913e-05,2.025815410888754e-05,3.4021431360997667e-07,0.00013738416600972414
2.607839815027546e-05,-4.148160223849118e-05,3.200309947715141e-05,3.640400609583594e-05,2.830098310369067e-06,0.00015082165191415697
2.9675476980628446e-05,-3.543948332662694e-05,3.495088458294049e-05,4.1681461880216375e-05,3.7642473671439802e-06,0.00015608081594109535
3.1746130844112486e-05,-3.6086468753637746e-05,3.792680217884481e-05,3.514161653583869e-05,6.150427452666918e-06,0.00013994578330311924
3.297111106803641e-05,-4.03190242650453e-05,3.902455136994831e-05,2.557659536250867e-05,5.5842647270765156e-06,0.00010219356045126915
3.232354356441647e-05,-4.1887760744430125e-05,3.686184936668724e-05,1.951088233909104e-05,-3.826812644547317e-06,6.611389835597947e-05
2.9644297683262266e-05,-3.764989378396422e-05,3.573171852622181e-05,1.787885048543103e-05,-1.6360821973648854e-05,5.304800652083941e-05
2.687344567675609e-05,-3.5219421988585964e-05,3.464629844529554e-05,1.5418747352669016e-05,-2.1791900508105755e-05,4.8771242290968075e-05
2.1793875930598006e-05,-4.10690154240001e-05,2.753808985289652e-05,7.654685759916902e-06,-2.156639857275877e-05,3.291731991339475e-05
1.7077531083486974e-05,-4.627956877811812e-05,2.1684851162717678e-05,-7.665776138310321e-07,-1.9834726117551327e-05,4.092903691343963e-05
1.549421540403273e-05,-4.1986280848504975e-05,2.2363217794918455e-05,1.7097506770369364e-06,-1.6244501239270903e-05,8.031065226532519e-05
1.2572995728987735e-05,-4.164990969002247e-05,2.621633575472515e-05,9.730637430038769e-06,-9.82646452030167e-06,9.347204468213022e-05
7.5166390161029994e-06,-5.036931543145329e-05,2.9249962608446367e-05,1.535455339762848e-05,-4.129594344703946e-06,6.933644908713177e-05
4.0979352888825815e-06,-5.5678567150607705e-05,3.1255654903361574e-05,2.4378818125114776e-05,2.1310434021870606e-06,5.051073094364256e-05
3.7065356082166545e-06,-4.920592618873343e-05,3.666613338282332e-05,3.922403993783519e-05,1.3468276847561356e-05,5.117446562508121e-05
6.586334620806156e-06,-3.986050433013588e-05,4.302387606003322e-05,5.516310193343088e-05,2.294485420861747e-05,4.955130134476349e-05
9.240083272743504e-06,-3.591138738556765e-05,4.363289554021321e-05,6.503180338768288e-05,2.441003562125843e-05,2.6293788323528133e-05
1.2302803042985033e-05,-3.834573726635426e-05,4.093300594831817e-05,6.67172425892204e-05,1.829850771173369e-05,-1.580637581355404e-05
1.5143595192057546e-05,-4.427512612892315e-05,3.943600313505158e-05,6.578923057531938e-05,9.257111742044799e-06,-6.003883754601702e-05
1.6935946405283175e-05,-4.8809306463226676e-05,3.5125365684507415e-05,6.38598867226392e-05,1.4266075254454336e-07,-8.602353045716882e-05
1.9105349565506913e-05,-4.822906703338958e-05,2.3972826966200955e-05,5.9862544731004164e-05,-1.0297746484866366e-05,-8.4673949459102e-05
2.27620384976035e-05,-4.65650373371318e-05,1.3943594240117818e-05,5.5170199630083516e-05,-2.6296733267372474e-05,-7.019010081421584e-05
2.6188334231846966e-05,-4.933954187436029e-05,1.2855522072641179e-05,5.1772840379271656e-05,-4.318853098084219e-05,-5.297855386743322e-05
2.942693572549615e-05,-5.2826213504886255e-05,1.7179363567265682e-05,4.9410740757593885e-05,-5.125842653797008e-05,-2.6097091904375702e-05
3.268321233917959e-05,-5.473012788570486e-05,2.115761708409991e-05,4.3507865484571084e-05,-4.890440322924405e-05,1.1173960047017317e-05
3.078274676227011e-05,-5.695735671906732e-05,2.520004090911243e-05,3.178675615345128e-05,-4.2438630771357566e-05,4.0032035030890256e-05
2.3099357349565253e-05,-5.307978790369816e-05,3.0989147489890456e-05,1.8641925635165535e-05,-3.7221412640064955e-05,5.0636699597816914e-05
1.704755050013773e-05,-3.7909096135990694e-05,3.421175279072486e-05,9.423720257473178e-06,-2.9073935365886427e-05,4.89443882543128e-05
1.631491250009276e-05,-2.489871985744685e-05,3.0502920708386227e-05,4.440883458300959e-06,-1.7937520169653e-05,4.25101607106626e-05
1.6684365618857555e-05,-3.9829654269851744e-05,2.4683302399353124e-05,2.7094924917037133e-06,-9.473400496062823e-06,4.0832699596649036e-05
2.2170950614963658e-05,-9.60955730988644e-05,2.1411029592854902e-05,5.157527539267903e-06,-1.2991623634661664e-06,5.323903315002099e-05
3.3077467378461733e-05,-0.00014092186756897718,2.1180043404456228e-05,1.2980607607460115e-05,1.0061175998998806e-05,7.033230940578505e-05
3.732956247404218e-05,-0.00010409333481220528,2.405567647656426e-05,2.490300903446041e-05,2.1725856640841812e-05,8.196882117772475e-05
3.377323810127564e-05,-2.3276375941350125e-05,2.863876215997152e-05,3.4768658224493265e-05,2.658431367308367e-05,8.653622353449464e-05
3.0238525141612627e-05,1.847387829911895e-05,3.312983608338982e-05,3.623207885539159e-05,2.2729287593392655e-05,8.925986185204238e-05
2.6805742891156115e-05,5.326196514943149e-06,3.3329160942230374e-05,3.095572901656851e-05,1.4484910025203135e-05,9.160324407275766e-05
2.639851300045848e-05,-2.2040945623302832e-05,3.261613892391324e-05,2.4738479623920284e-05,5.933383818046423e-06,0.00010224730067420751
2.8667225706158206e-05,-3.5327760997461155e-05,3.3082407753681764e-05,2.3026235794532113e-05,-5.521027333088568e-07,0.00012893554230686277
2.8630438464460894e-05,-3.86279025406111e-05,3.230505171814002e-05,2.4817809389787726e-05,-4.870512384513859e-06,0.000156002352014184
2.4007931642699987e-05,-3.46138549502939e-05,3.0574512493330985e-05,2.425481034151744e-05,-6.7573664637166075e-06,0.00016764133761171252
2.1132276742719114e-05,-3.106667281826958e-05,3.04302666336298e-05,2.1488047423190437e-05,-7.500937044824241e-06,0.0001619054819457233
2.3681188395130448e-05,-3.140889384667389e-05,3.483605178189464e-05,2.121495890605729e-05,-8.607332347310148e-06,0.00014431000454351306
3.016890877916012e-05,-3.767207090277225e-05,4.122121026739478e-05,2.602422500785906e-05,-9.512640644970816e-06,0.0001241082209162414
3.5766162909567356e-05,-4.862706919084303e-05,4.081902443431318e-05,3.4819957363652065e-05,-8.193089342967141e-06,0.00011161113798152655
3.8282600144157186e-05,-6.444617611123249e-05,3.462487075012177e-05,4.311368320486508e-05,-7.69427242630627e-06,0.00010562745592324063
4.142260513617657e-05,-7.867260865168646e-05,2.777519512164872e-05,4.1206883906852454e-05,-1.0188043233938515e-05,0.00010153063340112567
4.103874016436748e-05,-7.911958527984098e-05,2.316289464943111e-05,2.913556272687856e-05,-1.1402063137211371e-05,9.832592331804335e-05
3.340698458487168e-05,-6.4156498410739e-05,2.15749296330614e-05,1.6872259948286228e-05,-9.309400411439128e-06,9.295684867538512e-05
2.511511047487147e-05,-4.0007093048188835e-05,1.7645857951720245e-05,8.665308996569365e-06,-6.785840923839714e-06,7.88450997788459e-05
2.442560435156338e-05,-7.9157453001244e-06,8.98039979801979e-06,3.519048732414376e-06,-6.627903530898038e-06,6.317481893347576e-05
2.948508881672751e-05,1.4565961464541033e-05,1.9897941001545405e-06,4.03400554205291e-06,-7.0418041104858276e-06,5.4162275773705915e-05
3.2949985325103626e-05,-4.163013272773242e-06,3.730936214196845e-06,1.1660582458716817e-05,-6.8395356720429845e-06,4.2914838559227064e-05
3.194821692886762e-05,-4.176802758593112e-05,1.2238966519362293e-05,1.8712908058660105e-05,-7.75068565417314e-06,1.5853125660214573e-05
3.20395702146925e-05,-3.899713556165807e-05,2.3563301510876045e-05,1.997092113015242e-05,-1.1721043847501278e-05,-1.9417007933952846e-05
3.0495677492581308e-05,-1.6980739019345492e-05,3.914740227628499e-05,1.5880550563451834e-05,-1.560088639962487e-05,-3.780960469157435e-05
1.558858093630988e-05,-4.4716536649502814e-05,5.779569619335234e-05,8.680559403728694e-06,-1.8940118025057018e-05,-3.0224397050915286e-05
-4.999000339012127e-06,-0.00010145897249458358,7.258469122461975e-05,3.716832679856452e-06,-2.271359335281886e-05,-8.780378266237676e-06
-1.3746813237958122e-05,-0.0001290162472287193,7.903738151071593e-05,4.829185854759999e-06,-2.42711539613083e-05,1.154356596089201e-05
-9.7191114036832e-06,-0.00011919203825527802,7.490345160476863e-05,8.096837518678512e-06,-2.3917700673337094e-05,1.4596459550375585e-05
2.6369667693870724e-07,-9.657185728428885e-05,6.122748891357332e-05,1.3202908121456858e-05,-2.5670520699350163e-05,-3.3557216738699935e-06
1.724700086924713e-05,-7.931054278742522e-05,4.352640098659322e-05,2.6096440706169233e-05,-2.973720256704837e-05,-1.1146298675157595e-05
3.279291559010744e-05,-6.843030132586136e-05,3.119545726804063e-05,4.2814139305846766e-05,-2.741956996032968e-05,2.29467150347773e-05
2.9752856789855286e-05,-4.620691106538288e-05,3.0003313440829515e-05,5.132660589879379e-05,-2.001231405301951e-05,8.097640966298059e-05
2.6068470106110908e-05,-1.3924463019066025e-05,2.8874717827420682e-05,5.199759470997378e-05,-1.5487086784560233e-05,0.00010562431998550892
3.904863115167245e-05,4.3391037252149545e-06,2.3133581635192968e-05,6.122467311797664e-05,-1.4306945558928419e-05,0.00010007106902776286
4.331365926191211e-05,-2.881671207433101e-06,1.9094861272606067e-05,7.795817509759218e-05,-1.135048114520032e-05,0.00010727138578658924
2.7411218979978003e-05,-3.578136602300219e-05,1.927147059177514e-05,8.419012010563165e-05,-8.27100666356273e-06,0.00012783872080035508
1.1112331776530482e-05,-7.204562280094251e-05,2.5446417566854507e-05,7.835272117517889e-05,-5.5187497309816536e-06,0.00014195189578458667
2.7818166472570738e-06,-7.31188920326531e-05,3.1050243705976754e-05,6.854877574369311e-05,-5.823865649290383e-06,0.00013592193135991693
1.3615454008686356e-06,-5.075258741271682e-05,3.8350473914761096e-05,6.145849329186603e-05,-9.215533282258548e-06,0.00011486643052194268
9.94732999970438e-07,-4.7037196054589e-05,4.565898052533157e-05,5.898702875128947e-05,-9.721416972752195e-06,8.61282751429826e-05
-2.8613269478228176e-06,-6.337005470413715e-05,4.8400637751910836e-05,5.622986645903438e-05,-8.044419701036531e-06,4.852358688367531e-05
-7.605618975503603e-06,-7.435883890138939e-05,4.5226101065054536e-05,5.086757300887257e-05,-3.8248890632530674e-06,1.5632836948498152e-05
-8.828816135064699e-06,-7.049306441331282e-05,4.002340938313864e-05,4.9289039452560246e-05,-4.72620627078868e-07,8.973764124675654e-06
-4.0907780203269795e-06,-6.382988067343831e-05,3.493712574709207e-05,5.367649646359496e-05,-5.697089591194526e-07,2.8220771127962507e-05
3.966221356677124e-06,-6.12455332884565e-05,2.9911094316048548e-05,5.569382483372465e-05,-7.5421166911837645e-06,5.663252522936091e-05
1.0370190466346685e-05,-5.7219600421376526e-05,2.5287439711974002e-05,4.762150638271123e-05,-1.871183849289082e-05,8.07681935839355e-05
1.135446200350998e-05,-4.8879544920055196e-05,2.0647885321523063e-05,3.3899133995873854e-05,-3.082984403590672e-05,9.025115286931396e-05
1.1553324839042034e-05,-3.988310709246434e-05,1.9243900169385597e-05,2.4645496523589827e-05,-4.406391963129863e-05,8.145519677782431e-05
1.8358643501414917e-05,-3.430157812545076e-05,2.1489122445927933e-05,2.3380014681606553e-05,-5.579913704423234e-05,6.260848749661818e-05
3.0673807486891747e-05,-3.3391752367606387e-05,2.5154498871415854e-05,2.8255872166482732e-05,-6.261340604396537e-05,4.28626844950486e-05
3.6257504689274356e-05,-3.423937960178591e-05,2.6181374778389e-05,3.3101408916991204e-05,-6.621037027798593e-05,2.97739989036927e-05
3.0964980396674946e-05,-3.702645699377172e-05,2.625363413244486e-05,2.8234144338057376e-05,-6.548551755258814e-05,2.565892100392375e-05
2.009707168326713e-05,-4.4354284909786656e-05,2.4345559722860344e-05,1.3064171980659012e-05,-5.819802390760742e-05,2.7508816856425256e-05
1.234042429132387e-05,-5.2400231652427465e-05,2.1092750102980062e-05,-4.878498657490127e-06,-4.3645100959111005e-05,3.820304846158251e-05
1.4573691260011401e-05,-5.715319639421068e-05,1.840151526266709e-05,-1.4891752471157815e-05,-1.7925287465914153e-05,5.457762745209038e-05
2.0632456653402187e-05,-6.107966328272596e-05,1.7951282643480226e-05,-7.649739018233959e-06,1.3437452253128868e-05,6.38757337583229e-05
1.9094726667390205e-05,-6.391973874997348e-05,2.295838203281164e-05,8.437709766440094e-06,4.086940680281259e-05,6.370576738845557e-05
1.5057700693432707e-05,-6.055374979041517e-05,2.6874602554016747e-05,1.5718820577603765e-05,6.107396620791405e-05,6.580871558981016e-05
2.6478988729650155e-05,-5.272039561532438e-05,2.5121913495240733e-05,7.1972103796724696e-06,6.775287329219282e-05,7.145151175791398e-05
4.980218727723695e-05,-4.9066806241171435e-05,2.313480399607215e-05,-1.8540808923717123e-06,6.12101357546635e-05,6.905122427269816e-05
6.788575410610065e-05,-4.987456850358285e-05,2.1647969333571382e-05,-5.580751803790918e-06,4.997728319722228e-05,5.897103255847469e-05
6.847265467513353e-05,-4.93456500407774e-05,2.1532647224375978e-05,-5.91478146816371e-06,3.7698329833801836e-05,4.484209057409316e-05
5.101511487737298e-05,-4.4857260945718735e-05,2.2581854864256456e-05,-2.486938228685176e-06,2.5575889594620094e-05,3.9376202039420605e-05
2.6113253625226207e-05,-3.659777212305926e-05,2.806284828693606e-05,2.7997650704492116e-06,1.5308727597584948e-05,4.547533899312839e-05
1.0430844668007921e-05,-2.418325857433956e-05,3.088745506829582e-05,1.054973472491838e-05,8.863952643878292e-06,5.5631131544942036e-05
1.3652765119331889e-05,-1.3468748875311576e-05,2.6281892132828943e-05,1.7427955754101276e-05,2.7847775072586956e-06,6.693022442050278e-05
2.6885891202255152e-05,-1.1076979717472568e-05,1.793720366549678e-05,2.3616623366251588e-05,2.892035126933479e-07,6.856225081719458e-05
4.2243918869644403e-05,-3.579290569177829e-05,1.1792069017246831e-05,2.6226260160910897e-05,-2.1732819277531235e-07,6.648991256952286e-05
5.1106326282024384e-05,-6.184240919537842e-05,8.043189154705033e-06,2.447191764076706e-05,-1.1545392908374197e-06,7.420654583256692e-05
5.162853267393075e-05,-3.258193100919016e-05,8.530371815140825e-06,2.1334666598704644e-05,-4.462027845875127e-06,8.81130836205557e-05
5.519148544408381e-05,2.0176265024929307e-05,1.6101523215183988e-05,2.119791679433547e-05,-6.426053914765362e-06,9.238206985173747e-05
6.988704990362749e-05,1.7892078176373616e-05,2.9855731554562226e-05,2.551721627241932e-05,-4.6332861529663205e-06,8.471754699712619e-05
8.066040754783899e-05,-4.756193811772391e-05,4.843523493036628e-05,3.244382969569415e-05,-4.314883881306741e-06,7.527066190959886e-05
7.233655196614563e-05,-0.00011428476864239201,6.096477954997681e-05,3.7437330320244655e-05,-9.662737284088507e-06,6.370458868332207e-05
4.93643237859942e-05,-0.00012596466694958508,6.103253326728009e-05,3.849463246297091e-05,-1.714210884529166e-05,4.161739343544468e-05
2.8941361961187795e-05,-7.438611646648496e-05,5.582785888691433e-05,4.001983324997127e-05,-1.9204382624593563e-05,2.4726723495405167e-05
2.4890012355172075e-05,-8.571256330469623e-06,5.683891140506603e-05,4.6922585170250386e-05,-1.586054168001283e-05,3.793199357460253e-05
3.174997982569039e-05,1.929387690324802e-05,5.891032924409956e-05,5.79947663936764e-05,-1.3283150110510178e-05,6.989845860516652e-05
3.525267311488278e-05,5.913665063417284e-06,5.230734313954599e-05,6.701039092149585e-05,-1.6138870705617592e-05,9.262128878617659e-05
3.075665881624445e-05,-1.9541139408829622e-05,3.82509060727898e-05,6.961070175748318e-05,-2.0281873730709776e-05,9.608164691599086e-05
2.3070508177625015e-05,-4.232663559378125e-05,3.229292997275479e-05,6.660848157480359e-05,-2.472169217071496e-05,8.584561146562919e-05
1.709512434899807e-05,-6.777967792004347e-05,3.932386607630178e-05,6.723637488903478e-05,-2.7362922992324457e-05,7.241755520226434e-05
1.3213139936851803e-05,-8.722796337679029e-05,4.580703898682259e-05,6.846517499070615e-05,-2.4584429411333986e-05,5.876513023395091e-05
7.996574822755065e-06,-8.764393714955077e-05,4.3033047404605895e-05,5.7584227761253715e-05,-1.7575455785845406e-05,4.220157643430866e-05
7.4872236837109085e-06,-6.337711965898052e-05,3.424977694521658e-05,4.299163265386596e-05,-1.7021333405864425e-05,2.7834252250613645e-05
1.676612919254694e-05,-1.0580096386547666e-05,2.2147303752717562e-05,2.870987736969255e-05,-1.8099079170497134e-05,2.906521149270702e-05
2.588846291473601e-05,3.420332359382883e-05,1.321457966696471e-05,1.1420673217799049e-05,-1.4600328540836927e-05,4.522236486081965e-05
2.6984371288563125e-05,2.5568560886313207e-05,1.0499539712327532e-05,3.2315099360857857e-06,-9.855513781076297e-06,5.794466414954513e-05
3.0217408493626863e-05,-4.475478999665938e-05,1.4415887562790886e-05,6.261694579734467e-06,-5.679279638570733e-06,7.129299046937376e-05
4.061415893374942e-05,-0.00011489888129290193,2.176875750592444e-05,1.0032674254034646e-05,-4.0884269765228964e-06,9.701699309516698e-05
4.569976226775907e-05,-0.00011007081775460392,2.8564098101924174e-05,7.786504284013063e-06,-1.1544029803189915e-06,0.00012387630704324692
3.5013021260965616e-05,-6.35937976767309e-05,3.586648381315172e-05,3.415070750634186e-06,-4.149681842591235e-08,0.00013873883290216327
1.957005588337779e-05,-4.682719008997083e-05,4.611949043464847e-05,1.5142425127123715e-06,-2.9268151138239773e-06,0.00014296690642368048
7.1423260123992804e-06,-6.829305493738502e-05,5.38956664968282e-05,-6.866523563076044e-07,-9.182151188724674e-06,0.00012885364412795752
-6.729079586875741e-07,-8.884580893209204e-05,5.361810326576233e-05,-5.449809123092564e-06,-1.7170186765724793e-05,9.488644718658179e-05
-3.421663677727338e-06,-8.135327516356483e-05,5.103252988192253e-05,-1.704964233795181e-06,-1.857606002886314e-05,5.5314543715212494e-05
-1.0879080747372427e-07,-5.033790512243286e-05,4.837133747059852e-05,1.3219394531915896e-05,-1.3408683116722386e-05,2.4626802769489586e-05
4.227330009598518e-06,-2.2137170162750408e-05,4.491353320190683e-05,3.04618679365376e-05,-9.581601261743344e-06,4.357076250016689e-06
5.655002041748958e-06,-2.253496495541185e-05,4.137420910410583e-05,4.0891569369705394e-05,-1.1198440006410237e-05,-1.7720220057526603e-05
6.284877599682659e-06,-7.388246740447357e-05,3.87850814149715e-05,4.390364119899459e-05,-1.612152118468657e-05,-5.049880564911291e-05
6.701326128677465e-06,-0.00015618401812389493,3.7144658563192934e-05,4.650882328860462e-05,-2.2136402549222112e-05,-8.266236545750871e-05
5.776343186880695e-06,-0.00019159875228069723,3.896404450642876e-05,5.1089151384076104e-05,-2.5962335712392814e-05,-9.622061043046415e-05
3.1338677217718214e-06,-0.00014376064063981175,4.510128201218322e-05,5.642276300932281e-05,-2.5672337869764306e-05,-9.309636516263708e-05
1.0495700735191349e-06,-7.095318869687617e-05,4.96119428134989e-05,5.707176751457155e-05,-2.6594412702252157e-05,-8.669903763802722e-05
1.8325279427244823e-07,-3.323171040392481e-05,4.49039252998773e-05,4.90052807435859e-05,-3.234616087866016e-05,-6.989676330704242e-05
7.969545094965724e-07,-1.9919862097594887e-05,3.529917012201622e-05,4.1049443098017946e-05,-3.5357268643565476e-05,-2.128737287421245e-05
1.6867668364284327e-06,-4.527880264504347e-06,2.9780048862448893e-05,4.6199453208828345e-05,-3.161237691529095e-05,4.63568139821291e-05
1.228158453159267e-06,6.559027383445937e-07,2.9040093068033457e-05,5.838906508870423e-05,-2.5015366190928034e-05,9.391620551468804e-05
-4.334820005169604e-06,-1.9543500457075424e-05,2.9863205782021396e-05,6.663062958978117e-05,-2.0277799194445834e-05,0.00010330347140552476
-1.0149030458705965e-05,-4.324714609538205e-05,3.109966201009229e-05,6.702509563183412e-05,-2.320529347343836e-05,9.311134635936469e-05
-5.632640750263818e-06,-5.146656258148141e-05,3.0077015253482386e-05,5.943956784904003e-05,-2.7177240554010496e-05,9.195337042910978e-05
1.5085363884281833e-05,-5.299478652887046e-05,2.7982818210148253e-05,4.748927312903106e-05,-2.404992665105965e-05,0.00010592088074190542
2.7151130780112e-05,-5.4251366236712784e-05,2.6103320124093443e-05,3.4617951314430684e-05,-2.0539640900096856e-05,0.00011251273099333048
1.8884917153627612e-05,-5.252535265753977e-05,2.464177305228077e-05,1.732615965011064e-05,-2.0801096979994327e-05,0.00010609813762130216
9.468516509514302e-06,-5.158706335350871e-05,2.270357981615234e-05,5.164333742868621e-06,-1.9524160961736925e-05,9.343527926830575e-05
-1.6824520798763842e-06,-4.73757681902498e-05,2.195050365116913e-05,6.3189686443365645e-06,-1.4096564882493112e-05,8.54123936733231e-05
-1.3905643754696939e-05,-4.162114055361599e-05,2.1158763047424145e-05,9.38214816414984e-06,-7.308994099730626e-06,8.08129771030508e-05
-1.4734237083757762e-05,-4.265947427484207e-05,1.5299170627258718e-05,8.492606866639107e-06,-5.353591404855251e-06,6.491068779723719e-05
-7.568091859866399e-06,-5.34174578206148e-05,1.0079452295030933e-05,4.8597030399832875e-06,-8.015293133212253e-06,3.6262135836295784e-05
-3.3348868555549416e-08,-6.197120092110708e-05,7.292419468285516e-06,-2.6894340408034623e-06,-1.296890877711121e-05,-4.738410552818095e-06
3.5583948374551255e-06,-4.503230229602195e-05,5.5260038607229944e-06,-1.101663292502053e-05,-1.869075458671432e-05,-4.771792737301439e-05
1.1239753803238273e-05,-2.3005372895568144e-06,8.318914296978619e-06,-1.256107134395279e-05,-1.8700997316045687e-05,-5.537170363822952e-05
3.4443473850842565e-05,3.205551183782518e-05,1.5618335964973085e-05,-2.5728566015459364e-06,-1.1679736417136155e-05,-7.655091394553892e-06
6.23708765488118e-05,2.727206447161734e-05,2.4617895178380422e-05,1.4053366612643003e-05,-3.412254955037497e-06,5.9406502259662375e-05
7.19820091035217e-05,-9.815988050831947e-06,3.555050352588296e-05,2.8294502044445835e-05,2.832985046552494e-06,0.00010738179844338447
6.343976565403864e-05,-5.325736856320873e-05,4.420736149768345e-05,3.234586984035559e-05,4.988130058336537e-06,0.00012726672866847366
5.505626177182421e-05,-8.113423973554745e-05,4.2715517338365316e-05,2.9146198357921094e-05,5.194960976950824e-06,0.0001366013166261837
5.0527632993180305e-05,-8.46009497763589e-05,3.2658263080520555e-05,2.861259963538032e-05,5.226973371463828e-06,0.0001467918191337958
4.279140193830244e-05,-7.435981387970969e-05,2.460016548866406e-05,3.509189991746098e-05,4.6368027142307255e-06,0.00013964922982268035
3.265549457864836e-05,-6.667780689895153e-05,2.40364097408019e-05,4.613232522387989e-05,3.548261020114296e-06,9.701320232124999e-05
2.5202314645866863e-05,-6.273973122006282e-05,2.859398773580324e-05,5.1448620070004836e-05,3.860836841340642e-06,4.399189856485464e-05
1.988040457945317e-05,-5.9893027355428785e-05,3.370856575202197e-05,4.5310564019018784e-05,6.473363555414835e-06,2.3557349777547643e-05
1.4357836334966123e-05,-5.850334127899259e-05,3.5320645110914484e-05,3.531804759404622e-05,7.14714769856073e-06,4.164392885286361e-05
8.808588063402567e-06,-5.6661636335775256e-05,3.540116085787304e-05,3.070765160373412e-05,3.9661285882175434e-06,6.631384167121723e-05
6.74622560836724e-06,-5.240739119471982e-05,3.629941784311086e-05,3.0329867513501085e-05,8.134192341913149e-08,7.331433880608529e-05
8.84834662429057e-06,-5.1604383770609275e-05,3.4743727155728266e-05,2.7899493943550624e-05,-2.8075437512598e-06,7.14527050149627e-05
1.655242158449255e-05,-5.40193505003117e-05,3.075518907280639e-05,2.623512045829557e-05,-3.2521957109565847e-06,7.590008317492902e-05
2.758863593044225e-05,-5.376692206482403e-05,2.9125658329576254e-05,2.6761306799016893e-05,-3.4443423828633968e-06,9.081640746444464e-05
4.1398594476049766e-05,-5.6242210121126845e-05,3.042035677935928e-05,2.74679023277713e-05,-7.472814331777045e-07,0.0001062228693626821
5.557341137318872e-05,-6.323775596683845e-05,3.342447234899737e-05,3.123296482954174e-05,2.8446090709621785e-06,0.00010949006536975503
5.674683416145854e-05,-6.724976265104488e-05,3.658114292193204e-05,3.250063309678808e-05,-1.5285892231986509e-06,0.00010657001257641241
4.475450987229124e-05,-6.512960680993274e-05,3.649139034678228e-05,2.870446041924879e-05,-7.279119017766789e-06,0.00010928913252428174
4.144118065596558e-05,-6.127329834271222e-05,3.34360811393708e-05,2.3669712390983477e-05,-6.7067271629639436e-06,0.00011993871157756075
4.2923667933791876e-05,-5.7963388826465234e-05,3.1899304303806275e-05,2.208841215178836e-05,-1.7556301372678718e-06,0.00013339926954358816
3.6907087633153424e-05,-5.156257248017937e-05,3.468349314061925e-05,1.821822479541879e-05,-1.7788557897802093e-06,0.00013959070201963186
3.054525950574316e-05,-4.118569995625876e-05,3.608400947996415e-05,7.613311481691198e-06,-4.604753939929651e-06,0.00013386161299422383
3.4447177313268185e-05,-2.846551979018841e-05,3.274793198215775e-05,-7.105379609129159e-06,-6.168806066852994e-06,0.00012166476517450064
4.7585715947207063e-05,-1.7456457499065436e-05,2.6000154321081936e-05,-1.7657494026934728e-05,-8.095696102827787e-06,0.00011381839431123808
5.359283022698946e-05,-1.3551935808209237e-05,1.831406552810222e-05,-1.7524836948723532e-05,-1.0394768651167396e-05,0.00010556061897659674
4.4324027840048075e-05,-1.8045524484477937e-05,1.663068906054832e-05,-3.640856220954447e-06,-1.0376277714385651e-05,8.964089647633955e-05
2.6733032427728176e-05,-3.391665086383e-05,2.3438025891664438e-05,2.2326030375552364e-05,-9.400117960467469e-06,6.425607716664672e-05
1.7297814338235185e-05,-5.9444468206493184e-05,3.486892455839552e-05,4.9628109991317615e-05,-9.238333404937293e-06,3.517465302138589e-05
1.693372178124264e-05,-8.134583185892552e-05,4.3818861740874127e-05,6.641486834269017e-05,-1.0882266906264704e-05,9.658389899414033e-06
1.67970410984708e-05,-8.792636799626052e-05,4.487087790039368e-05,6.92714165779762e-05,-1.2568431884574238e-05,-7.239654223667458e-06
1.4580784409190528e-05,-8.342797082150355e-05,4.290680953999981e-05,6.984195351833478e-05,-8.275565960502718e-06,-9.091651918424759e-06
1.3212403246143367e-05,-7.836321310605854e-05,4.901112333755009e-05,7.517062476836145e-05,-4.235600385982252e-07,2.030326129442983e-07
1.2417730431479868e-05,-7.200795516837388e-05,5.9979691286571324e-05,8.166535553755239e-05,1.9933434032282094e-06,9.93769117485499e-06
1.1695712601067498e-05,-5.981811773381196e-05,5.696895095752552e-05,7.499743514927104e-05,-2.65860467152379e-06,1.841443736338988e-05
1.2788085768988822e-05,-4.817787339561619e-05,3.436533370404504e-05,5.086375676910393e-05,-6.765264515706804e-06,3.228185960324481e-05
1.3767541531706229e-05,-4.3911993998335674e-05,8.749740118219052e-06,2.595901969471015e-05,-9.693202628113795e-06,3.770408875425346e-05
1.0377208127465565e-05,-3.954316343879327e-05,-4.8318415792891756e-06,1.0235396075586323e-05,-1.5278505088645034e-05,1.9172091924701817e-05
3.214909611415351e-06,-2.8344724341877736e-05,-8.813317435851786e-06,3.2617294891679194e-06,-2.4335911803063937e-05,-8.295197403640486e-06
3.516865035635419e-06,-8.726596206543036e-06,-8.459244781988673e-06,9.395597771799657e-06,-3.0245428206399083e-05,-1.6207537555601448e-05
1.5768233424751088e-05,2.8680251489276998e-05,-3.2256975828204304e-06,2.3332711862167343e-05,-3.166275200783275e-05,3.1652739380660933e-06
2.8577795092132874e-05,3.0552360840374604e-05,8.701203114469536e-06,3.267572174081579e-05,-2.9898485081503168e-05,3.5338405723450705e-05
2.5429848392377608e-05,-5.5301068641711026e-05,3.1041548936627805e-05,3.597067916416563e-05,-2.7233227228862233e-05,6.081292303861119e-05
1.0667312380974181e-05,-0.00011933609494008124,5.667028744937852e-05,3.565655060810968e-05,-2.3831697035348043e-05,6.569999823113903e-05
6.915632184245624e-06,-8.986586180981249e-05,7.488108531106263e-05,3.149644908262417e-05,-1.637015157029964e-05,5.7879613450495526e-05
1.071981660061283e-05,-4.545131741906516e-05,7.788551738485694e-05,2.301335916854441e-05,-1.0024352377513424e-05,5.5098073062254116e-05
8.039249223656952e-06,-4.1756491555133834e-05,6.31865332252346e-05,1.6160151062649675e-05,-1.1610163710429333e-05,5.544722807826474e-05
6.1009873206785414e-06,-6.224866956472397e-05,4.3890951928915456e-05,1.817363408918027e-05,-1.715655525913462e-05,4.7338711738120764e-05
1.1312164133414626e-05,-8.240310853580013e-05,3.636738983914256e-05,2.4207118258345872e-05,-1.853246612881776e-05,3.786454544751905e-05
1.9671095287776552e-05,-9.831101488089189e-05,4.00321077904664e-05,3.193575321347453e-05,-1.3930851309851278e-05,4.475811874726787e-05
2.6681851522880606e-05,-0.00010305521573172882,4.204808283247985e-05,3.476798883639276e-05,-9.28263852983946e-06,5.658845111611299e-05
3.1668074370827526e-05,-9.778567618923262e-05,4.073974923812784e-05,3.630958963185549e-05,-9.279680853069294e-06,6.0766582464566454e-05
3.1425573979504406e-05,-7.390419341390952e-05,3.7593905290123075e-05,4.129055014345795e-05,-1.5655123206670396e-05,7.095526234479621e-05
1.5502759197261184e-05,-2.9473454560502432e-05,2.6804973458638415e-05,4.148135121795349e-05,-3.267221472924575e-05,8.396166958846152e-05
-1.028084079734981e-05,9.18562727747485e-06,1.0019329238275532e-05,3.185391324223019e-05,-5.457498991745524e-05,7.923544035293162e-05
-1.7612415831536055e-05,6.388078418240184e-06,-2.6647096547094407e-06,1.8274107787874527e-05,-6.960199243621901e-05,5.61132728762459e-05
-6.848466682640719e-07,-5.068702739663422e-05,-7.791471034579445e-06,1.2317306754994206e-05,-7.127605204004794e-05,2.8102529540774412e-05
1.65019173437031e-05,-9.997756569646299e-05,-5.326405243977206e-06,1.3394029338087421e-05,-6.33947565802373e-05,1.2293004147068132e-05
1.3399480849329848e-05,-8.020758832572028e-05,6.242254130484071e-06,1.808882734621875e-05,-4.8045443691080436e-05,1.9994751710328273e-05
-1.4228146483219462e-06,-4.168248415226117e-05,2.7332343961461447e-05,2.3213433451019228e-05,-2.613887409097515e-05,4.0497983718523756e-05
-7.730964171059895e-06,-5.240341124590486e-05,5.207919457461685e-05,2.849826341844164e-05,-3.726111572177615e-06,5.6775581469992176e-05
1.109781806007959e-06,-8.96689816727303e-05,6.838039553258568e-05,2.8493941499618813e-05,1.2434679774742108e-05,6.560347537742928e-05
1.730354779283516e-05,-0.0001030658750096336,6.76794588798657e-05,2.240317189716734e-05,2.2104679374024272e-05,7.080584327923134e-05
2.881666114262771e-05,-8.743082435103133e-05,5.5259726650547236e-05,1.5467358025489375e-05,3.154416845063679e-05,7.203665882116184e-05
3.149575422867201e-05,-6.723808473907411e-05,4.226696546538733e-05,1.742580752761569e-05,3.9764818211551756e-05,7.161288522183895e-05
2.8915314032929018e-05,-5.661023169523105e-05,3.583385841920972e-05,2.7417421733844094e-05,4.057399564771913e-05,6.985552317928523e-05
2.5359830033266917e-05,-5.7545999879948795e-05,3.5238022974226624e-05,3.1166728149401024e-05,3.391512655070983e-05,6.966450018808246e-05
2.4342127289855853e-05,-5.715672523365356e-05,3.737892984645441e-05,2.3316988517763093e-05,2.789642348943744e-05,7.464055670425296e-05
2.434140333207324e-05,-4.701377110905014e-05,3.996586019638926e-05,1.1801889741036575e-05,2.533198130549863e-05,8.098703983705491e-05
2.2008784071658738e-05,-2.473256790835876e-05,3.7640100345015526e-05,9.889132343232632e-06,2.218084227934014e-05,8.177651761798188e-05
2.0283141566324048e-05,5.7428237596468534e-06,3.38971585733816e-05,1.636988963582553e-05,2.095599120366387e-05,7.637361704837531e-05
2.3002710804576054e-05,2.244611459900625e-05,3.130239201709628e-05,2.2304797312244773e-05,2.0541790945571847e-05,7.455559534719214e-05
3.3971020457101986e-05,1.4992708202044014e-05,2.7406735171098262e-05,2.905608926084824e-05,1.579385389050003e-05,7.614382047904655e-05
4.474275920074433e-05,-1.0359800398873631e-05,2.7229707484366372e-05,3.7122317735338584e-05,1.2780482393282e-05,8.544429874746129e-05
4.634952711057849e-05,-4.290323340683244e-05,3.521608596201986e-05,4.2988704080926254e-05,8.484207683068234e-06,0.0001052314109983854
4.022182838525623e-05,-6.899198342580348e-05,4.5987599150976166e-05,4.557124339044094e-05,-4.374034858756204e-07,0.00012693087046500295
3.573979120119475e-05,-7.803738117218018e-05,5.180398147786036e-05,4.7247307520592585e-05,-1.233600687555736e-05,0.000140064672450535
3.704355185618624e-05,-7.672113861190155e-05,4.8773545131552964e-05,5.136672189109959e-05,-2.5313051082775928e-05,0.00013608348672278225
3.31228511640802e-05,-7.092270243447274e-05,3.9803260733606294e-05,5.1582203013822436e-05,-3.919231312465854e-05,0.00011434187763370574
2.5839639420155436e-05,-6.106564251240343e-05,3.216292316210456e-05,4.294172322261147e-05,-5.7085919252131134e-05,7.51485931687057e-05
3.1747433240525424e-05,-4.444473597686738e-05,3.0243936635088176e-05,3.508588997647166e-05,-6.965784268686548e-05,3.037439819308929e-05
4.8403915570816025e-05,-2.051388582913205e-05,3.309522435301915e-05,3.345439108670689e-05,-7.174576603574678e-05,5.360428076528478e-06
5.37748564966023e-05,-7.920358257251792e-06,3.772401760215871e-05,3.3367650758009404e-05,-6.539226160384715e-05,1.5080849152582232e-05
4.294431710150093e-05,-3.224710962967947e-05,3.660108632175252e-05,3.217793346266262e-05,-5.0079495849786326e-05,4.118268407182768e-05
3.2847648981260136e-05,-8.012155012693256e-05,2.7443198632681742e-05,2.850560485967435e-05,-2.376126758463215e-05,6.12590738455765e-05
3.323385681142099e-05,-7.09770611138083e-05,1.6957610569079407e-05,2.4147608201019466e-05,1.152442109741969e-05,8.023566624615341e-05
3.94677699659951e-05,3.3208409149665385e-05,7.813626325514633e-06,2.086252425215207e-05,4.916455873171799e-05,0.00011222984176129103
4.633804564946331e-05,0.00013217367813922465,-2.923249667219352e-06,1.711864570097532e-05,8.013048500288278e-05,0.0001523068203823641
5.339448034646921e-05,9.864712774287909e-05,-1.4934083083062433e-05,8.744754268263932e-06,9.639283234719187e-05,0.00019577059720177203
6.048976138117723e-05,-5.453766425489448e-05,-2.4746903363848105e-05,-5.713049631594913e-06,9.475755359744653e-05,0.0002502704446669668
6.143787322798744e-05,-0.00016045414668042213,-2.7622254492598586e-05,-1.8615382941788994e-05,7.764955807942897e-05,0.00029705907218158245
4.731603985419497e-05,-9.414382657269016e-05,-1.3445462172967382e-05,-2.0024219338665716e-05,5.622848402708769e-05,0.0002981294528581202
1.9633453121059574e-05,2.695496914384421e-05,2.2619806259172037e-05,-1.6570738807786256e-05,3.841377474600449e-05,0.0002426736755296588
-5.643093572871294e-06,2.444944402668625e-05,6.406587635865435e-05,-1.952965794771444e-05,2.1064366592327133e-05,0.0001443252549506724
-1.1067430023103952e-05,-7.009659748291597e-05,8.99341466720216e-05,-1.6681380657246336e-05,7.2811740210454445e-06,1.750112460285891e-05
1.4287284955116775e-07,-0.00012448415509425104,9.778981620911509e-05,6.5114722929138225e-06,2.171587311750045e-06,-0.0001154321143985726
1.4708278285979759e-05,-0.00010684619337553158,8.640761370770633e-05,3.4499600587878376e-05,-1.564491185490624e-06,-0.00022831273963674903
2.0838348063989542e-05,-7.420214387821034e-05,6.785054574720562e-05,4.9360041884938255e-05,-5.438053449324798e-06,-0.0002696216688491404
1.662109571043402e-05,-6.318593659671023e-05,5.07220538565889e-05,5.467755181598477e-05,-1.0320795809093397e-05,-0.0002352112060179934
1.1856952369271312e-05,-6.708011642331257e-05,3.7254500057315454e-05,5.434151898953132e-05,-2.1873087462154217e-05,-0.00018712553719524294
8.978768164524809e-06,-6.654561002505943e-05,3.279330849181861e-05,5.557418262469582e-05,-3.6795467167394236e-05,-0.00015754457854200155
6.4173714235948864e-06,-5.765016976511106e-05,3.472551179584116e-05,6.240429502213374e-05,-4.630495823221281e-05,-0.00014404668763745576
2.2481353880721144e-06,-5.2557908929884434e-05,4.097586861462332e-05,7.383635966107249e-05,-4.847949094255455e-05,-0.0001256701216334477
-4.44760416939971e-06,-5.5086817155824974e-05,4.520731090451591e-05,8.700759644852951e-05,-5.1243761845398694e-05,-9.333204798167571e-05
-8.685181455803104e-06,-6.364957516780123e-05,4.4413427531253546e-05,9.40711033763364e-05,-5.695104846381582e-05,-4.046824687975459e-05
-7.976979759405367e-06,-7.128436845960096e-05,3.83137448807247e-05,0.00010001585906138644,-6.125854997662827e-05,1.647238968871534e-05
-6.134585419204086e-06,-7.791198004269972e-05,2.8342923542368226e-05,0.00010495976312085986,-6.226498953765258e-05,6.944457709323615e-05
-2.449682369842776e-06,-8.303964568767697e-05,1.2173464710940607e-05,9.60784891503863e-05,-6.123827915871516e-05,0.00011308058310532942
3.262732661823975e-06,-8.344955131178722e-05,-1.658953920014028e-06,6.852480873931199e-05,-5.993899321765639e-05,0.00013670480984728783
7.54654138290789e-06,-7.436779560521245e-05,-4.152698693360435e-06,4.333721153670922e-05,-5.584563405136578e-05,0.00013848903472535312
8.239123417297378e-06,-5.418430737336166e-05,2.9151954095141264e-06,3.201747313141823e-05,-4.657466706703417e-05,0.00011905755673069507
8.609467840869911e-06,-3.371718048583716e-05,8.291175618069246e-06,2.8571002985700034e-05,-3.91120593121741e-05,8.44772148411721e-05
1.3989572835271247e-05,-2.7121928724227473e-05,6.134773684607353e-06,2.724445039348211e-05,-3.879609357682057e-05,4.705209721578285e-05
2.109568777086679e-05,-3.714264676091261e-05,4.335288394941017e-06,2.5514449589536525e-05,-3.973340426455252e-05,3.35191361955367e-05
2.4557819415349513e-05,-4.889633055427112e-05,9.560596481605899e-06,2.1309899238985963e-05,-3.579293115762994e-05,4.680512938648462e-05
2.426636274321936e-05,-5.522042920347303e-05,2.069278525596019e-05,1.48663002619287e-05,-2.8317386750131845e-05,6.6441971284803e-05
2.40418976318324e-05,-6.642937660217285e-05,3.221592851332389e-05,1.5394763977383263e-05,-2.0775283701368608e-05,7.739001011941582e-05
3.0188599339453503e-05,-8.333261939696968e-05,4.099492070963606e-05,2.5242421543225646e-05,-1.282809807889862e-05,8.901797991711646e-05
3.949076199205592e-05,-7.867018575780094e-05,4.353215263108723e-05,3.5898134228773415e-05,-6.824301181040937e-06,9.637232142267749e-05
4.462463402887806e-05,-5.083345968159847e-05,4.1793955460889265e-05,4.130604429519735e-05,-7.94296011008555e-06,9.350512846140191e-05
4.609154348145239e-05,-2.5747058316483162e-05,4.0530656406190246e-05,4.3088974052807316e-05,-1.1974345397902653e-05,8.426255953963846e-05
4.344843910075724e-05,-1.5284924302250147e-05,4.1369010432390496e-05,3.443245077505708e-05,-1.2784783393726684e-05,7.730062498012558e-05
3.6626908695325255e-05,-1.5259729480021633e-05,4.153437112108804e-05,1.6933128790697083e-05,-1.2110425814171322e-05,7.494969031540677e-05
2.728365325310733e-05,-2.2205864297575317e-05,3.797254612436518e-05,-3.350593033246696e-06,-1.1200430890312418e-05,7.82293573138304e-05
2.531265636207536e-05,-3.503070183796808e-05,3.085629941779189e-05,-1.5861596693866886e-05,-7.934463610581588e-06,8.442713442491367e-05
3.3240969059988856e-05,-5.524278458324261e-05,3.124796421616338e-05,-9.09821392269805e-06,-2.002241444643005e-06,8.99245060281828e-05
3.9665010262979195e-05,-7.369818195002154e-05,3.436014230828732e-05,8.554432497476228e-06,4.472963610169245e-06,9.627058898331597e-05
3.97857693315018e-05,-7.743669993942603e-05,3.348475365783088e-05,2.1528490833588876e-05,5.281217454466969e-06,9.51220717979595e-05
3.389637276995927e-05,-7.508909766329452e-05,3.0179093300830573e-05,2.921899977081921e-05,3.796518228682544e-07,8.768845873419195e-05
2.6186486138612963e-05,-6.891907833050936e-05,2.766741454252042e-05,3.646699769888073e-05,-4.488863396545639e-06,7.88925972301513e-05
1.2555942703329492e-05,-5.5233609600691125e-05,2.9616927349707112e-05,3.6883368011331186e-05,-7.3094474828394596e-06,7.396841829176992e-05
-7.501738309656503e-06,-3.159592597512528e-05,3.217993798898533e-05,2.9801552955177613e-05,-6.836574357294012e-06,7.978828944033012e-05
-1.557575524202548e-05,-2.245312089144136e-06,3.639970600488596e-05,2.3913880795589648e-05,-4.272143542038975e-06,8.59699648572132e-05
-2.889540610340191e-06,2.5268142053391784e-05,3.942369221476838e-05,2.2107506083557382e-05,-5.802655209663499e-07,8.734377479413524e-05
1.992578836507164e-05,4.437900133780204e-05,3.717792787938379e-05,2.1345440472941846e-05,2.025576350206393e-06,8.518316462868825e-05
3.822062353719957e-05,4.423292921273969e-05,3.438337444094941e-05,1.7870597730507143e-05,5.276734100334579e-06,7.873553840909153e-05
4.5393746404442936e-05,1.911726576508954e-05,3.62021746695973e-05,1.691503348411061e-05,8.026307114050724e-06,7.781489694025367e-05
4.518819696386345e-05,-2.9735949283349328e-05,3.980310066253878e-05,2.393159957136959e-05,7.270651622093283e-06,8.232978143496439e-05
4.5771470468025655e-05,-8.618224819656461e-05,4.008699397672899e-05,3.3666827221168205e-05,5.386076281865826e-06,8.129011985147372e-05
5.065244477009401e-05,-0.00011810526484623551,3.654111424111761e-05,3.76058196707163e-05,4.432577043189667e-06,7.398691377602518e-05
5.248804882285185e-05,-0.0001084117975551635,3.490103699732572e-05,3.3196451113326475e-05,3.128898242721334e-06,6.962826591916382e-05
4.4381107727531344e-05,-7.920312054920942e-05,3.671946979011409e-05,2.5040964828804135e-05,2.2986249348377896e-07,7.051417196635157e-05
3.239453144487925e-05,-6.0570790083147585e-05,3.791119161178358e-05,1.877705471997615e-05,-3.4457925721653737e-06,7.680699491174892e-05
2.6306675863452256e-05,-5.848383443662897e-05,3.658463174360804e-05,1.724433241179213e-05,-8.42005101731047e-06,8.98828511708416e-05
2.588907773315441e-05,-6.2020611949265e-05,3.452810778981075e-05,2.127257721440401e-05,-1.0725629181251861e-05,0.00010581727110547945
2.41276702581672e-05,-5.993030208628625e-05,3.2603937142994255e-05,2.500635491742287e-05,-8.629844160168432e-06,0.00012032547238050029
1.6982539818855003e-05,-5.3889190894551575e-05,3.17870762955863e-05,2.263295027660206e-05,-5.6321682677662466e-06,0.00014026254939381033
8.995396456157323e-06,-4.79428272228688e-05,3.1482879421673715e-05,2.1632602511090226e-05,-5.489570412464673e-06,0.0001667107717366889
4.688496119342744e-06,-3.341838964843191e-05,2.97853875963483e-05,2.740526178968139e-05,-5.843714461661875e-06,0.0001880050840554759
5.646594217978418e-06,-1.0303330782335252e-05,2.6834653908736072e-05,3.511801696731709e-05,-4.973734576196875e-06,0.0001973398611880839
1.4417560123547446e-05,1.7922744518727995e-05,2.1660816855728626e-05,3.74158589693252e-05,-3.9315546018769965e-06,0.00018484309839550406
2.4607776140328497e-05,4.836754305870272e-05,1.9329609131091274e-05,3.6305726098362356e-05,-4.051431005791528e-06,0.00014445582928601652
2.5649498638813384e-05,5.3379761084215716e-05,1.6725778550608084e-05,2.8004056730424054e-05,-7.5188536357018165e-06,8.88458380359225e-05
2.4035996830207296e-05,1.0467323591001332e-05,7.847816959838383e-06,1.3051706446276512e-05,-1.1570907190616708e-05,2.143828896805644e-05
2.7082091037300415e-05,-6.452789239119738e-05,4.843968326895265e-06,1.180920753540704e-05,-1.2405858797137626e-05,-3.0259689083322883e-05
2.8689135433523916e-05,-0.00013285691966302693,8.389215508941561e-06,3.110447505605407e-05,-8.833542779029813e-06,-4.5169348595663905e-05
2.3698381482972763e-05,-0.00015004505985416472,1.0124558684765361e-05,5.255543874227442e-05,-7.566447493445594e-06,-4.657481622416526e-05
1.6653997590765357e-05,-0.0001261537108803168,9.148430763161741e-06,5.960758790024556e-05,-8.713360330148134e-06,-5.694187348126434e-05
1.419847467332147e-05,-8.259476453531533e-05,9.078020411834586e-06,5.027255610912107e-05,-9.815033081395086e-06,-7.792315591359511e-05
1.561436874908395e-05,-1.5464245734619908e-05,1.774392330844421e-05,3.7071204133098945e-05,-1.320120645686984e-05,-9.137751476373523e-05
1.691496254352387e-05,1.6036499800975434e-05,3.593990550143644e-05,3.60775702574756e-05,-1.6245225197053514e-05,-8.488321327604353e-05
1.2911644262203481e-05,-2.7430794943938963e-05,5.918003444094211e-05,4.19002644775901e-05,-1.7811282305046916e-05,-7.276102405739948e-05
7.03085834174999e-06,-9.70062828855589e-05,7.929910498205572e-05,4.261209687683731e-05,-2.0540275727398694e-05,-8.372653974220157e-05
3.2670886866981164e-06,-0.00013313902309164405,8.78664359333925e-05,3.605719030019827e-05,-2.4039274649112485e-05,-0.0001107457501348108
3.051225348826847e-06,-0.00012983530177734792,8.335067832376808e-05,2.850558485079091e-05,-2.5199120500474237e-05,-0.00011824671673821285
4.644117780117085e-06,-0.00011155522224726155,6.730277527822182e-05,2.1266499970806763e-05,-2.5782004740904085e-05,-8.844739204505458e-05
7.074280347296735e-06,-9.138309542322531e-05,4.57094720331952e-05,1.3931722605775576e-05,-2.6735771825769916e-05,-3.313023262307979e-05
1.1548311704245862e-05,-7.401707262033597e-05,3.1256691727321595e-05,1.1122921932837926e-05,-2.4505920009687543e-05,2.7443280487204902e-05
1.787475230230484e-05,-6.473563553299755e-05,2.920707811426837e-05,1.534784860268701e-05,-1.9477063688100316e-05,7.515660399803892e-05
2.6376112145953812e-05,-6.574301369255409e-05,2.9301174436113797e-05,2.188644793932326e-05,-1.688755764917005e-05,0.00010720516002038494
3.5670596844283864e-05,-7.149663724703714e-05,2.4776158170425333e-05,2.277877865708433e-05,-1.7470343664172105e-05,0.00013140527880750597
3.999355612904765e-05,-7.56313165766187e-05,2.0843695892835967e-05,2.094831688737031e-05,-1.6169960872502998e-05,0.00013945963291916996
3.577811730792746e-05,-7.542513776570559e-05,2.1062143787276e-05,2.0996074454160407e-05,-1.0788682629936375e-05,0.00013724852760788053
2.4377015506615862e-05,-7.078980706864968e-05,2.4594690330559388e-05,2.0641360606532544e-05,-8.069343493843917e-06,0.00014654042024631053
5.794575827167137e-06,-6.163390935398638e-05,2.7603658963926136e-05,1.869181687652599e-05,-1.467347283323761e-05,0.00015197817992884666
-5.047657850809628e-06,-4.950492802890949e-05,2.588629831734579e-05,1.9396704374230467e-05,-2.499695256119594e-05,0.00014034744526725262
3.0774583592574345e-06,-1.8639526388142258e-05,2.2072392312111333e-05,2.170972766180057e-05,-2.2838230506749824e-05,0.00012907746713608503
2.0682517060777172e-05,2.4978406145237386e-05,2.0171661162748933e-05,2.594120815047063e-05,-9.181433597404975e-06,0.00012555297871585935
3.1975570891518146e-05,4.2496336391195655e-05,1.8178747268393636e-05,2.866361683118157e-05,1.47068760725233e-06,0.00012582926137838513
3.3753265597624704e-05,1.2962610526301432e-05,1.5957934010657482e-05,2.836120802385267e-05,5.376936314860359e-06,0.00013017466699238867
2.703481550270226e-05,-2.937568751804065e-05,8.366586371266749e-06,2.6117259039892815e-05,3.185478362865979e-06,0.0001312728418270126
1.6166255591087975e-05,-2.3213728127302602e-05,-5.365432116377633e-06,2.011643118748907e-05,-2.632312998684938e-06,0.0001193216085084714
1.4141257452138234e-05,-2.539592514949618e-06,-8.85068584466353e-06,1.743428765621502e-05,-8.49174648465123e-06,9.395105735165998e-05
2.0666846467065625e-05,-5.044827776146121e-05,4.062500920554157e-06,2.2312191504170187e-05,-1.0965693036268931e-05,5.5494685511803254e-05
2.4950899387476966e-05,-0.00012130248069297522,2.436615432088729e-05,2.994963688252028e-05,-9.044118087331299e-06,2.9277996873133816e-05
1.768262154655531e-05,-9.955823770724237e-05,4.1750750824576244e-05,3.368977195350453e-05,-6.372986717906315e-06,3.1931012927088886e-05
6.227376161405118e-06,-2.5840194211923517e-05,5.311162749421783e-05,3.902639582520351e-05,-4.7435564738407265e-06,4.7840610932325944e-05
8.858863225214009e-07,-1.4666263268736657e-05,6.133731221780181e-05,4.940142389386892e-05,-5.091096227261005e-06,6.581356865353882e-05
2.0484103515627794e-06,-6.064127228455618e-05,7.187943265307695e-05,5.753109871875495e-05,-6.593005309696309e-06,7.812539843143895e-05
2.467454805810121e-06,-9.375501394970343e-05,7.83097420935519e-05,5.5765893193893135e-05,-8.808233360468876e-06,7.801176980137825e-05
1.9827218977752636e-07,-8.706747757969424e-05,7.158486550906673e-05,4.6257093345047906e-05,-1.1626303603406996e-05,6.765122088836506e-05
1.751798208715627e-06,-6.867821502964944e-05,5.86332862440031e-05,3.5497207136359066e-05,-1.4430127521336544e-05,5.507500100065954e-05
9.21326682146173e-06,-6.287801807047799e-05,5.000231249141507e-05,2.7538615540834144e-05,-1.592773878655862e-05,4.1368737583979964e-05
2.0627601770684123e-05,-6.974118150537834e-05,4.691083813668229e-05,2.147110535588581e-05,-1.3861482329957653e-05,2.0275507267797366e-05
3.269827357144095e-05,-7.477303734049201e-05,4.385918873595074e-05,1.1381011063349433e-05,-9.597815733286552e-06,3.999029559054179e-06
4.365189670352265e-05,-7.534027827205136e-05,3.861078585032374e-05,3.5036052850045962e-06,-5.082375992060406e-06,1.3189544006309006e-05
4.965838888892904e-05,-7.304228347493336e-05,3.205478424206376e-05,3.5311970805196324e-06,-3.880033091263613e-06,4.2309762648073956e-05
5.149316348251887e-05,-6.55909680062905e-05,2.93413941108156e-05,8.627143870398868e-06,-5.657456313201692e-06,7.3465627792757e-05
4.884556619799696e-05,-5.616727503365837e-05,3.190187271684408e-05,1.4568621736543719e-05,-9.383665201312397e-06,9.113846317632124e-05
4.200566036161035e-05,-5.001773388357833e-05,3.321174517623149e-05,1.80380666279234e-05,-1.2616001185961068e-05,8.785836689639837e-05
3.576106610125862e-05,-4.889292540610768e-05,3.0480116038233973e-05,1.837497802625876e-05,-1.3442108866001945e-05,6.811560888309032e-05
3.2496234780410305e-05,-5.07205659232568e-05,2.8839986043749377e-05,1.993328805838246e-05,-1.1999253729300108e-05,5.0317605200689286e-05
3.0567647627322e-05,-5.2926821808796376e-05,3.10826362692751e-05,2.6608953703544103e-05,-8.532808351446874e-06,5.410080120782368e-05
2.897211925301235e-05,-5.281293852021918e-05,3.445220136200078e-05,3.704720802488737e-05,-7.331818778766319e-06,7.366509089479223e-05
2.619993574626278e-05,-5.406068157753907e-05,3.3539410651428625e-05,4.27097111241892e-05,-8.87067199073499e-06,8.485936268698424e-05
2.1678846678696573e-05,-5.353766755433753e-05,2.4399711037403904e-05,3.5106088034808636e-05,-1.1159321729792282e-05,7.195251964731142e-05
1.9010898540727794e-05,-4.73660729767289e-05,1.895640707516577e-05,3.446105620241724e-05,-1.2611305464815814e-05,6.128945824457332e-05
1.80242677743081e-05,-4.31138469139114e-05,2.464852514094673e-05,4.0035538404481485e-05,-9.970077371690422e-06,6.844718882348388e-05
1.5751866158097982e-05,-4.435838491190225e-05,3.0055949537199922e-05,2.2818587240180932e-05,-8.706997505214531e-06,7.941791409393772e-05
1.0739518984337337e-05,-4.655938028008677e-05,3.0467759643215686e-05,-8.707953384146094e-06,-1.403742135153152e-05,8.380797225981951e-05
4.2895899241557345e-06,-5.103299190523103e-05,2.9193271984695457e-05,-2.1748302970081568e-05,-1.7815871615312062e-05,7.6013951911591e-05
3.456345439190045e-06,-5.9989579312969e-05,3.104670031461865e-05,-6.134052000561496e-06,-1.8201611965196207e-05,7.379981252597645e-05
1.0275128261127975e-05,-6.412109360098839e-05,3.254256080253981e-05,1.0370714335294906e-05,-1.452015021641273e-05,8.938674000091851e-05
2.0465329725993797e-05,-5.548648186959326e-05,3.0205559596652165e-05,1.1515221558511257e-05,-1.064482239598874e-05,0.00011015927157131955
3.679046130855568e-05,-4.0360737330047414e-05,2.3551388949272223e-05,5.970994152448839e-06,-1.1515162441355642e-05,0.00012369158503133804
5.786725887446664e-05,-3.6162538890494034e-05,1.425001937604975e-05,5.269341272651218e-06,-1.4879401533107739e-05,0.00013130753359291703
6.183404184412211e-05,-5.590921864495613e-05,4.401138994580833e-06,7.991620805114508e-06,-1.8080556401400827e-05,0.00013178099470678717
3.9251524867722765e-05,-6.75587507430464e-05,3.435307576182822e-07,1.1492946214275435e-05,-1.7755595763446763e-05,0.00013143999967724085
2.3657506972085685e-05,-3.501336323097348e-05,7.78466164774727e-06,1.6417405277024955e-05,-1.7215901607414708e-05,0.00013654897338710725
4.005937807960436e-05,5.5954355957510415e-06,2.281654997204896e-05,2.0759016479132697e-05,-1.6027312085498124e-05,0.0001391849509673193
6.004756869515404e-05,1.115216946345754e-06,3.814534284174442e-05,2.1553574697463773e-05,-1.1749203622457571e-05,0.0001278913114219904
4.976783020538278e-05,-3.5693075915332884e-05,4.8392656026408076e-05,1.8512684619054198e-05,-4.445477770786965e-06,9.78713869699277e-05
2.362809937039856e-05,-5.6821467296686023e-05,5.272138514555991e-05,1.5767283912282437e-05,3.0231910841393983e-07,4.8551170038990676e-05
1.079179401131114e-05,-5.3708412451669574e-05,5.057700036559254e-05,1.9352546587469988e-05,-5.227701649346272e-07,-1.0964065040752757e-05
1.3885312000638805e-05,-5.073216379969381e-05,4.3649881263263524e-05,3.1642983230995014e-05,-5.284871804178692e-06,-6.633217708440498e-05
1.724997491692193e-05,-5.428518488770351e-05,3.273434049333446e-05,4.443223588168621e-05,-9.57115935307229e-06,-0.00011920442193513736
1.235518266184954e-05,-4.286688636057079e-05,2.4362605472560972e-05,5.5283831898123026e-05,-9.919604053720832e-06,-0.0001609680475667119
9.054196198121645e-06,-1.1844484106404707e-05,2.1913972886977717e-05,6.059672887204215e-05,-1.1000414815498516e-05,-0.00015718871145509183
1.4586663382942788e-05,8.477428309561219e-06,2.254616265418008e-05,6.354930519592017e-05,-1.797227560018655e-05,-9.993256389861926e-05
2.1527332137338817e-05,6.948359441594221e-06,2.354707794438582e-05,6.201376527315006e-05,-2.1744242985732853e-05,-1.6598956790403463e-05
2.331618634343613e-05,-6.902516361151356e-06,2.1275678591337055e-05,4.878145773545839e-05,-2.0325616787886247e-05,5.602957389783114e-05
1.7293890778091736e-05,-3.837034455500543e-05,1.7835334801930003e-05,2.8863823899882846e-05,-2.17554497794481e-05,8.624008478363976e-05
6.60552768749767e-06,-7.515044853789732e-05,1.5540888853138313e-05,1.7483187548350543e-05,-2.713005778787192e-05,7.863501377869397e-05
-5.875441502212198e-07,-9.473666432313621e-05,1.2181316378701013e-05,1.5838002582313493e-05,-3.0463112125289626e-05,6.370020855683833e-05
1.05908486602857e-06,-0.00010269068297930062,1.6728887203498743e-05,2.086061613226775e-05,-2.297084756719414e-05,5.465331196319312e-05
9.79256583377719e-06,-0.0001014396475511603,2.971470712509472e-05,3.711522731464356e-05,-6.894844773341902e-06,4.402750346343964e-05
1.7931506590684876e-05,-9.457228588871658e-05,4.026222086395137e-05,4.869089025305584e-05,9.961150681192521e-06,3.348314930917695e-05
2.1319596271496266e-05,-8.709147368790582e-05,4.174371133558452e-05,5.131634679855779e-05,1.8959728549816646e-05,3.4575055906316265e-05
2.031211624853313e-05,-7.786683272570372e-05,3.767853559111245e-05,5.563961167354137e-05,2.306257010786794e-05,4.8036414227681234e-05
1.8553953850641847e-05,-6.681233207928017e-05,3.686251147883013e-05,6.300669338088483e-05,2.502968709450215e-05,5.70901065657381e-05
1.4138978258415591e-05,-5.218467049417086e-05,3.826252213912085e-05,6.403061706805602e-05,2.5357783670187928e-05,4.8392870667157695e-05
5.756224709330127e-06,-3.8184916775207967e-05,3.7696365325246006e-05,5.691631304216571e-05,1.9876497390214354e-05,2.5155944967991672e-05
3.3704634461173555e-06,-3.4005319321295246e-05,3.515679418342188e-05,5.08753873873502e-05,1.1870860362250824e-05,2.2028485545888543e-05
9.558794772601686e-06,-4.09688800573349e-05,3.233388270018622e-05,4.809411984751932e-05,6.849458713986678e-06,5.142125519341789e-05
1.710174183244817e-05,-4.8237885494017974e-05,2.962302096420899e-05,4.551944221020676e-05,2.4296432457049377e-06,8.539322152500972e-05
2.0734436475322582e-05,-4.9424426833866164e-05,2.6635831090970896e-05,3.4715096262516454e-05,-3.876320079143625e-06,9.636132017476484e-05
2.2684236682835035e-05,-4.775133857037872e-05,2.2093678126111627e-05,1.962113856279757e-05,-9.604928891349118e-06,8.424460975220427e-05
2.7060796128353104e-05,-4.770273153553717e-05,2.0851213776040822e-05,1.6398669686168432e-05,-9.616891475161538e-06,7.015421579126269e-05
3.300197931821458e-05,-4.903100125375204e-05,2.5515151719446294e-05,2.7673584554577246e-05,-7.891980203567073e-06,6.595018203370273e-05
3.847895277431235e-05,-5.0248330808244646e-05,3.018191819137428e-05,3.720277163665742e-05,-1.1275275937805418e-05,6.720372766721994e-05
3.9466380258090794e-05,-4.921674553770572e-05,3.1385949114337564e-05,3.640558497863822e-05,-2.2060625269659795e-05,7.12178589310497e-05
3.336917143315077e-05,-4.9120531912194565e-05,3.09545430354774e-05,3.0476079700747505e-05,-4.0648268623044714e-05,8.374649769393727e-05
2.1077670680824667e-05,-5.242426777840592e-05,2.7122030587634072e-05,2.4953678803285584e-05,-6.563767965417355e-05,8.971855277195573e-05
8.400909791816957e-06,-5.536899698199704e-05,2.1550375095102936e-05,1.527315725979861e-05,-8.4638137195725e-05,6.873111851746216e-05
4.787757006852189e-06,-5.507699097506702e-05,1.7777018001652323e-05,-2.030472842307063e-06,-9.09420195966959e-05,2.8410324375727214e-05
9.067518476513214e-06,-4.983942926628515e-05,2.0211720766383223e-05,-9.356229384138715e-06,-8.53588426252827e-05,1.1823127351817675e-05
1.2606006748683285e-05,-4.017978426418267e-05,2.9717148208874278e-05,3.325604666315485e-06,-7.034783629933372e-05,3.311418913654052e-05
1.2574285392474849e-05,-3.975392974098213e-05,3.781415944104083e-05,1.8985125279868953e-05,-4.910425559501164e-05,5.7046552683459595e-05
1.3725883945880923e-05,-5.5707449064357206e-05,4.210067345411517e-05,2.739024603215512e-05,-2.1131943867658265e-05,6.067094727768563e-05
1.7456142813898623e-05,-7.073916640365496e-05,4.689331035478972e-05,2.77194212685572e-05,1.0898530490521807e-05,5.9605707065202296e-05
2.060370024992153e-05,-6.772764027118683e-05,5.0518938223831356e-05,2.8094080334994942e-05,4.149628148297779e-05,4.878983963862993e-05
2.0340528863016516e-05,-4.707852713181637e-05,5.1642597099998966e-05,3.323197961435653e-05,7.028071559034288e-05,3.123084388789721e-05
1.559369411552325e-05,-2.3501317627960816e-05,4.829415411222726e-05,3.294894122518599e-05,8.680949395056814e-05,4.7819696192163974e-05
1.3766203664999921e-05,-5.990096269670175e-06,3.461557935224846e-05,2.798241621349007e-05,8.633553807158023e-05,9.147119271801785e-05
1.6570164007134736e-05,6.932881660759449e-06,2.2564576283912174e-05,2.449725434416905e-05,7.74045183788985e-05,0.00012543131015263498
2.197577487095259e-05,8.566328688175417e-06,1.8067046767100692e-05,2.6454483304405585e-05,6.87173378537409e-05,0.0001331611128989607
2.9851718863938004e-05,-1.2366105693217833e-05,1.6192496332223527e-05,2.8997874323977157e-05,6.258453504415229e-05,0.0001177291851490736
4.396155054564588e-05,-6.87815627316013e-05,1.5444638847839087e-05,3.1453819246962667e-05,5.203403998166323e-05,8.92984025995247e-05
5.848166983923875e-05,-0.00014256690337788314,1.521661579317879e-05,3.0093575333012268e-05,3.7152061850065365e-05,6.994626892264932e-05
5.942943971604109e-05,-0.00015994405839592218,1.6025025615817867e-05,2.207652505603619e-05,2.4840355763444677e-05,6.885350012453273e-05
4.9008351197699085e-05,-9.12801842787303e-05,1.9748076738324016e-05,1.6783153114374727e-05,1.2734013580484316e-05,6.842571019660681e-05
3.696944622788578e-05,-6.3130887610896025e-06,2.848486474249512e-05,2.1539821318583563e-05,-7.935848316265037e-07,6.170904089231044e-05
3.0069262720644474e-05,2.0202825908199884e-05,3.8597190723521635e-05,3.052125248359516e-05,-9.19901594897965e-06,5.661758405040018e-05
2.6763555069919676e-05,-1.1592470400501043e-05,4.651200652006082e-05,3.419297354412265e-05,-1.1126437129860278e-05,5.180833613849245e-05
2.135066461050883e-05,-5.155158942216076e-05,4.936503682984039e-05,3.1483141356147826e-05,-1.3603329534817021e-05,4.249985431670211e-05
1.2577073903230485e-05,-6.620249769184738e-05,4.90003549202811e-05,2.6881843950832263e-05,-2.0160381609457545e-05,3.413861122680828e-05
