2.0641120499931276e-05,-5.485271685756743e-05,2.4222576030297205e-05,0.0001005271406029351,-2.7922258595936e-05,4.695210009231232e-05
2.1235589883872308e-05,-5.184447218198329e-05,3.262034442741424e-05,0.00013133426546119153,-3.092737097176723e-05,8.172653178917244e-05
2.266043702547904e-05,-5.05399948451668e-05,3.612602085922845e-05,0.00014782717335037887,-3.6936795368092135e-05,8.107622124953195e-05
2.2927317331777886e-05,-4.984758925274946e-05,3.7753106880700216e-05,0.0001527945714769885,-4.271272700862028e-05,2.983798913192004e-05
1.9757664631470107e-05,-4.662707578972913e-05,3.6234614526620135e-05,0.00013481054338626564,-4.0320570406038314e-05,-4.56385278084781e-05
1.979251828743145e-05,-4.430325861903839e-05,3.1862004107097164e-05,9.38314333325252e-05,-3.4769484045682475e-05,-9.339554526377469e-05
2.361157203267794e-05,-4.061092477058992e-05,2.7238291295361705e-05,4.911620635539293e-05,-3.2820644264575094e-05,-7.875267328927293e-05
2.7513151508173905e-05,-3.7402118323370814e-05,2.6764431822812185e-05,2.1300020307535306e-05,-3.111944533884525e-05,-1.8550363165559247e-05
2.6122897907043807e-05,-3.7000601878389716e-05,2.9765489671262912e-05,1.6096026229206473e-05,-2.576917722763028e-05,4.9503407353768125e-05
2.0290512111387216e-05,-3.8815647712908685e-05,3.1419782317243516e-05,2.2071011699154042e-05,-2.152540037059225e-05,9.9108976428397e-05
1.6307692931150086e-05,-4.327709393692203e-05,3.141607157886028e-05,2.5307273972430266e-05,-2.117212352459319e-05,0.00012230052379891276
1.4587781151931267e-05,-4.9641381338005885e-05,2.859269079635851e-05,1.924039315781556e-05,-2.2750044081476517e-05,0.00013987222337163985
1.4071877558308188e-05,-5.435259299702011e-05,2.7801694159279577e-05,1.297518792853225e-05,-2.024707464443054e-05,0.00017847407434601337
1.6818821677588858e-05,-5.3917923651169986e-05,3.51668604707811e-05,2.066738306893967e-05,-1.3401728210737929e-05,0.0002284818619955331
2.0887995560769923e-05,-4.953100506099872e-05,4.47594684374053e-05,3.994738290202804e-05,-7.264526630024193e-06,0.00024798550293780863
2.11866463359911e-05,-4.496543624554761e-05,4.595758582581766e-05,4.8788304411573336e-05,-7.329896106966771e-06,0.00021441934222821146
1.597888331161812e-05,-4.4683161831926554e-05,3.891350206686184e-05,3.263421604060568e-05,-1.3975585716252681e-05,0.00015106776845641434
7.728542186669074e-06,-5.084597796667367e-05,2.8538233891595155e-05,5.020766025154444e-09,-2.0990886696381494e-05,9.67930318438448e-05
1.7661542415225995e-06,-5.8426645409781486e-05,2.1380494217737578e-05,-2.0131290511926636e-05,-2.3193450033431873e-05,6.974314601393417e-05
1.351127920656836e-08,-6.186323298607022e-05,2.2655231077806093e-05,-1.3678102732228581e-05,-1.9987612176919356e-05,6.636508624069393e-05
4.088660261913901e-06,-5.981147478451021e-05,2.7808924642158672e-05,-4.0626728150527924e-06,-1.6890229744603857e-05,7.103796815499663e-05
1.0529105566092767e-05,-5.4823289246996865e-05,2.878074155887589e-05,-1.1778103726101108e-05,-1.6686279195710085e-05,6.652434967691079e-05
1.2626266652659979e-05,-5.132277146913111e-05,2.7337733627064154e-05,-2.1317307982826605e-05,-1.6451134797534905e-05,4.5364766265265644e-05
1.1807731425506063e-05,-5.025422069593333e-05,2.6898887881543487e-05,-1.9577353668864816e-05,-1.4143094631435815e-05,-3.6945386909792433e-06
1.4285089491750114e-05,-5.2220450015738606e-05,2.8471382393036038e-05,-9.424369636690244e-06,-1.305789737671148e-05,-8.601497393101454e-05
1.9359178622835316e-05,-5.5786957091186196e-05,3.118166569038294e-05,7.439227374561597e-06,-1.3030065019847825e-05,-0.00014203407044988126
2.300010783073958e-05,-5.660649185301736e-05,3.1254541681846604e-05,2.5110459318966605e-05,-1.1903742233698722e-05,-0.0001004863006528467
2.4160714019672014e-05,-5.134119055583142e-05,2.8891667170682922e-05,4.347245703684166e-05,-1.678157968854066e-05,2.2541906218975782e-05
2.2245854779612273e-05,-4.598816667567007e-05,2.463915734551847e-05,6.0151625802973285e-05,-2.749902159848716e-05,0.00013515456521417946
2.0746534573845565e-05,-4.44925572082866e-05,2.446045800752472e-05,7.045312668196857e-05,-3.1149025744525716e-05,0.0001857178140198812
2.017699989664834e-05,-4.4769047235604376e-05,2.690379915293306e-05,7.921133510535583e-05,-2.8019694582326338e-05,0.0001814436836866662
1.471396808483405e-05,-4.729149804916233e-05,2.7666441383189522e-05,8.154696843121201e-05,-2.302032044099178e-05,0.00013791848323307931
9.892677553580143e-06,-5.027307997806929e-05,2.9801876735291444e-05,7.768924842821434e-05,-1.784662345016841e-05,9.204082016367465e-05
1.2674738172790967e-05,-4.999251905246638e-05,2.9125680157449096e-05,7.282164006028324e-05,-1.3572399438999128e-05,5.9065019740955904e-05
1.9633118427009322e-05,-4.6408178604906425e-05,2.4316832423210144e-05,7.012679998297244e-05,-9.35163097892655e-06,4.180122050456703e-05
2.494054933777079e-05,-4.469311170396395e-05,2.3014967155177146e-05,6.746467988705263e-05,-3.10521136270836e-06,4.023352812509984e-05
2.5999785066233017e-05,-4.6049433876760304e-05,2.878277337003965e-05,6.176155875436962e-05,5.014050202589715e-06,4.495142275118269e-05
2.5257424567826092e-05,-4.575789353111759e-05,3.56604577973485e-05,5.178006904316135e-05,1.0142092833120842e-05,4.5456406951416284e-05
2.6758440071716905e-05,-4.5764278183924034e-05,3.704267874127254e-05,3.707642827066593e-05,9.483613212069031e-06,5.049871469964273e-05
2.9958764571347274e-05,-4.8364810936618596e-05,3.355076478328556e-05,2.2943178919376805e-05,6.9455363700399175e-06,6.381390994647518e-05
3.278947770013474e-05,-4.828322562389076e-05,2.8737887987517752e-05,1.6256168237305246e-05,4.805316166311968e-06,8.124359737848863e-05
3.140750413876958e-05,-4.4375916331773624e-05,2.628147558425553e-05,1.961847192433197e-05,2.3227030396810733e-06,9.323813719674945e-05
2.3751159460516647e-05,-3.946508513763547e-05,2.544950802985113e-05,2.6874020477407612e-05,-2.0401560050231637e-06,9.20972743188031e-05
1.6171192328329198e-05,-3.663766256067902e-05,2.4057417249423452e-05,3.0980041628936306e-05,-9.552534720569383e-06,8.091099880402908e-05
1.848417923611123e-05,-3.771643605432473e-05,2.3189715648186393e-05,2.9614589948323555e-05,-1.8936294509330764e-05,5.343048178474419e-05
2.9793091016472317e-05,-4.4719148718286306e-05,2.6079780582222156e-05,2.7555061024031602e-05,-2.655474418133963e-05,9.60370380198583e-06
3.664357427624054e-05,-5.507567402673885e-05,3.13659620587714e-05,2.6929765226668678e-05,-3.0292025257949717e-05,-2.6338833777117543e-05
3.3990385418292135e-05,-6.247279088711366e-05,3.388736877241172e-05,2.57522078754846e-05,-2.8748769182129763e-05,-1.954850449692458e-05
2.7945285182795487e-05,-6.719220982631668e-05,3.1859952287049964e-05,2.0964185750926845e-05,-2.1828815079061314e-05,2.0651641534641385e-05
2.3980161131476052e-05,-7.497876504203305e-05,3.0160486858221702e-05,1.0844821190403309e-05,-1.4453771655098535e-05,5.3226976888254285e-05
2.459871393512003e-05,-8.406881534028798e-05,3.0735493055544794e-05,-7.738264685031027e-06,-6.371131803462049e-06,5.326239624992013e-05
3.054433182114735e-05,-8.351122232852504e-05,3.133515201625414e-05,-2.4743691028561443e-05,4.727389296022011e-06,2.5596989871701226e-05
3.402328002266586e-05,-6.88766231178306e-05,3.081763497903012e-05,-2.2705315132043324e-05,1.3733044397667982e-05,1.063614718077588e-06
3.287825165898539e-05,-5.223816697252914e-05,2.688898894120939e-05,-5.782649168395437e-06,1.815542964322958e-05,1.5615318261552602e-05
3.2044983527157456e-05,-4.4297947169980034e-05,2.3619884814252146e-05,1.2353178135526832e-05,1.7290503819822334e-05,6.912807293701917e-05
3.2876410841709e-05,-3.706592906382866e-05,2.9203885787865147e-05,2.6571506168693304e-05,1.4422539607039653e-05,0.00010902991198236123
3.347745951032266e-05,-2.5673507479950786e-05,3.9933416701387614e-05,3.64265579264611e-05,1.3462526112562045e-05,9.682209929451346e-05
3.0233264624257572e-05,-2.2393085600924678e-05,4.319468280300498e-05,4.5101060095475987e-05,1.0842529263754841e-05,6.503117037937045e-05
2.885907088057138e-05,-4.091502705705352e-05,4.2680632759584114e-05,4.948055720888078e-05,7.633332643308677e-06,5.5701220844639465e-05
3.086093420279212e-05,-6.357787788147107e-05,4.503813397604972e-05,5.137863627169281e-05,3.912836291419808e-06,6.609212141484022e-05
3.097096487181261e-05,-6.669606227660552e-05,4.5728640543529764e-05,5.669181700795889e-05,4.759834268952545e-07,6.121908518252894e-05
2.829701770679094e-05,-5.65669615752995e-05,4.406573134474456e-05,5.985388270346448e-05,-6.066163678042358e-07,5.714226790587418e-05
2.6702058676164597e-05,-4.497970439842902e-05,4.3499596358742565e-05,5.0256163376616314e-05,1.4109754147284548e-06,7.220213592518121e-05
2.6381561838206835e-05,-4.2897048842860386e-05,4.5164044422563165e-05,2.5005399947986007e-05,2.75313846032077e-06,0.00010691310308175161
2.5758154151844792e-05,-5.286822852212936e-05,4.861748675466515e-05,-4.7359985728689935e-06,2.471259676894988e-06,0.00015264286776073277
2.5389414076926187e-05,-6.362611020449549e-05,5.134899402037263e-05,-2.5846054995781742e-05,2.5204258236044552e-06,0.0001948902354342863
2.4807599402265623e-05,-6.493616092484444e-05,5.2435807447182015e-05,-3.277320502093062e-05,4.301351964386413e-06,0.0002212978433817625
2.6040874217869714e-05,-5.849719309480861e-05,4.842987618758343e-05,-2.581656190159265e-05,5.429588782135397e-06,0.00020051533647347242
2.7521748052095063e-05,-5.3571187891066074e-05,3.850630673696287e-05,-1.4282903066487052e-05,2.5223055217793444e-06,0.0001008957187877968
2.5349216230097227e-05,-5.380647417041473e-05,2.8426238714018837e-05,-3.900167939718813e-06,-3.6863873447146034e-06,-6.346763257170096e-05
2.3039297957438976e-05,-5.533767398446798e-05,2.5549559723003767e-05,9.671414773038123e-06,-8.673664524394553e-06,-0.00021024579473305494
2.521948772482574e-05,-5.351124127628282e-05,2.8183712856844068e-05,1.7174841559608467e-05,-8.245268872997258e-06,-0.00027173131820745766
2.5461828045081347e-05,-5.03369010402821e-05,2.7823978598462418e-05,9.472340934735257e-06,-6.636385023739422e-06,-0.000242396054090932
2.081274396914523e-05,-4.959399302606471e-05,2.1991616449668072e-05,7.761963729535637e-07,-1.0221988304692786e-05,-0.00015571260883007199
1.879021874628961e-05,-5.1218419685028493e-05,1.862919089035131e-05,2.338214699193486e-06,-1.7686264982330613e-05,-4.8940575652522966e-05
2.0235447664163075e-05,-5.1293933211127296e-05,2.2591872038901784e-05,4.1106604840024374e-06,-2.269621290906798e-05,6.045746340532787e-05
1.891053943836596e-05,-5.028210944146849e-05,2.7684627639246173e-05,7.336446742556291e-06,-2.588921233837027e-05,0.0001646187884034589
1.515292296971893e-05,-4.989694934920408e-05,3.166415262967348e-05,2.4037473849602975e-05,-2.6951545805786736e-05,0.00020525888248812407
1.2538826922536828e-05,-4.8872865590965375e-05,3.1314495572587475e-05,5.4825188271934167e-05,-2.5444112907280214e-05,0.0001534389448352158
7.98793371359352e-06,-5.0012975407298654e-05,2.4180628315662034e-05,8.332788274856284e-05,-2.5893559723044746e-05,6.662399391643703e-05
1.8873361113946885e-06,-5.719904220313765e-05,1.7299127648584545e-05,9.597982716513798e-05,-3.0177590815583244e-05,1.1121895113319624e-05
1.4909595620338223e-06,-6.599882181035355e-05,1.553263791720383e-05,0.00010325884795747697,-4.522094241110608e-05,1.8470918803359382e-05
7.652787644474301e-06,-6.299982487689704e-05,2.144884638255462e-05,0.00010392365220468491,-6.184155790833756e-05,8.255866850959137e-05
1.4423521861317568e-05,-5.106105891172774e-05,3.0368155421456322e-05,9.917926217895001e-05,-6.301778921624646e-05,0.00015659857308492064
1.6507216059835628e-05,-4.4716860429616645e-05,3.082652619923465e-05,8.821371739031747e-05,-5.617441638605669e-05,0.00020331572159193456
1.6088464690255933e-05,-4.345373235992156e-05,2.3527996745542623e-05,6.430386565625668e-05,-4.720057040685788e-05,0.00021632661810144782
1.7782067516236566e-05,-4.2339121137047186e-05,1.81850391527405e-05,4.189751052763313e-05,-3.708170333993621e-05,0.00020147697068750858
1.9537133994163014e-05,-4.3678963265847415e-05,2.118378870363813e-05,2.5240087779820897e-05,-2.3948763555381447e-05,0.00014920109242666513
1.90724094863981e-05,-4.636167795979418e-05,2.428576408419758e-05,1.5802390407770872e-05,-1.0871509402932134e-05,8.393356256419793e-05
2.0061703253304586e-05,-4.633323260350153e-05,2.5426075808354653e-05,8.447885193163529e-06,1.6362367887268192e-06,3.9953469240572304e-05
2.0839446733589284e-05,-4.3118423491250724e-05,2.340207720408216e-05,5.908758339501219e-06,1.356256143481005e-05,1.1018390978279058e-05
2.1891830328968354e-05,-4.133644324610941e-05,2.1320594896678813e-05,6.939445029274793e-06,2.4026574465096928e-05,1.9132053239445668e-06
2.286767994519323e-05,-4.415368312038481e-05,2.2287027604761533e-05,6.535163265652955e-06,3.122891939710826e-05,1.734705438138917e-05
2.4558947188779712e-05,-4.720778815681115e-05,2.562908412073739e-05,9.247449270333163e-06,3.063077383558266e-05,1.5620045815012418e-05
2.7438967663329095e-05,-4.991675086785108e-05,2.9088912924635224e-05,2.2824862753623165e-05,2.2815587726654485e-05,-3.9778653444955125e-05
2.933789073722437e-05,-5.076327215647325e-05,2.9710949092986993e-05,5.0807771913241595e-05,1.3882536222808994e-05,-0.00010529638529988006
2.951299939013552e-05,-4.904724846710451e-05,3.208795897080563e-05,7.95652813394554e-05,8.966689165390562e-06,-0.00012129601236665621
2.701263474591542e-05,-4.725489634438418e-05,3.6697772884508595e-05,9.722248796606436e-05,4.8682500164431985e-06,-9.068490180652589e-05
2.4560467863921076e-05,-4.77099310955964e-05,4.01698453060817e-05,0.00010371269308961928,-1.9001994360223762e-06,-5.418288128566928e-05
2.304462577740196e-05,-5.023547782911919e-05,3.8111891626613215e-05,0.00010778373689390719,-8.113705007417593e-06,-5.190140655031428e-06
2.187378231610637e-05,-5.231241084402427e-05,3.534500865498558e-05,0.00011002178507624194,-9.031492481881287e-06,5.7928464229917154e-05
1.9715122107299976e-05,-5.11455800733529e-05,3.6370198358781636e-05,0.00010969414870487526,-8.994845302368049e-06,9.33767732931301e-05
1.6882711861399002e-05,-4.8038953536888584e-05,3.781603300012648e-05,0.00010005644435295835,-1.263915874005761e-05,0.0001123761321650818
1.4322916285891552e-05,-4.691369758802466e-05,3.248056600568816e-05,7.519756036344916e-05,-1.9234374121879227e-05,0.0001462102372897789
1.451319894840708e-05,-4.976985292159952e-05,2.626443892950192e-05,5.205117122386582e-05,-2.44795301114209e-05,0.00014422883396036923
1.937397973961197e-05,-5.548366971197538e-05,3.161825952702202e-05,5.4738266044296324e-05,-2.488133577571716e-05,6.440191646106541e-05
2.7809823222924024e-05,-5.641372626996599e-05,4.4299111323198304e-05,7.180052489275113e-05,-1.8654822270036675e-05,-3.361452399985865e-05
3.0406858058995567e-05,-4.983542385161854e-05,4.744355464936234e-05,6.811706407461315e-05,-9.873620001599193e-06,-5.662532203132287e-05
2.8034663046128117e-05,-4.2280429624952376e-05,4.0013659599935636e-05,3.000298784172628e-05,-5.508693902811501e-06,1.620632247067988e-05
2.827351272571832e-05,-4.00309290853329e-05,3.0909981433069333e-05,-1.6678170140949078e-05,-8.630180673208088e-06,0.00012408448674250394
3.058670336031355e-05,-3.915500928997062e-05,2.7215264708502218e-05,-4.3236417695879936e-05,-7.724073839199264e-06,0.00019672737107612193
2.969476736325305e-05,-4.164036363363266e-05,2.6858006094698794e-05,-5.317402246873826e-05,-2.0234638213878497e-06,0.00021304810070432723
2.7747275453293696e-05,-4.7715246182633564e-05,2.3863814931246452e-05,-6.33747986285016e-05,2.607464239190449e-06,0.00016678274550940841
2.85273308691103e-05,-4.8007994337240234e-05,2.1655543605447747e-05,-7.288593042176217e-05,4.864965376327746e-06,7.757399725960568e-05
3.002644734806381e-05,-4.438951873453334e-05,2.5111659851972945e-05,-7.381133764283732e-05,7.162090241763508e-06,6.218916041689226e-06
3.062569521716796e-05,-4.1783197957556695e-05,3.1872146792011335e-05,-7.876804011175409e-05,9.549165042699315e-06,1.7000517118503922e-06
2.845903509296477e-05,-3.984889553976245e-05,3.593148721847683e-05,-9.012695954879746e-05,7.93168965174118e-06,4.922529842588119e-05
2.5959099730243906e-05,-3.851641304208897e-05,3.911961903213523e-05,-8.287357923109084e-05,4.027133854833664e-06,9.555982251185924e-05
2.5898762032738887e-05,-3.517539153108373e-05,4.0642014937475324e-05,-5.3051739087095484e-05,-4.319283561926568e-06,0.0001284609897993505
2.5706969609018415e-05,-3.179459963575937e-05,4.147668369114399e-05,-2.387646964052692e-05,-1.5268054994521663e-05,0.00016487362154293805
2.239090645161923e-05,-3.4596509067341685e-05,4.261274079908617e-05,-1.4244040357880294e-05,-2.890507130359765e-05,0.00020665119518525898
1.790264832379762e-05,-4.380697646411136e-05,4.061268191435374e-05,-2.845477320079226e-05,-4.558377986541018e-05,0.00025332055520266294
1.4884351003274787e-05,-5.140289795235731e-05,3.496771023492329e-05,-5.3291187214199454e-05,-6.01103383814916e-05,0.0002986462786793709
1.4509088941849768e-05,-5.062278069090098e-05,3.3120591979241e-05,-6.720455712638795e-05,-6.734018097631633e-05,0.0003221038496121764
1.7044258129317313e-05,-4.623772110790014e-05,3.732953700819053e-05,-5.966898606857285e-05,-6.899037543917075e-05,0.00031977903563529253
2.1611045667668805e-05,-4.564752453006804e-05,4.043972148792818e-05,-4.0170300053432584e-05,-6.641817890340462e-05,0.0002989045751746744
2.3641341613256373e-05,-4.758368959301151e-05,3.8609563489444554e-05,-1.4307272977021057e-05,-5.870460154255852e-05,0.0002619254810269922
2.396911986579653e-05,-4.6783872676314786e-05,3.627295882324688e-05,2.578425846877508e-05,-4.3072825064882636e-05,0.00019392275135032833
2.6546569642960094e-05,-4.085554974153638e-05,3.934266715077683e-05,8.541894203517586e-05,-1.8180997358285822e-05,7.805023051332682e-05
2.7527186830411665e-05,-3.475519042694941e-05,4.4824937504017726e-05,0.00014642081805504858,1.1087879101978615e-05,-9.474110265728086e-05
2.0351568309706636e-05,-3.88255029974971e-05,4.3374882807256654e-05,0.0001812002301448956,3.402836955501698e-05,-0.0002973951632156968
8.736194104130846e-06,-5.241889084572904e-05,3.371901038917713e-05,0.00019121657533105463,4.449407060747035e-05,-0.00043067976366728544
3.060767994611524e-06,-6.27831177553162e-05,2.4910417778301053e-05,0.0001912885345518589,4.972580063622445e-05,-0.00041434154263697565
3.6759458907908993e-06,-6.285747076617554e-05,2.138312629540451e-05,0.00017391928122378886,5.1073813665425405e-05,-0.0003045308112632483
4.333497145125875e-06,-5.958600013400428e-05,2.344588028790895e-05,0.00014704937348142266,4.443927537067793e-05,-0.0001899782510008663
6.684506843157578e-06,-6.099944221205078e-05,2.93312368739862e-05,0.00013300229329615831,2.888831113523338e-05,-8.982471626950428e-05
1.0679614206310362e-05,-6.59459110465832e-05,3.144912261632271e-05,0.00012838664406444877,1.3312794180819765e-05,-3.918401944247307e-06
1.2331210200500209e-05,-6.593309808522463e-05,3.097813532804139e-05,0.0001141033208114095,3.6095461837248877e-06,8.522831194568425e-05
1.188965416076826e-05,-6.385760934790596e-05,2.8357528208289295e-05,7.833907875465229e-05,-3.4373085782135604e-06,0.0001552871981402859
1.2436410543159582e-05,-6.267947901505977e-05,1.931717270053923e-05,2.562578629294876e-05,-8.620610060461331e-06,0.00017511557962279767
1.8730293959379196e-05,-5.8590991102391854e-05,1.462118871131679e-05,-2.6325697035645135e-05,-1.4423885659198277e-05,0.00016072223661467433
2.7462272555567324e-05,-5.4130501666804776e-05,1.9802391761913896e-05,-6.19908023509197e-05,-1.6565527403145097e-05,0.00012632747530005872
3.085756179643795e-05,-4.913250813842751e-05,2.7166781364940107e-05,-8.659420564072207e-05,-1.566936589370016e-05,9.530224633635953e-05
3.158221079502255e-05,-4.5568387577077374e-05,2.9624832677654922e-05,-0.00010302290320396423,-1.4066406038182322e-05,5.9941889048786834e-05
3.1193783797789365e-05,-4.485111639951356e-05,2.988212145282887e-05,-0.00010476554598426446,-1.3938679330749437e-05,7.094868124113418e-06
2.9539565730374306e-05,-4.353517579147592e-05,3.024634497705847e-05,-8.913647616282105e-05,-1.5621315469616093e-05,-7.686164462938905e-05
2.8069411200704053e-05,-4.0198217902798206e-05,3.190754068782553e-05,-6.133485294412822e-05,-1.571794564370066e-05,-0.00016552511078771204
2.648721419973299e-05,-3.746073707588948e-05,3.551775080268271e-05,-2.558168489485979e-05,-1.4505102626571897e-05,-0.00020969480101484805
2.56012863246724e-05,-3.644827665993944e-05,4.028159673907794e-05,1.7206728443852626e-05,-1.2822156350011937e-05,-0.00019165991398040205
2.5416007702006027e-05,-3.7492984120035544e-05,4.414266732055694e-05,5.764025991084054e-05,-1.2365715519990772e-05,-0.00013441918417811394
2.4592365662101656e-05,-4.242754221195355e-05,4.4123920815763995e-05,8.995971438707784e-05,-1.555919152451679e-05,-7.763076428091154e-05
2.0341898562037386e-05,-5.0759223086060956e-05,4.008484029327519e-05,0.00011666825594147667,-2.4159349777619354e-05,-3.365332668181509e-05
1.5425343008246273e-05,-5.6788554502418265e-05,3.400683999643661e-05,0.0001356032444164157,-3.388055120012723e-05,3.5570378713600803e-06
1.3892182323615998e-05,-5.555625102715567e-05,2.9495986382244155e-05,0.00014555636153090745,-3.7354402593337e-05,4.322161476011388e-05
1.54473127622623e-05,-5.147658157511614e-05,2.7740441510104574e-05,0.0001546104031149298,-3.444258982199244e-05,7.998209184734151e-05
1.64527737069875e-05,-4.963813989888877e-05,3.0236651582526974e-05,0.00015739737136755139,-2.9961105610709637e-05,0.00011323689977871254
1.5250809155986644e-05,-5.041504118707962e-05,3.417645348235965e-05,0.00013975122419651598,-2.5049706891877577e-05,0.00013310131907928735
1.4013910003995989e-05,-5.159791908226907e-05,3.324278077343479e-05,0.00010698488040361553,-2.170845073123928e-05,0.00013561952800955623
1.5453200830961578e-05,-5.26452022313606e-05,2.8058126190444455e-05,7.022759382380173e-05,-1.805995634640567e-05,0.00013735641550738364
1.923682793858461e-05,-5.31697878614068e-05,2.6910702217719518e-05,4.7431251005036756e-05,-1.3278080587042496e-05,0.0001547303982079029
2.302111533936113e-05,-5.100442285765894e-05,2.914043034252245e-05,4.908600385533646e-05,-8.479877578793094e-06,0.00017924215353559703
2.4535213015042245e-05,-5.104368756292388e-05,3.0199409593478777e-05,4.8639598389854655e-05,-5.197248356125783e-06,0.00020827929256483912
2.5914618163369596e-05,-5.306882303557359e-05,2.993576526932884e-05,2.8177710191812366e-05,-5.760806288890308e-06,0.00024223062791861594
2.6138251996599138e-05,-5.1081820856779814e-05,3.148771429550834e-05,4.243638613843359e-06,-7.1078375185607e-06,0.0002569190110079944
2.6148607503273524e-05,-5.150757351657376e-05,3.6411605833563954e-05,-9.650932952354196e-06,-6.969070000195643e-06,0.00026947399601340294
2.8823824322898872e-05,-5.033640263718553e-05,3.9634174754610285e-05,-2.6462417736183852e-05,-5.069262442702893e-06,0.00034534611040726304
2.9973489290568978e-05,-4.5631983084604144e-05,3.5026630939682946e-05,-6.566700176335871e-05,-3.581531018426176e-06,0.0004648044996429235
2.93260563921649e-05,-4.763794277096167e-05,2.8023012418998405e-05,-0.0001095115949283354,-7.149248631321825e-06,0.0005442597903311253
2.6950474421028048e-05,-5.3801566537003964e-05,2.4687380573595874e-05,-0.00012341733963694423,-1.2392221833579242e-05,0.0005313588189892471
2.3566912204842083e-05,-5.761661668657325e-05,2.24318791879341e-05,-0.00010506753460504115,-1.7467664292780682e-05,0.0004296267870813608
2.0589472114806995e-05,-5.513104042620398e-05,2.262284397147596e-05,-6.925810157554224e-05,-1.886183235910721e-05,0.00026263343170285225
2.2120404537417926e-05,-4.617488957592286e-05,2.6293701012036763e-05,-3.058147194678895e-05,-1.6015832443372346e-05,7.179172098403797e-05
2.667553417268209e-05,-3.685363844851963e-05,2.8653288609348238e-05,2.775818302325206e-06,-1.1543614164111204e-05,-8.105473534669727e-05
3.125588409602642e-05,-3.380883936188184e-05,2.690929795789998e-05,3.134710277663544e-05,-5.523196705325972e-06,-0.00014685612404718995
3.491514144116081e-05,-3.208283305866644e-05,2.8255406505195424e-05,6.590021803276613e-05,-1.471479293968514e-07,-0.00014712652773596346
3.516033029882237e-05,-3.175609526806511e-05,3.434784593991935e-05,0.000110223627416417,1.806812065296981e-06,-0.00014105127775110304
3.2034778996603563e-05,-3.639690112322569e-05,3.8638107071164995e-05,0.00015056708070915192,-4.165761993135675e-07,-0.000169414997799322
2.717828465392813e-05,-4.389720197650604e-05,3.956110595026985e-05,0.00017132163338828832,-2.5130680114671122e-06,-0.000245658156927675
2.174165638280101e-05,-5.044143836130388e-05,3.966726580983959e-05,0.00016714457888156176,-2.1505566110135987e-06,-0.000328343128785491
1.533643444417976e-05,-5.275601870380342e-05,3.8175236113602296e-05,0.00014008952712174505,-1.0119393891727668e-06,-0.0003245078260079026
9.102321200771257e-06,-5.291355410008691e-05,3.310665852040984e-05,9.113650594372302e-05,-3.94890594179742e-06,-0.00019870487449225038
4.626898771675769e-06,-5.784340464742854e-05,2.489360485924408e-05,3.168544571963139e-05,-9.52269238041481e-06,-4.978883225703612e-05
3.067098305109539e-06,-6.754152855137363e-05,1.833601709222421e-05,-1.0175068382523023e-05,-1.5248004274326377e-05,2.1988540538586676e-05
2.5343417746626073e-06,-7.366365753114223e-05,1.7268004739889875e-05,-1.2933187463204376e-05,-2.148902785847895e-05,3.3431671909056604e-05
7.472580136891338e-07,-7.64993455959484e-05,1.8769711459754035e-05,8.992665243567899e-06,-2.4823810235830024e-05,6.649122224189341e-05
-9.957280866501605e-08,-7.6798110967502e-05,2.220419264631346e-05,2.9142049243091606e-05,-2.2911126507096924e-05,0.0001451054122298956
2.600728748802794e-06,-7.309876673389226e-05,2.2930067643756047e-05,3.890423977281898e-05,-2.1775078494101763e-05,0.00022790282673668116
7.061282758513698e-06,-6.600336928386241e-05,1.8416645616525784e-05,3.77547403331846e-05,-2.2227774024941027e-05,0.00028121090144850314
1.2650702046812512e-05,-6.37563134660013e-05,1.663067268964369e-05,3.40416154358536e-05,-2.271717858093325e-05,0.0002988512860611081
1.5481089576496743e-05,-6.413129449356347e-05,2.0649917132686824e-05,3.78471813746728e-05,-2.206121826020535e-05,0.00024403142742812634
1.6237378076766618e-05,-5.962581417406909e-05,2.3230262740980834e-05,2.6195142709184438e-05,-2.0509693058556877e-05,0.0001448307593818754
1.9251267076469958e-05,-5.320103809935972e-05,2.0378303815959953e-05,-1.660864108998794e-05,-1.890335806820076e-05,7.439009641529992e-05
2.2837437427369878e-05,-4.672084833146073e-05,1.8542035832069814e-05,-7.722053123870865e-05,-1.5943060134304687e-05,1.9144830730510876e-05
2.2431477191275917e-05,-4.324080146034248e-05,2.1237670807749964e-05,-0.0001309015933657065,-8.253716259787325e-06,-7.054612069623545e-05
2.295338890689891e-05,-4.350854942458682e-05,2.6133140636375174e-05,-0.0001532169699203223,6.32159299129853e-07,-0.00015250759315676987
2.733409928623587e-05,-4.45626828877721e-05,2.928942376456689e-05,-0.00014651683159172535,4.570557848637691e-06,-0.00016903875803109258
3.128802927676588e-05,-4.203127173241228e-05,3.0494364182231948e-05,-0.00012149811664130539,6.7701116677199025e-06,-0.00013234066136647016
3.333586937515065e-05,-3.9438084058929235e-05,3.1967003451427445e-05,-8.588012860855088e-05,8.975172022473998e-06,-7.2037561039906e-05
3.3442964195273817e-05,-3.9403370465151966e-05,3.46799279213883e-05,-4.1618353861849755e-05,1.0427313100080937e-05,4.127056399738649e-06
3.496691715554334e-05,-4.08264240832068e-05,3.817747347056866e-05,1.2171466551080812e-05,3.027520506293513e-06,7.755375554552302e-05
3.465370900812559e-05,-4.325812915340066e-05,4.044823072035797e-05,6.522781040985137e-05,-7.792184987920336e-06,0.00012002824223600328
3.2340834877686575e-05,-4.520981019595638e-05,4.164435085840523e-05,0.00010422033665236086,-1.2876666914962698e-05,0.00012397003592923284
2.8587819542735815e-05,-4.7727389755891636e-05,3.866283077513799e-05,0.00012779417738784105,-1.5103851183084771e-05,7.763109897496179e-05
2.5111352442763746e-05,-4.996802090317942e-05,3.22900632454548e-05,0.0001490189606556669,-1.8710852600634098e-05,1.0860412658075802e-05
2.3654059987165965e-05,-5.0422731874277815e-05,2.9288738005561754e-05,0.0001668263867031783,-2.090252201014664e-05,-2.910768671426922e-05
2.4958628273452632e-05,-4.947951310896315e-05,3.0754516046727076e-05,0.00015609661932103336,-1.9072382201557048e-05,-2.6646535843610764e-05
2.691044755920302e-05,-5.0188184104627e-05,3.3262760553043336e-05,0.00010915335587924346,-1.5541751054115593e-05,8.447284926660359e-06
2.6119829271920025e-05,-5.0544906116556376e-05,3.53209106833674e-05,5.5930511734914035e-05,-1.1570511560421437e-05,6.744005804648623e-05
2.5474593712715432e-05,-4.810136306332424e-05,3.6218891182215884e-05,2.1427851606858894e-05,-6.913805918884464e-06,0.00011965744488406926
2.7292724553262815e-05,-4.591645483742468e-05,3.4469430829631165e-05,6.88448153596255e-06,-3.156910452162265e-06,0.0001381150068482384
2.848285839718301e-05,-4.6166216634446755e-05,3.10444702336099e-05,1.0013508472184185e-05,-2.091886017296929e-06,0.00012969174713362008
2.821997804858256e-05,-4.4175896618980914e-05,2.9624741728184745e-05,2.565463182691019e-05,-1.2015848938062845e-07,0.00013970700092613697
3.0306387998280115e-05,-3.9692404243396595e-05,3.215185279259458e-05,3.7016263377154246e-05,3.001431423399481e-06,0.00021854827355127782
3.1940984626999125e-05,-3.652886880445294e-05,3.567648309399374e-05,2.320190287719015e-05,2.942737182820565e-06,0.0003256934287492186
2.7097012207377702e-05,-3.6923611332895234e-05,3.5527544241631404e-05,-7.613088655489264e-06,-1.4402463648366393e-06,0.0003740120737347752
1.9474513464956544e-05,-4.067299232701771e-05,3.1578110792906955e-05,-2.2156209524837323e-05,-9.997096640290692e-06,0.0003483390319161117
1.827150845201686e-05,-4.4353175326250494e-05,3.2063646358437836e-05,-1.0055787242890801e-05,-1.8883183656726032e-05,0.00030833500204607844
2.3601882276125252e-05,-4.48992577730678e-05,3.740767351700924e-05,-1.2506912753451616e-05,-1.935895488713868e-05,0.00027558780857361853
2.9305394491530024e-05,-4.7094683395698667e-05,3.871984517900273e-05,-7.129026926122606e-05,-1.095979860110674e-05,0.00022467125381808728
3.3544587495271116e-05,-4.929123679175973e-05,3.743533306987956e-05,-0.00017194868996739388,2.2583803911402356e-06,0.00016542237426619977
3.590808773878962e-05,-4.4515829358715564e-05,3.922223550034687e-05,-0.0002503693394828588,1.2851211977249477e-05,0.0001023767763399519
3.667682904051617e-05,-4.2403720726724714e-05,4.1102532122749835e-05,-0.000264736037934199,1.758284452080261e-05,7.714967796346173e-05
3.8394558941945434e-05,-4.418921162141487e-05,3.8974998460616916e-05,-0.00022453215206041932,1.5147679732763208e-05,0.00012247791164554656
3.743834895431064e-05,-4.569420707412064e-05,3.310804095235653e-05,-0.00015059376892168075,1.0559067959547974e-05,0.00014478183584287763
3.286921128164977e-05,-4.639697363018058e-05,2.7857240638695657e-05,-6.044343899702653e-05,3.3608273497520713e-06,6.839467823738232e-05
2.7844636861118488e-05,-4.9934129492612556e-05,2.6563646315480582e-05,3.489030132186599e-05,-7.227453806990525e-06,-7.777620339766145e-05
2.6960469767800532e-05,-5.4904459830140695e-05,2.920158840424847e-05,0.00012398128455970436,-1.577733928570524e-05,-0.00023648755450267345
2.511798811610788e-05,-5.463234265334904e-05,3.7308363971533254e-05,0.00021425657905638218,-2.1660258425981738e-05,-0.00036760818329639733
1.960675945156254e-05,-5.0153612392023206e-05,4.730489308713004e-05,0.0003106328658759594,-2.5844698029686697e-05,-0.0004334199766162783
1.5210408491839189e-05,-4.5368291466729715e-05,5.325719394022599e-05,0.0003835012321360409,-2.9319307941477746e-05,-0.00041747663635760546
1.7025964552885853e-05,-4.0537288441555575e-05,5.314033478498459e-05,0.0003973322454839945,-2.9219268981250934e-05,-0.00034894264535978436
2.2546417312696576e-05,-3.6203753552399576e-05,4.85937598568853e-05,0.00035737408325076103,-2.6631454602465965e-05,-0.00026199096464551985
2.4369866878259927e-05,-3.7855494156247005e-05,4.250269921612926e-05,0.00029402782092802227,-2.5736091629369184e-05,-0.0001468240807298571
1.907704063341953e-05,-4.7558358346577734e-05,3.833937080344185e-05,0.0002212525432696566,-2.853167461580597e-05,2.1157384253456257e-05
9.307978871220257e-06,-5.9654801589204e-05,3.4755350498016924e-05,0.00014193587412592024,-3.1355088140117005e-05,0.00021946018387097865
3.402381025807699e-06,-6.542002665810287e-05,2.9220294891274534e-05,7.124221883714199e-05,-3.2960670068860054e-05,0.00035995853249914944
2.21939035327523e-06,-6.406920874724165e-05,2.3616197722731158e-05,3.399425622774288e-05,-3.382762224646285e-05,0.00036992275272496045
2.5889444259519223e-06,-5.9831545513588935e-05,1.9970679204561748e-05,3.618000846472569e-05,-3.5463122912915424e-05,0.0002766582474578172
1.1046230383726652e-06,-5.503765351022594e-05,2.186535857617855e-05,6.087993460823782e-05,-3.364075018907897e-05,0.00016601117386016995
5.763292278970766e-07,-5.30932993569877e-05,2.7761034289142117e-05,8.174208051059395e-05,-2.7177362426300533e-05,8.318389154737815e-05
2.9727723358519142e-06,-5.607461935142055e-05,3.21103107125964e-05,8.517234527971596e-05,-2.5777078917599283e-05,4.1355851863045245e-05
4.8424840315419715e-06,-5.616334965452552e-05,3.273747279308736e-05,7.90039703133516e-05,-3.0606297514168546e-05,2.3971806513145566e-05
6.753679826942971e-06,-4.911206633551046e-05,2.9609096600324847e-05,6.787113670725375e-05,-2.8938438845216297e-05,6.593527359655127e-07
1.0465917512192391e-05,-4.2229643440805376e-05,2.254276660096366e-05,4.489235652727075e-05,-2.1253841623547487e-05,-1.536883064545691e-05
1.1801993423432577e-05,-4.062532389070839e-05,1.567970321048051e-05,2.05262749659596e-05,-1.960627196240239e-05,-9.679071126811323e-07
1.3800578017253429e-05,-4.14639143855311e-05,1.2202110156067647e-05,4.226971213938668e-06,-1.9215187421650626e-05,4.92755752929952e-05
1.78318969119573e-05,-4.5006305299466476e-05,1.4679240848636255e-05,-1.0932382792816497e-05,-1.4694375749968458e-05,0.00013555119221564382
2.2721500499756075e-05,-5.270580368232913e-05,2.3107551896828227e-05,-2.2590984372072853e-05,-6.18719468548079e-06,0.00020701775792986155
2.782740193651989e-05,-6.216150359250605e-05,3.187691618222743e-05,-2.858613879652694e-05,2.0850200144195696e-06,0.00020206515910103917
3.046477104362566e-05,-6.829767517047003e-05,3.92645233660005e-05,-4.080861253896728e-05,6.3892152866174e-06,0.00017177137488033623
3.133240534225479e-05,-6.90398010192439e-05,4.337773134466261e-05,-5.593933383352123e-05,1.0078869308927096e-05,0.00016556789341848344
3.2347790693165734e-05,-6.57717464491725e-05,4.411927147884853e-05,-6.58111457596533e-05,1.0670165465853643e-05,0.0001900441711768508
3.5487588320393115e-05,-5.994088132865727e-05,4.319501749705523e-05,-6.441109871957451e-05,9.986136319639627e-06,0.000196866734768264
3.784190266742371e-05,-5.4829117289045826e-05,4.8019552195910364e-05,-4.91227037855424e-05,1.2648427400563378e-05,0.00011606136104092002
3.87952895835042e-05,-5.195182893658057e-05,5.842323662363924e-05,-3.4031101677101105e-05,1.8266970073455013e-05,-5.3699066484114155e-05
3.830152490991168e-05,-5.140045323059894e-05,6.033490353729576e-05,-3.725710848812014e-05,2.0844561731792055e-05,-0.00022738684492651373
3.7584486562991515e-05,-4.96952525281813e-05,5.011751636629924e-05,-7.495075260521844e-05,1.821855221351143e-05,-0.0003050288069061935
3.969190947827883e-05,-4.370303577161394e-05,3.830258356174454e-05,-0.0001405508373863995,1.5919731595204212e-05,-0.0002684990759007633
4.508086567511782e-05,-3.4992794098798186e-05,3.3589745726203546e-05,-0.0001923745876410976,1.866423372121062e-05,-0.0001574351917952299
5.0090991862816736e-05,-2.9039256332907826e-05,3.3220469049410895e-05,-0.00019147714192513376,2.2416706997319125e-05,-3.078589725191705e-05
5.241757753537968e-05,-2.7313593818689696e-05,3.474159530014731e-05,-0.0001495319011155516,2.0633564417948946e-05,8.19168781163171e-05
5.253034032648429e-05,-2.950414636870846e-05,3.6963425372960046e-05,-0.00010417051089461893,1.5345960491686128e-05,0.00016827617946546525
4.6379871491808444e-05,-3.6514240491669625e-05,3.7497637094929814e-05,-7.56526569603011e-05,1.0949170246021822e-05,0.0001956103224074468
3.774133074330166e-05,-4.3276060750940815e-05,3.4711869375314564e-05,-6.02923973929137e-05,8.277776032628026e-06,0.00015726668061688542
3.8316436985041946e-05,-4.2562671296764165e-05,3.234553514630534e-05,-4.2798965296242386e-05,7.627022569067776e-06,0.00014784885570406914
4.430629996932112e-05,-3.815167292486876e-05,3.410162025829777e-05,-1.0355020094721112e-05,1.0282396942784544e-05,0.00018613818974699825
4.214020009385422e-05,-3.898380964528769e-05,3.61862221325282e-05,2.264696013298817e-05,1.0441232916491572e-05,0.00016103296366054565
3.470630690571852e-05,-4.7660705604357645e-05,3.392912185518071e-05,3.35325239575468e-05,4.544573585008038e-06,6.797732930863276e-05
2.8606073101400398e-05,-5.6602806580485776e-05,3.04476070596138e-05,1.9512493963702582e-05,-5.479168976307847e-06,4.4152729969937354e-05
2.3796301320544444e-05,-5.934128421358764e-05,2.7829877581098117e-05,7.288787855941337e-06,-1.4006746823724825e-05,0.0001679770357441157
1.9224313291488215e-05,-5.632458487525582e-05,2.5258324967580847e-05,4.568455187836662e-05,-1.7675391063676216e-05,0.00033187144435942173
1.4291661500465125e-05,-5.135019455337897e-05,2.7044505259254947e-05,0.00011680812167469412,-1.9824095943477005e-05,0.00035841824137605727
6.8513936639647e-06,-5.4639207519358024e-05,2.4392436898779124e-05,0.00016407744260504842,-2.75058646366233e-05,0.00023743104247841984
-5.729947588406503e-06,-7.136556087061763e-05,1.223833351104986e-05,0.00017391300934832543,-4.45270816271659e-05,0.00013395852874964476
-1.769875416357536e-05,-8.690640243003145e-05,5.169436917640269e-06,0.00016865994257386774,-6.267847493290901e-05,0.00012293970212340355
-2.3529162717750296e-05,-9.025074541568756e-05,4.707992047769949e-06,0.00016868794045876712,-7.520966755691916e-05,6.631082942476496e-05
-2.7214933652430773e-05,-9.22694307519123e-05,2.6183608952123905e-06,0.00018312243628315628,-8.196025737561285e-05,-3.0006087399669923e-05
-2.791165570670273e-05,-9.181870700558648e-05,3.2521022603759775e-06,0.0002219061425421387,-7.962763629620895e-05,-1.6694508303771727e-05
-2.147666054952424e-05,-8.571232319809496e-05,6.6313391471339855e-06,0.00025579595239833,-6.835695239715278e-05,4.998579606763087e-05
-1.3926688552601263e-05,-7.647263555554673e-05,8.431329661107156e-06,0.00025196687784045935,-5.5304786656051874e-05,2.3256858185050078e-05
-7.562814971606713e-06,-6.52708622510545e-05,1.2402976608427707e-05,0.00021454539091791958,-4.772780812345445e-05,-0.00011116508539998904
-2.9100040137564065e-06,-5.420722300186753e-05,1.824764876801055e-05,0.00016761431470513344,-4.477727634366602e-05,-0.0002339704951737076
-1.0541318715695525e-06,-4.7022283979458734e-05,2.1639696569764055e-05,0.00012027913180645555,-4.125906343688257e-05,-0.0002756646426860243
1.8909063328464981e-06,-4.4593558413907886e-05,2.3199248971650377e-05,7.451744022546336e-05,-3.483332329778932e-05,-0.00021610132534988225
9.948837032425217e-06,-4.088369678356685e-05,2.7940483050770126e-05,4.867154348175973e-05,-2.396148192929104e-05,-7.776156417094171e-05
2.0814262825297192e-05,-3.3187781809829175e-05,3.585258673410863e-05,5.383365351008251e-05,-6.360957740980666e-06,5.5987278756219894e-05
2.86850754491752e-05,-2.4940589355537668e-05,4.317582352086902e-05,7.470943819498643e-05,1.275228805752704e-05,0.00012861471623182297
3.333772110636346e-05,-1.9371065718587488e-05,4.7536428610328585e-05,8.325510862050578e-05,2.3767308448441327e-05,0.0001518396456958726
3.7082223570905626e-05,-1.7247824871446937e-05,4.6152243157848716e-05,7.340810407185927e-05,2.2617896320298314e-05,0.00014411337906494737
3.853867019643076e-05,-1.862100907601416e-05,4.270011049811728e-05,6.680734077235684e-05,1.6658479580655694e-05,0.00011240092135267332
3.646015466074459e-05,-1.9513317965902388e-05,4.3273706978652626e-05,7.770024240016937e-05,1.3461187336361036e-05,6.768049934180453e-05
3.218336496502161e-05,-2.6741152396425605e-05,4.1049821447813883e-05,8.404308755416423e-05,8.102414540189784e-06,8.4170906120562e-06
2.6795241865329444e-05,-4.0656472265254706e-05,3.316748916404322e-05,5.490139301400632e-05,-2.373897359575494e-06,-3.3757165510905907e-05
2.601185224193614e-05,-4.8819936637301e-05,2.8248932721908204e-05,-1.735650403134059e-05,-8.40545089886291e-06,-1.1870225534948986e-05
2.964912164316047e-05,-4.902892032987438e-05,2.5156870833598077e-05,-9.389907791046426e-05,-3.648208348749904e-06,5.870821769349277e-05
3.492270116112195e-05,-4.4527125282911584e-05,2.2514335796586238e-05,-0.00013903723447583616,5.048464572610101e-06,0.00012371728371363133
3.926423960365355e-05,-4.0693961636861786e-05,2.1225856471573934e-05,-0.0001776115532265976,6.270366156968521e-06,0.0001960790978046134
3.986819137935527e-05,-4.170694592176005e-05,1.792385410226416e-05,-0.00022061349591240287,-1.3741308748649317e-06,0.0002909248578362167
4.166838698438369e-05,-4.300578439142555e-05,2.1209430997259915e-05,-0.00022465937945526093,-2.284657512063859e-06,0.00034853664692491293
4.0548831748310477e-05,-4.157634248258546e-05,3.056489731534384e-05,-0.00019681586127262563,2.8098174880142324e-06,0.00030497132684104145
3.3967717172345147e-05,-4.397593511384912e-05,2.9447479391819797e-05,-0.00018828772590495646,4.732130037155002e-06,0.00021402095444500446
3.0475275707431138e-05,-4.665498636313714e-05,2.392330497968942e-05,-0.00020458838844206184,1.0974114957207348e-05,0.0001999714004341513
3.5009357816306874e-05,-4.0810147766023874e-05,2.8360658689052798e-05,-0.000214541403693147,2.2597014321945608e-05,0.00021733595349360257
4.067365080118179e-05,-3.419191489228979e-05,4.046477988595143e-05,-0.00017493388440925628,2.849723750841804e-05,0.00012219938798807561
4.088063724339008e-05,-2.996215880557429e-05,5.037303708377294e-05,-5.3377458243630826e-05,2.396515992586501e-05,-0.00013019218749832362
3.7988604162819684e-05,-2.7145959393237717e-05,5.721497655031271e-05,0.00012867155601270497,1.396181687596254e-05,-0.000458716182038188
3.342729542055167e-05,-2.906994996010326e-05,5.85688030696474e-05,0.0002871946489904076,4.338088729127776e-06,-0.0006810943596065044
2.787155972328037e-05,-3.2966912840493023e-05,5.360347859095782e-05,0.0003566817904356867,-2.8771855795639567e-06,-0.0006793414358980954
2.341021718166303e-05,-3.7310124753275886e-05,4.845388320973143e-05,0.0003300555399619043,-7.123538580344757e-06,-0.00048474871437065303
1.8957825886900537e-05,-4.575357888825238e-05,4.247511242283508e-05,0.00022616444039158523,-9.660735486249905e-06,-0.00020873882749583572
1.4258240298659075e-05,-5.649723971146159e-05,3.452125019975938e-05,9.843446605373174e-05,-1.1540676496224478e-05,4.767495920532383e-05
1.3431535080599133e-05,-6.273812323343009e-05,2.8298845791141503e-05,2.986215122291469e-06,-9.994178981287405e-06,0.0002286778762936592
1.3549950381275266e-05,-6.266009586397558e-05,2.2900723706698045e-05,-5.04273921251297e-05,-4.59096418126137e-06,0.00033787087886594236
1.1303251085337251e-05,-5.8475430705584586e-05,1.8576391084934585e-05,-6.542710616486147e-05,1.2083692126907408e-06,0.0003982000343967229
1.054531276167836e-05,-5.307378523866646e-05,2.1353022020775825e-05,-2.082796891045291e-05,3.2146494959306438e-06,0.0004006633535027504
1.1336280294926837e-05,-5.0639890105230734e-05,3.075394488405436e-05,9.229047282133251e-05,-2.4034463876887457e-06,0.0003236922493670136
8.979077392723411e-06,-5.249995956546627e-05,3.981252302764915e-05,0.00021416021627373993,-1.4805968930886593e-05,0.0001625960721867159
3.849480435746955e-06,-5.7435481721768156e-05,4.118779179407284e-05,0.00025166996056213975,-2.715515802265145e-05,-1.9797480490524322e-05
8.843444447848015e-07,-6.452024535974488e-05,3.3716936741257086e-05,0.00018046343757305294,-3.472934986348264e-05,-8.464432175969705e-05
2.526935531932395e-06,-7.02180914231576e-05,2.1440384443849325e-05,7.593986811116338e-05,-3.813754301518202e-05,5.837136086483952e-06
8.263366908067837e-06,-6.803776341257617e-05,1.523557602922665e-05,7.544988875451963e-06,-3.3002350392052904e-05,0.00011956290836678818
1.6291178326355293e-05,-5.650203092955053e-05,2.0378869521664456e-05,-3.3149917726404965e-05,-2.0178506019874476e-05,0.00016050560225266963
2.5776269467314705e-05,-4.48293358203955e-05,2.670138746907469e-05,-6.733141344739124e-05,-6.72347960062325e-06,0.00016453582793474197
3.619641574914567e-05,-3.825498788501136e-05,3.0730723665328696e-05,-7.413372804876417e-05,3.889512754540192e-06,0.00022560416255146265
4.47338170488365e-05,-3.2204137824010104e-05,3.393297811271623e-05,-3.0086514016147703e-05,9.945681085810065e-06,0.0003468484210316092
5.1064707804471254e-05,-2.1052344891359098e-05,4.218063986627385e-05,3.664721589302644e-05,1.742584936437197e-05,0.00042509581544436514
5.227362998994067e-05,-1.0859781468752772e-05,5.416209387476556e-05,5.832685201312415e-05,2.3842307200538926e-05,0.00048191353562287986
4.567470750771463e-05,-1.7916172510012984e-05,4.9994025175692514e-05,1.1244609595451038e-05,2.1557336367550306e-05,0.0005391191807575524
3.5846183891408145e-05,-4.063575397594832e-05,3.14662502205465e-05,-4.5581207814393565e-05,9.250733455701265e-06,0.00046418109559454024
3.082223702222109e-05,-5.8407233154866844e-05,2.4556589778512716e-05,-4.9351674533681944e-05,-9.839012591328355e-07,0.0002000069507630542
3.3218842872884125e-05,-6.144745566416532e-05,3.486208515823819e-05,-1.1291676855762489e-05,-2.810590785884415e-06,-0.00015490700025111437
3.5401288187131286e-05,-6.218205817276612e-05,3.629190177889541e-05,8.543002877559047e-06,-7.804435881553218e-06,-0.0003828030312433839
3.12420233967714e-05,-6.907362694619223e-05,2.3430407964042388e-05,-1.9516026441124268e-05,-1.4552546417689882e-05,-0.0003419382846914232
2.2181466192705557e-05,-7.60783368605189e-05,7.594082035211613e-06,-7.579922385048121e-05,-1.795405478333123e-05,-0.00017828625277616084
1.4371307770488784e-05,-8.211583190131932e-05,-1.2239005400260794e-06,-0.00010966731497319415,-1.7763441064744256e-05,-0.00016375699487980455
1.293248624278931e-05,-8.240117313107476e-05,2.6908171548711834e-06,-0.00010058059706352651,-1.210398204420926e-05,-0.00027515526744537055
1.5417419490404427e-05,-7.36084402888082e-05,1.20958966363105e-05,-7.88449906394817e-05,-6.390992894012015e-06,-0.0002791081788018346
1.4525169717671815e-05,-6.336634396575391e-05,1.48241324495757e-05,-6.133104034233838e-05,-1.1917413758055773e-05,-0.00011424798867665231
7.934171662782319e-06,-6.233013118617237e-05,9.294008123106323e-06,-3.4589178540045395e-05,-2.97564547508955e-05,7.090782310115173e-05
1.6828491880005458e-06,-6.954755372134969e-05,4.391592028696323e-06,1.322625575994607e-05,-4.955911936121993e-05,0.00013094885798636824
1.355760900878522e-06,-7.356281275860965e-05,6.342985216178931e-06,6.82039899402298e-05,-6.0788421251345426e-05,3.343238131492399e-05
3.807858092841343e-06,-6.972187838982791e-05,1.3089419553580228e-05,0.00010709039634093642,-6.032314195181243e-05,-0.00013513870362658054
4.454816007637419e-06,-6.530084647238255e-05,1.8145983631256968e-05,0.00012079498992534354,-5.622319076792337e-05,-0.0002292408316861838
3.1385764032165753e-06,-6.478399154730141e-05,1.9214392523281276e-05,0.00011314991570543498,-5.626309211947955e-05,-0.00019018728926312178
4.112284841539804e-06,-6.221314833965153e-05,1.735974547045771e-05,7.924817327875644e-05,-5.520143895410001e-05,-8.175145194400102e-05
9.284412044507917e-06,-5.6169046729337424e-05,1.8757595171337016e-05,2.613337892398704e-05,-4.423971040523611e-05,-2.4182194465538487e-05
1.577653529238887e-05,-4.622511914931238e-05,2.480695729900617e-05,-1.0892757927649654e-05,-2.535908242862206e-05,-3.913489854312502e-05
2.3014843463897705e-05,-3.7327488826122135e-05,3.496473436825909e-05,-1.748079557728488e-05,-7.979512702149805e-06,-3.893004759447649e-05
2.8198501240694895e-05,-3.5546454455470666e-05,4.5430399040924385e-05,-2.313705044798553e-05,4.431896741152741e-06,4.715042086900212e-05
2.6623041776474565e-05,-3.603260847739875e-05,5.2705538109876215e-05,-6.946352368686348e-05,1.7895566998049617e-05,0.00020759778271894902
2.2688485842081718e-05,-3.706489223986864e-05,5.768990013166331e-05,-0.0001689987984718755,3.5479257348924875e-05,0.0003676649648696184
2.1750825908384286e-05,-4.030702621093951e-05,6.242765084607527e-05,-0.0002645728818606585,4.763584001921117e-05,0.00044187018647789955
1.9665587387862615e-05,-4.28158491558861e-05,6.279254012042657e-05,-0.0002588979259599,4.887490285909735e-05,0.00034876225981861353
1.3469209989125375e-05,-4.647548485081643e-05,5.843518010806292e-05,-0.00016603810945525765,4.5291861169971526e-05,0.0001422145578544587
8.191669621737674e-06,-4.901031206827611e-05,6.029867654433474e-05,-1.9520082787494175e-05,3.827218824881129e-05,-2.3785491976013873e-06
9.215546924679074e-06,-4.908276241621934e-05,6.565690273419023e-05,0.00016294010856654495,2.553556078055408e-05,-2.375664553255774e-05
1.577820148668252e-05,-4.92777799081523e-05,6.59531433484517e-05,0.00030893090297468007,9.47824719332857e-06,2.0533572751446627e-05
2.3893648176454008e-05,-4.819098103325814e-05,6.287929136306047e-05,0.000394748873077333,3.912033434971818e-07,5.9920421335846186e-05
3.2986776204779744e-05,-4.422695201355964e-05,5.7346744142705575e-05,0.0004100983787793666,1.982851358661719e-07,3.5381923225941136e-05
4.279285349184647e-05,-3.39334255841095e-05,5.325606252881698e-05,0.0003627826226875186,2.8680917694146046e-06,-5.821717786602676e-05
5.0325088523095474e-05,-2.52940553764347e-05,4.969399014953524e-05,0.0002732606662902981,4.541331691143569e-06,-0.00010805873171193525
5.526218592422083e-05,-2.086812128254678e-05,4.681201244238764e-05,0.00017557558021508157,8.922886081563774e-06,-6.695854244753718e-05
6.29323985776864e-05,-1.6969022908597253e-05,4.893386721960269e-05,0.00010473091242602095,2.276608756801579e-05,5.146648618392646e-05
6.886931078042835e-05,-1.8993376215803437e-05,5.1246675866423175e-05,7.00751697877422e-05,3.21962361340411e-05,0.00023631805379409343
6.212703010533005e-05,-3.0876042728777975e-05,4.710130815510638e-05,5.5148648243630305e-05,2.0537392629194073e-05,0.00044651070493273437
4.587210787576623e-05,-4.718691707239486e-05,4.0196166082751006e-05,5.1853312470484525e-05,-9.575287549523637e-06,0.0005977581604383886
3.079430098296143e-05,-5.984879317111336e-05,3.256807030993514e-05,5.8759273088071495e-05,-3.980310430051759e-05,0.0006537317531183362
2.0665767806349322e-05,-6.822510476922616e-05,2.2087984689278528e-05,6.729126471327618e-05,-5.84817462367937e-05,0.0006459651631303132
1.5017552868812345e-05,-7.475087477359921e-05,1.4239460142562166e-05,7.3722425440792e-05,-6.430532812373713e-05,0.0005606758641079068
1.6429728930233978e-05,-7.602608093293384e-05,1.6488778783241287e-05,7.706447649979964e-05,-5.700285328202881e-05,0.00035776454024016857
2.5202742108376697e-05,-6.683140236418694e-05,2.7590780518949032e-05,7.719182758592069e-05,-3.669705256470479e-05,2.729602056206204e-05
3.509818998281844e-05,-5.2775925723835826e-05,3.526313594193198e-05,5.509017501026392e-05,-1.6665993825881742e-05,-0.00037699253880418837
4.2114610550925136e-05,-4.3330714106559753e-05,3.309712337795645e-05,1.0796570677484851e-05,-1.2041349691571668e-05,-0.0006945290369912982
4.094767427886836e-05,-3.988018579548225e-05,2.7709473215509206e-05,-2.1040677893324755e-05,-1.4968120012781583e-05,-0.0006866059266030788
2.8795584512408823e-05,-4.0159742638934404e-05,2.53426878771279e-05,-3.3626915865170304e-06,-1.914869608299341e-05,-0.00036930167698301375
1.9177014110027812e-05,-4.3386302422732115e-05,2.4033130102907307e-05,4.7279656428145245e-05,-2.8067541279597208e-05,-1.4382655535882805e-05
1.897914262372069e-05,-4.596194776240736e-05,2.451098225719761e-05,8.827178680803627e-05,-3.2320196623913944e-05,0.00018521593301557004
1.7700418538879603e-05,-4.788216028828174e-05,2.73022578767268e-05,8.298219472635537e-05,-2.5282217393396422e-05,0.00015292347234208137
3.715153070515953e-06,-5.87383983656764e-05,1.6813377442304045e-05,1.5026634173409548e-05,-2.786854383884929e-05,-7.216602534754202e-05
-1.5197520042420365e-05,-7.760951848467812e-05,-4.1053212953556795e-06,-4.182250995654613e-05,-4.4709417124977335e-05,-0.0002452303597237915
-2.602572385512758e-05,-8.584694296587259e-05,-7.730339348199777e-06,-1.3074642083665822e-05,-5.832633178215474e-05,-0.00028645858401432633
-2.770136961771641e-05,-8.383749809581786e-05,3.0481414796668105e-06,2.9276539862621576e-05,-6.416496762540191e-05,-0.00020218256395310163
-2.0735506041091867e-05,-8.089835318969563e-05,8.417755452683195e-06,4.019499556306982e-06,-5.600713848252781e-05,6.124258220552292e-07
-6.408329682017211e-06,-7.588959124404937e-05,6.399006451829337e-06,-7.984362309798598e-05,-3.763625136343762e-05,0.0001848238898674026
5.172073088033358e-06,-6.873127131257206e-05,6.78366859574453e-06,-0.00015276209160219878,-2.4814462449285202e-05,0.0002812694583553821
1.0502279110369273e-05,-6.241134542506188e-05,1.0297465451003518e-05,-0.00019031424017157406,-2.0368655896163546e-05,0.00030024201259948313
1.4930876204743981e-05,-5.66690468986053e-05,1.710511241981294e-05,-0.0002166036720154807,-1.5807681847945787e-05,0.0003432419616729021
2.1050691429991275e-05,-5.057383168605156e-05,2.4605922590126283e-05,-0.0002487654855940491,-6.830322035966674e-06,0.0004393189155962318
2.8563745217979886e-05,-4.613686178345233e-05,2.6799145416589454e-05,-0.0002796761691570282,-6.207334877217363e-07,0.000538655964192003
3.2359886972699314e-05,-4.54599030490499e-05,2.6535042707109824e-05,-0.00027424449217505753,2.050108150797314e-06,0.0005981833674013615
3.345057484693825e-05,-4.43163444288075e-05,3.0331355446833186e-05,-0.0001918102498166263,3.5115645005134866e-06,0.0005963384173810482
3.427444971748628e-05,-3.890845982823521e-05,3.8646026951028034e-05,-2.26693427975988e-05,8.936166864259576e-07,0.0004756439884658903
3.457309867371805e-05,-3.480301529634744e-05,4.395952419145033e-05,0.00016496394528076053,-9.327544830739498e-06,0.000249806500505656
3.091204780503176e-05,-3.5744997148867697e-05,4.344096305430867e-05,0.00029092689510434866,-2.2224377971724607e-05,3.431311415624805e-05
2.5972738512791693e-05,-3.8174661312950775e-05,4.517740671872161e-05,0.000347378954757005,-2.7714468160411343e-05,-0.00011951554188271984
2.7217878596275114e-05,-3.397060208953917e-05,5.694786159438081e-05,0.0003718945081345737,-2.3603904992341995e-05,-0.0002522767463233322
3.459502477198839e-05,-2.7143936677020974e-05,6.816880340920761e-05,0.0003744967107195407,-1.744268593029119e-05,-0.00039374694461002946
3.713205660460517e-05,-2.8784119422198273e-05,6.649278657278046e-05,0.00036261099739931524,-1.767870162439067e-05,-0.0005208319053053856
2.809327452268917e-05,-4.3292897316860035e-05,5.141206565895118e-05,0.0003466855559963733,-2.836759995261673e-05,-0.0005820523947477341
1.466004778194474e-05,-6.70610461384058e-05,2.6255216653225943e-05,0.0003138916508760303,-4.458112744032405e-05,-0.000495865591801703
6.069815299269976e-06,-8.854213956510648e-05,2.134184114765958e-06,0.00024344507255591452,-5.5569613323314115e-05,-0.0002740320051088929
3.750835048776935e-06,-9.427099575987086e-05,-7.6038386396248825e-06,0.00013682014832738787,-5.103770672576502e-05,-6.923867346131374e-08
7.93740400695242e-06,-8.35200262372382e-05,5.880215780962317e-07,2.9994109354447573e-05,-2.9832242944394238e-05,0.0001934447354869917
1.6267509636236355e-05,-6.794014188926667e-05,1.5455210814252496e-05,-3.6152381653664634e-05,-6.60828254694934e-06,0.0002306921232957393
2.096987191180233e-05,-6.052109529264271e-05,2.2300602722680196e-05,-7.500729407183826e-05,3.1704953471489716e-06,0.00016035555745474994
2.3600268832524307e-05,-5.9488309489097446e-05,2.4369779566768557e-05,-0.00011503785208333284,2.0395229967107298e-06,7.446622475981712e-05
2.5414745323359966e-05,-5.271790723782033e-05,2.5182558601954952e-05,-0.00015357107622548938,6.409565230569569e-06,8.533455547876656e-05
2.633483018144034e-05,-4.49319340987131e-05,2.8863638362963684e-05,-0.0001605936122359708,1.652876198932063e-05,0.00010554649634286761
2.7111658710055053e-05,-3.995139923063107e-05,3.703240872710012e-05,-0.0001159340754384175,2.2776170226279646e-05,2.56071343756048e-05
2.6209536372334696e-05,-3.5907040000893176e-05,4.4845579395769164e-05,-3.4973229048773646e-05,2.156952723453287e-05,-2.5963001462514512e-05
2.4334520276170224e-05,-3.55000447598286e-05,4.912776785204187e-05,3.648721758509055e-05,1.7052179828169756e-05,-1.761099701980129e-05
2.3781727577443235e-05,-3.779799590120092e-05,4.44628567493055e-05,5.934317596256733e-05,1.361608701699879e-05,-1.4660338820249308e-05
2.4090511942631565e-05,-4.323437315179035e-05,3.5803230275632814e-05,3.597950126277283e-05,1.2476102710934356e-05,-1.1184043614775874e-05
2.7184258215129375e-05,-4.3408541387179866e-05,3.498496153042652e-05,5.093964432489884e-07,1.6909505575313233e-05,8.437551878159866e-05
3.4030603274004534e-05,-3.599692354327999e-05,4.0313039789907634e-05,-5.164077447261661e-05,2.678559576452244e-05,0.00026242772582918406
3.969288809457794e-05,-2.9015864129178226e-05,4.043579247081652e-05,-0.0001338888832833618,3.461385131231509e-05,0.00039013533387333155
4.2170850065303966e-05,-2.5520072085782886e-05,3.9895112422527745e-05,-0.00020004749239888042,3.537974043865688e-05,0.0003567685780581087
4.262252332409844e-05,-2.2193273252923973e-05,4.425719453138299e-05,-0.00020421123190317303,3.101094625890255e-05,0.0001885288511402905
4.025798261864111e-05,-2.256166044389829e-05,4.891809294349514e-05,-0.00015212083235383034,2.3386925022350624e-05,4.047079710289836e-05
3.4804608731064945e-05,-2.8490509066614322e-05,5.20150970260147e-05,-7.668043690500781e-05,1.3440407201414928e-05,9.421713002666365e-06
3.05190660583321e-05,-3.3089338103309274e-05,5.319663250702433e-05,-4.035933670820668e-06,3.83410360882408e-06,3.1427600333699957e-05
2.5812718376982957e-05,-3.5134995414409786e-05,4.911308133159764e-05,4.902864748146385e-05,-6.216846031747991e-06,-3.954329076805152e-05
1.5668902051402256e-05,-4.166663347859867e-05,3.7210305890766904e-05,7.732928497716784e-05,-1.99622409127187e-05,-0.00021269218996167183
5.916840564168524e-06,-5.21706861036364e-05,2.4975459382403642e-05,9.372772910865024e-05,-3.254131297580898e-05,-0.00030100293224677444
6.3847160163277294e-06,-5.7456996728433296e-05,2.012024742725771e-05,0.00010963868407998234,-3.465917689027265e-05,-0.00016685688751749694
1.7123622455983423e-05,-5.346949910745025e-05,2.1288940843078308e-05,0.0001017263057292439,-2.643558764248155e-05,5.442920883069746e-05
2.8546544854179956e-05,-4.188371167401783e-05,2.2444506612373516e-05,4.609528696164489e-05,-1.5508141586906277e-05,0.00020963669521734118
3.30312286678236e-05,-3.2133437343873084e-05,1.8122877008863725e-05,-5.103693183627911e-05,-4.596960479830159e-06,0.00030931775108911097
3.5337216104380786e-05,-3.2374384318245575e-05,1.283238634641748e-05,-0.00015617086319252849,6.405237400031183e-06,0.00040481306496076286
3.797943645622581e-05,-4.301919398130849e-05,1.0486459359526634e-05,-0.00022456151782535017,1.1267800800851546e-05,0.0005072139902040362
3.5780161852017045e-05,-5.9295522078173235e-05,9.047992534760851e-06,-0.00022267836902756244,6.257603217818541e-07,0.0005594437825493515
2.9177250326029025e-05,-7.13672925485298e-05,9.070143278222531e-06,-0.00016696442617103457,-1.6126754417200573e-05,0.00048209301894530654
2.3968379537109286e-05,-6.875932012917474e-05,1.4521265256917104e-05,-0.00010194800415774807,-1.9119863281957805e-05,0.000315333076287061
2.9247523343656212e-05,-5.959889313089661e-05,2.7551119273994118e-05,-3.620700226747431e-05,-9.05948309082305e-06,0.00010531523003010079
3.8052574382163584e-05,-5.112342842039652e-05,3.915537308785133e-05,5.084555232315324e-05,-3.786519300774671e-06,-0.0001257945114048198
3.882840246660635e-05,-4.483681186684407e-05,4.663173604058102e-05,0.00011780470958910882,-7.734744031040464e-06,-0.00024019705597311258
3.086669312324375e-05,-4.505355536821298e-05,5.0320006266701967e-05,0.00013392000983003527,-1.78244572452968e-05,-0.00019624043488875031
1.5070903828018345e-05,-5.7887784350896254e-05,4.382066981634125e-05,0.0001424968068022281,-3.864757309202105e-05,-0.00018834973161574453
-1.901263772197126e-06,-7.133431063266471e-05,3.3397122024325654e-05,0.00018398059182800353,-6.121908518252894e-05,-0.0003320451360195875
-1.2880052963737398e-05,-7.391882536467165e-05,2.9991264455020428e-05,0.00024374172789976,-7.066460966598243e-05,-0.0004544644907582551
-1.5667614206904545e-05,-7.041843491606414e-05,3.319363895570859e-05,0.00026174550293944776,-6.605831731576473e-05,-0.00028469297103583813
-1.3850725736119784e-05,-6.620385829592124e-05,3.8657723052892834e-05,0.0002362867526244372,-5.543483712244779e-05,8.647493814351037e-05
-1.1784698472183663e-05,-6.482182652689517e-05,3.903617471223697e-05,0.00019788241479545832,-4.512783561949618e-05,0.0003509120724629611
-1.0268312507832889e-05,-6.611349817831069e-05,3.506864231894724e-05,0.00018274931062478572,-3.6243956856196746e-05,0.0004080627695657313
-5.8125679061049595e-06,-6.675603071926162e-05,3.458633000263944e-05,0.00020205600594636053,-3.061598908971064e-05,0.00035187305184081197
6.129274652266758e-07,-6.09528724453412e-05,3.705295603140257e-05,0.00022412010002881289,-2.6488041839911602e-05,0.00027803549892269075
8.337622602994088e-06,-4.911020732834004e-05,3.9333346649073064e-05,0.0002259404573123902,-1.869150401034858e-05,0.00020654677064158022
1.70472267200239e-05,-3.7840207369299605e-05,4.022414213977754e-05,0.00021230643324088305,-1.0378286788181867e-05,0.00012109566887374967
2.391157795500476e-05,-3.517309596645646e-05,3.858150739688426e-05,0.00019466574303805828,-8.85403005668195e-06,-1.8013432054431178e-05
2.8399916118360125e-05,-4.004255970357917e-05,3.251211455790326e-05,0.00015884787717368454,-1.1416263987484854e-05,-0.00018311703752260655
2.9327960874070413e-05,-4.508717393036932e-05,2.5046510927495547e-05,8.80868683452718e-05,-8.317641913890839e-06,-0.00028582094819284976
2.570640754129272e-05,-4.469251143746078e-05,2.1429617845569737e-05,-2.5625971829867922e-05,7.77134391682921e-06,-0.0002742445794865489
2.196362584072631e-05,-4.367420115158893e-05,2.30339755944442e-05,-0.00017338490579277277,3.1910887628328055e-05,-0.00019643615814857185
2.0180861611152068e-05,-4.606996299116872e-05,2.70994733000407e-05,-0.00029825602541677654,4.983679536962882e-05,-0.00014159119746182114
1.4273915439844131e-05,-5.161792432772927e-05,3.088246376137249e-05,-0.00031548834522254765,4.854886356042698e-05,-0.00016837150906212628
3.475706307654036e-06,-5.521190178114921e-05,3.244699473725632e-05,-0.00021486514015123248,3.222512896172702e-05,-0.00019391400564927608
-4.428020019986434e-06,-5.2240655350033194e-05,3.6029516195412725e-05,-6.200541247380897e-05,2.1302979803294875e-05,-5.505144872586243e-05
-6.474685505963862e-06,-4.947920751874335e-05,4.20255892095156e-05,8.138042903738096e-05,1.9641445760498755e-05,0.00022392833488993347
-5.3566186579701025e-06,-4.82961222587619e-05,4.721061122836545e-05,0.00017934043717104942,1.4639997061749455e-05,0.00039322281372733414
1.1530740096077352e-07,-4.374067430035211e-05,5.179178333492018e-05,0.000205198215553537,4.984092811355367e-06,0.0003276184725109488
1.0272143299516756e-05,-3.7677840737160295e-05,5.0027898396365345e-05,0.00013729941565543413,-4.149124777086399e-08,0.0001838767493609339
1.8175463992520235e-05,-3.679269866552204e-05,4.328738577896729e-05,3.92217361877556e-06,6.553991624969058e-07,9.361217962577939e-05
2.1372567061916925e-05,-4.273377999197692e-05,3.814433148363605e-05,-0.00011717568122548983,4.3528632431844017e-07,7.842467312002555e-05
2.268410571559798e-05,-5.0659113185247406e-05,3.3892050851136446e-05,-0.00017195538384839892,-5.386707016441505e-06,0.00014183689199853688
2.4399383619311266e-05,-5.408401193562895e-05,3.199233833584003e-05,-0.0001312652020715177,-9.771773875399958e-06,0.00021120351448189467
3.1244919227901846e-05,-4.663671279558912e-05,3.9138154534157366e-05,-9.927365681505762e-06,-9.877016964310315e-06,0.00022977405751589686
3.697466308949515e-05,-3.624202872742899e-05,4.8330788558814675e-05,0.00010651788034010679,-8.916505066736136e-06,0.00019957780023105443
3.9888069295557216e-05,-3.295147689641453e-05,4.779897426487878e-05,0.0001360087189823389,-8.694227290106937e-06,0.00015292392345145345
3.970860052504577e-05,-3.451058728387579e-05,4.162127515883185e-05,9.509422670817003e-05,-8.798688213573769e-06,0.00010612716141622514
3.702100002556108e-05,-3.52215938619338e-05,3.7230733141768724e-05,6.725305138388649e-05,-1.0258964721288066e-05,7.203881250461563e-05
3.1020408641779795e-05,-3.746968286577612e-05,3.679427391034551e-05,8.476866059936583e-05,-1.8399276086711325e-05,6.854726234450936e-05
2.125047831214033e-05,-4.4303265894996e-05,3.614310844568536e-05,0.00010131511953659356,-2.7531104933586903e-05,0.0001073157909559086
1.543884354759939e-05,-5.125502502778545e-05,3.4303950087632984e-05,6.166809180285782e-05,-2.8856355129391886e-05,0.00021049962379038334
1.6192880138987675e-05,-5.400083682616241e-05,3.2488074793946e-05,-4.524401083472185e-05,-2.2275331502896734e-05,0.0003583802026696503
1.79884609678993e-05,-5.856117786606774e-05,2.5031105906236917e-05,-0.00018612311396282166,-1.6725005480111577e-05,0.00044800082105211914
1.477828118368052e-05,-7.106265547918156e-05,8.11080008134013e-06,-0.00031348178163170815,-1.7472104445914738e-05,0.0003890528460033238
1.044271448336076e-05,-8.238125883508474e-05,-7.0057485572760925e-06,-0.000399361684685573,-1.897857328003738e-05,0.00019804535259027034
1.0982470485032536e-05,-7.998721412150189e-05,-3.5046007269556867e-06,-0.00041526975110173225,-1.2074764526914805e-05,-4.591373726725578e-05
1.6782449165475555e-05,-6.59903307678178e-05,1.5869320122874342e-05,-0.00033636330044828355,-1.3993912943988107e-06,-0.0002201497118221596
2.464549288561102e-05,-5.3371906687971205e-05,3.4188142308266833e-05,-0.00018773949705064297,3.4643478556972696e-06,-0.00023787129612173885
3.289735104772262e-05,-4.693087248597294e-05,4.2903342546196654e-05,-3.3494980016257614e-05,4.25359621658572e-06,-0.00013774419494438916
3.863660094793886e-05,-4.222137067699805e-05,4.609608731698245e-05,0.0001020568233798258,6.997398145358602e-07,-4.8280828195856884e-05
4.089310095878318e-05,-3.4596796467667446e-05,5.057246016804129e-05,0.00023003207752481103,-8.129847628879361e-06,-3.707046926137991e-05
3.968298915424384e-05,-3.028225910384208e-05,5.5810760386521e-05,0.00033853130298666656,-1.9071836504735984e-05,-4.0169099520426244e-05
3.6692770663648844e-05,-3.1121031497605145e-05,5.7931178162107244e-05,0.00040201048250310123,-2.5176628696499392e-05,4.663545769290067e-05
3.307976294308901e-05,-3.1308914913097396e-05,5.413976759882644e-05,0.000421319215092808,-3.143300273222849e-05,0.00010148881847271696
2.555854371166788e-05,-3.745800131582655e-05,4.124702900298871e-05,0.0003931565734092146,-4.47048332716804e-05,-9.821374260354787e-05
1.2008815247099847e-05,-4.953267125529237e-05,2.446088365104515e-05,0.0003251988673582673,-5.422343747341074e-05,-0.0003785605076700449
2.373415100009879e-06,-5.6020937336143106e-05,1.6944624803727493e-05,0.00028474192367866635,-5.167745621292852e-05,-0.0004362735780887306
4.460692252905574e-06,-5.637915091938339e-05,2.0376211978145875e-05,0.0002822546230163425,-4.372740659164265e-05,-0.0002470350300427526
1.2141198567405809e-05,-5.61168126296252e-05,2.573819801909849e-05,0.00026509517920203507,-3.690670564537868e-05,-2.8575246687978506e-05
1.6544548998354003e-05,-5.8683282986748964e-05,2.962980761367362e-05,0.00020580441923812032,-2.9000499125686474e-05,9.153054270427674e-05
1.7983904399443418e-05,-6.128333188826218e-05,2.4137219952535816e-05,0.00010274614760419354,-2.436756949464325e-05,0.00019787834025919437
2.13069943129085e-05,-5.922100172028877e-05,1.46458687595441e-05,2.2153051304485416e-06,-1.4123581422609277e-05,0.0002867053262889385
2.9487378924386576e-05,-5.365052129491232e-05,1.2324996532697696e-05,-6.0307014791760594e-05,4.959324087394634e-06,0.0003080989990849048
3.7295965739758685e-05,-4.825829455512576e-05,1.683634218352381e-05,-9.589565161149949e-05,2.1495652617886662e-05,0.0002391203452134505
3.833562004729174e-05,-4.3473177356645465e-05,2.289410804223735e-05,-0.00012360434629954398,2.665862484718673e-05,0.0001324942277278751
3.4306602174183354e-05,-4.099875150131993e-05,2.7516029149410315e-05,-0.00012714760669041425,1.9683915525092743e-05,1.0802777978824452e-05
3.377700340934098e-05,-3.829465276794508e-05,3.221811493858695e-05,-7.422985800076276e-05,1.014163535728585e-05,-7.278397970367223e-05
4.1630239138612524e-05,-3.258853030274622e-05,3.9116388506954536e-05,2.9365664886427112e-05,7.715342690062243e-06,-7.447362440871075e-05
5.199923907639459e-05,-2.2746919057681225e-05,4.996522329747677e-05,0.00012249093560967594,1.7089509128709324e-05,-3.7418543797684833e-05
5.8085075579583645e-05,-1.2576139852171764e-05,5.7895264035323635e-05,0.00014344860392156988,3.285124330432154e-05,-2.864848283934407e-06
5.76896381971892e-05,-7.777098289807327e-06,5.7162196753779426e-05,9.165683877654374e-05,4.367965811979957e-05,3.073319749091752e-05
4.8159225116251037e-05,-1.490834529249696e-05,4.7334782721009105e-05,1.1808398994617164e-05,3.6572295357473195e-05,5.5233034800039604e-05
2.8039570679538883e-05,-3.656004628282972e-05,3.2151310733752325e-05,-4.674710362451151e-05,1.2341150977590587e-05,4.45406258222647e-05
6.173883321025642e-06,-6.478354771388695e-05,1.3947419574833475e-05,-7.732935773674399e-05,-1.7246886272914708e-05,3.873899913742207e-05
-6.251396371226292e-06,-9.047132334671915e-05,-6.420733825507341e-06,-0.00013297675468493253,-3.700016895891167e-05,8.48335912451148e-05
-4.251832706358982e-06,-0.00010321036825189367,-2.1687008484150283e-05,-0.00023263305774889886,-3.89820706914179e-05,0.00016613432671874762
6.055420271877665e-06,-9.564102219883353e-05,-2.187817699450534e-05,-0.00030508270720019937,-2.4002301870496012e-05,0.00020328571554273367
1.6361405869247392e-05,-7.666908641112968e-05,-8.114022421068512e-06,-0.0002894930657930672,-2.9289778922247933e-06,0.00016324939497280866
2.3614296878804453e-05,-5.8626676036510617e-05,1.195413733512396e-05,-0.00018483864550944418,1.1766302122850902e-05,2.2657519366475753e-05
2.6617646653903648e-05,-4.769278530147858e-05,2.7062918888987042e-05,-5.2591418352676556e-05,1.4791133253311273e-05,-0.00019290586351417005
2.6439227440278046e-05,-4.952124072588049e-05,2.729224979702849e-05,4.013010402559303e-05,8.199303010769654e-06,-0.00043673603795468807
2.8595690309884958e-05,-5.101626811665483e-05,2.7022568247048184e-05,8.583661838201806e-05,6.9850407271587756e-06,-0.0005134564125910401
3.0212442652555183e-05,-4.156881186645478e-05,3.657852721516974e-05,6.962824409129098e-05,1.8288836145075038e-05,-0.00019129655265714973
2.5110286514973268e-05,-4.0030121454037726e-05,3.75937634089496e-05,5.368055553844897e-06,1.6408874216722324e-05,0.0002868087904062122
1.8631184502737597e-05,-4.81219103676267e-05,3.052606189157814e-05,-2.2438447558670305e-05,2.1775822460767813e-06,0.0006285718409344554
1.822651393013075e-05,-4.868942414759658e-05,3.188319533364847e-05,2.9692308089579456e-05,-1.2397265436447924e-06,0.0007922708755359054
1.974372389668133e-05,-4.775954948854633e-05,4.266332325641997e-05,0.000130291489767842,-1.4644747352576815e-06,0.0007448632968589664
2.0163348381174728e-05,-4.679233825299889e-05,5.2291954489191994e-05,0.0002085784508381039,-5.3726198530057445e-06,0.0005849843728356063
1.991953467950225e-05,-4.4976695789955556e-05,5.6329048675252125e-05,0.00023106980370357633,-8.562435141357128e-06,0.00037136508035473526
1.9383694962016307e-05,-4.424584039952606e-05,5.326623795554042e-05,0.0001783500047167763,-9.581091944710352e-06,0.00017356644093524665
2.1426971215987578e-05,-4.553231701720506e-05,4.4245207391213626e-05,8.213170076487586e-05,-1.2674115168920252e-05,1.4406296031665988e-05
2.3835247702663764e-05,-4.903456283500418e-05,3.263403050368652e-05,2.768552440102212e-05,-2.1359679521992803e-05,-0.0001652388455113396
1.916216206154786e-05,-5.931797932134941e-05,1.8095299310516566e-05,5.355790563044138e-05,-4.105467087356374e-05,-0.0003652922750916332
1.3235639926278964e-05,-6.961718463571742e-05,1.1363073099346366e-05,0.00011797204933827743,-5.899917596252635e-05,-0.0004395081487018615
1.5278474165825173e-05,-6.977360317250714e-05,1.9713983419933356e-05,0.00015404382429551333,-5.895922731724568e-05,-0.0002907958987634629
1.902862095448654e-05,-6.40646685496904e-05,3.113184720859863e-05,0.00013313934323377907,-4.9815480451798066e-05,-3.165568705298938e-05
1.668244476604741e-05,-6.22322695562616e-05,3.162566281389445e-05,6.845180178061128e-05,-4.504727621679194e-05,0.00017028341244440526
1.1331938367220573e-05,-6.615955499000847e-05,2.438250885461457e-05,-1.7698957890388556e-05,-4.2340150685049593e-05,0.00021137483417987823
1.0820889656315558e-05,-6.80490120430477e-05,1.7731974367052317e-05,-0.0001227910106536001,-3.474410914350301e-05,0.00012121929466957226
1.7199443391291425e-05,-6.376978853950277e-05,1.5534609701717272e-05,-0.00021071689843665808,-2.414893970126286e-05,2.1583535271929577e-05
2.696670162549708e-05,-5.216495264903642e-05,2.1225365344434977e-05,-0.00021330706658773124,-1.2854441592935473e-05,2.1372217815951444e-05
3.4124870580853894e-05,-3.901123272953555e-05,3.461413871264085e-05,-0.00012047461495967582,-1.8202797491539968e-06,7.616708899149671e-05
3.746820584638044e-05,-2.9123473723302595e-05,4.439313124748878e-05,-1.2133320524299052e-05,7.641147931281012e-06,9.082763426704332e-05
3.853113958030008e-05,-2.695098919502925e-05,4.287284900783561e-05,4.7264293243642896e-05,1.3728208614338655e-05,3.7302870623534545e-05
3.9138081774581224e-05,-3.45452681358438e-05,3.6575384001480415e-05,5.2356637752382085e-05,1.591360523889307e-05,-1.516994416306261e-06
4.233267827657983e-05,-4.264778544893488e-05,3.685534466058016e-05,5.019139734940836e-06,2.1291847588145174e-05,8.897045336198062e-05
4.764132609125227e-05,-3.5172401112504303e-05,4.859452383243479e-05,-4.0631381125422195e-05,3.269217995693907e-05,0.0003040851152036339
5.4560088756261393e-05,-1.3483330803865101e-05,6.558328459504992e-05,-5.394290383264888e-06,4.212291969452053e-05,0.00046325530274771154
6.470479274867103e-05,1.0160738384001888e-05,8.335393795277923e-05,9.343594138044864e-05,5.340313873603009e-05,0.0005500243860296905
7.081173680489883e-05,1.6420877727796324e-05,9.013724775286391e-05,0.00014659449516329914,6.219611532287672e-05,0.0005697701126337051
6.647133704973385e-05,3.924169959645951e-06,7.78798057581298e-05,0.00011162731243530288,5.6255645176861435e-05,0.0004091308801434934
5.7288350944872946e-05,-9.918078831105959e-06,6.179724732646719e-05,8.608915231889114e-05,4.070480645168573e-05,0.00015439873095601797
4.80875933135394e-05,-2.0569454136420973e-05,5.3620973631041124e-05,0.00011180021101608872,1.7436625057598576e-05,-8.638715371489525e-05
3.3151056413771585e-05,-3.187477705068886e-05,5.139221320860088e-05,0.00015181417984422296,-9.086428690352477e-06,-0.0002595233090687543
1.1225822163396515e-05,-4.833019193029031e-05,4.3562828068388626e-05,0.0001593645429238677,-3.510579335852526e-05,-0.00023726982180960476
-1.528740904177539e-05,-7.049489067867398e-05,2.4251292416010983e-05,0.00012658684863708913,-6.596137973247096e-05,-7.222814747365192e-05
-3.7741898267995566e-05,-9.456856059841812e-05,-3.629074996069903e-08,8.230478852055967e-05,-9.593991126166657e-05,7.532750169048086e-05
-4.538757639238611e-05,-0.00010764841135824099,-1.5567586160614155e-05,7.76089946157299e-05,-0.00010682108404580504,0.00012618277105502784
-3.720924723893404e-05,-0.00010234922228846699,-1.5128034647204913e-05,0.00012607628013938665,-9.324023267254233e-05,5.5539316235808656e-05
-1.636531851545442e-05,-8.308636461151764e-05,5.2892050916852895e-06,0.00020302558550611138,-6.5457948949188e-05,-3.7821519072167575e-05
1.2628219337784685e-05,-5.479990431922488e-05,3.944907075492665e-05,0.000278997904388234,-3.348755853949115e-05,-4.073369564139284e-05
3.4151536965509877e-05,-3.411621582927182e-05,6.139592733234167e-05,0.00030102196615189314,-1.41240034281509e-05,-2.723819670791272e-05
3.380551061127335e-05,-3.7364501622505486e-05,5.273429997032508e-05,0.00022191139578353614,-1.5478000932489522e-05,-7.226556044770405e-05
2.023945125984028e-05,-5.6987311836564913e-05,2.8434944397304207e-05,5.8329012972535565e-05,-2.192812826251611e-05,-5.375431283027865e-05
8.699377758603077e-06,-7.487757102353498e-05,1.2816550224670209e-05,-0.0001115435006795451,-2.5760182325029746e-05,6.996732554398477e-05
6.992675594119646e-07,-8.570909994887188e-05,7.098560217855265e-06,-0.0002213756088167429,-3.8368649256881326e-05,9.629700798541307e-05
-8.16143165138783e-06,-9.373709326609969e-05,3.0442006391240284e-06,-0.00023637736740056425,-5.848347791470587e-05,-0.00011420752707635984
-1.485779466747772e-05,-9.934248373610899e-05,-1.8361437241765088e-06,-0.0001828294771257788,-7.005877705523744e-05,-0.0004260513815097511
-1.2657537808991037e-05,-9.53842609305866e-05,-3.8705252336512785e-06,-0.00010993292380589992,-6.387457688106224e-05,-0.0006027063354849815
7.676800350964186e-07,-7.762198947602883e-05,-1.0930632470262935e-06,-5.08865705342032e-05,-4.390827598399483e-05,-0.0004959722864441574
1.5041708138596732e-05,-6.0612583183683455e-05,3.88766511605354e-06,-1.3293069059727713e-05,-2.611811396491248e-05,-0.00021642172941938043
1.6103005691547878e-05,-5.965308446320705e-05,7.771624950692058e-06,3.5604734875960276e-05,-2.4772414690232836e-05,-5.581117875408381e-05
1.252141942131857e-06,-6.752676563337445e-05,1.2348279597063083e-05,0.000140062315040268,-3.995379665866494e-05,-4.920441278954968e-05
-1.0450226909597404e-05,-7.259703852469102e-05,1.1961327800236177e-05,0.00022941424685996026,-4.611713666236028e-05,-5.7403620303375646e-05
-5.3800695241079666e-06,-7.2750000981614e-05,9.076135029317811e-06,0.00018609139078762382,-2.1246674805297516e-05,-9.291766764363274e-05
1.0283022675139364e-05,-6.627669790759683e-05,1.996161518036388e-05,1.3527787814382464e-05,1.8123897461919114e-05,-3.1633626349503174e-05
2.599089202703908e-05,-5.12220140080899e-05,4.3580304918577895e-05,-0.000126830957015045,4.3628439016174525e-05,0.00018804165301844478
3.596676833694801e-05,-3.524282874423079e-05,6.159135955385864e-05,-0.0001514830655651167,4.481596624827944e-05,0.0003530852263793349
4.0708098822506145e-05,-3.01321688311873e-05,6.35909746051766e-05,-8.71189622557722e-05,2.8807384296669625e-05,0.0003540139296092093
4.354615884949453e-05,-3.14988756144885e-05,5.437724757939577e-05,2.6663525204639882e-05,1.1120151611976326e-05,0.00021484259923454374
4.521615483099595e-05,-3.3332249586237594e-05,4.786857243743725e-05,0.00013484898954629898,2.1918644961260725e-06,-2.997643423441332e-05
4.5673750719288364e-05,-3.245805419282988e-05,5.020811295253225e-05,0.0002039306564256549,-3.1575635262015567e-07,-0.0002513547660782933
4.525447002379224e-05,-2.641893115651328e-05,5.451165634440258e-05,0.00018532441754359752,1.6945704146564822e-06,-0.00027992521063424647
4.4890759454574436e-05,-2.1403737264336087e-05,5.205460183788091e-05,8.448879816569388e-05,9.027751730172895e-06,-0.00013000087346881628
4.566708594211377e-05,-1.9966142644989304e-05,4.698598786490038e-05,-2.274564394610934e-05,1.6525584214832634e-05,-2.2964564777794294e-05
4.518322748481296e-05,-1.905787030409556e-05,4.604908463079482e-05,-6.563658098457381e-05,1.654339757806156e-05,-3.0338920623762533e-05
4.521953087532893e-05,-1.828317908803001e-05,4.619574247044511e-05,-5.866401988896541e-05,1.5782878108439036e-05,8.084404726105276e-06
4.2408522858750075e-05,-2.243786548206117e-05,3.9528924389742315e-05,-5.891629189136438e-05,1.7126882084994577e-05,0.00014688972441945225
3.3320528018521145e-05,-3.4369797504041344e-05,2.7851754566654563e-05,-9.365444566356018e-05,1.5067524145706557e-05,0.00030756014166399837
2.1515415937756188e-05,-4.8853187763597816e-05,1.9039720427826978e-05,-0.00014580180868506432,7.554600870207651e-06,0.0004012659774161875
1.3144599506631494e-05,-5.733670695917681e-05,1.678144144534599e-05,-0.00017209189536515623,-3.3076980798796285e-06,0.00037803733721375465
8.761761819187086e-06,-5.534474257729016e-05,2.204663360316772e-05,-0.00012002174480585381,-1.3612886505143251e-05,0.00026646634796634316
6.2123872339725494e-06,-4.938864731229842e-05,3.139540058327839e-05,-3.5383754948270507e-06,-1.824373975978233e-05,0.0001381385955028236
4.233442268741783e-06,-4.9757214583223686e-05,3.715708589879796e-05,6.281452078837901e-05,-1.2097576473024674e-05,6.309131276793778e-05
2.3785914891050197e-06,-5.74153455090709e-05,3.4522341593401507e-05,1.841051926021464e-05,2.6505465484660817e-06,9.092234540730715e-05
3.6880642255709972e-06,-6.309679156402126e-05,3.0405277357203886e-05,-4.445625017979182e-05,1.4823273886577226e-05,0.0002325484820175916
7.387352525256574e-06,-6.349712202791125e-05,2.935841075668577e-05,-3.9098275010474026e-05,1.1781314242398366e-05,0.0004599888634402305
1.0101903171744198e-05,-6.356491212500259e-05,3.0007033274159767e-05,-5.504016371560283e-06,-3.676941560115665e-06,0.0007137755746953189
6.46350645183702e-06,-6.422206206480041e-05,2.950549423985649e-05,1.5767858712933958e-05,-2.0685287381638773e-05,0.0009048201609402895
2.2256242573348572e-06,-6.260472582653165e-05,3.0366663850145414e-05,3.969733734265901e-05,-2.635961936903186e-05,0.0009422588045708835
5.314496775099542e-06,-5.5876622354844585e-05,3.130277036689222e-05,5.662570765707642e-05,-1.7370321074849926e-05,0.0007826446671970189
1.3229883734311443e-05,-4.780262315762229e-05,3.0533432436641306e-05,4.7780242312001064e-05,-5.054032499174355e-06,0.0004464774392545223
2.1718009520554915e-05,-4.1762359614949673e-05,3.026653575943783e-05,1.5513800462940708e-05,-9.050081075656635e-07,-1.2557660738821141e-05
2.1159992684260942e-05,-4.421139237820171e-05,2.6027048079413362e-05,-2.6004012397606857e-05,-3.8566631701542065e-06,-0.00044076459016650915
1.4101638043939602e-05,-5.407936259871349e-05,2.330690585949924e-05,-3.625253521022387e-05,-1.0255709639750421e-05,-0.0007067851256579161
9.46682757785311e-06,-5.8327001170255244e-05,2.3784745280863717e-05,1.7102646552302758e-06,-1.8258964701090008e-05,-0.0007781104650348425
1.0042840585811064e-05,-5.163086098036729e-05,2.8396947527653538e-05,8.918967068893835e-05,-1.8727314454736188e-05,-0.0006669227732345462
1.6893112842808478e-05,-3.583406942198053e-05,4.115440970053896e-05,0.0001886036479845643,-7.706416909059044e-06,-0.00046509678941220045
2.864720590878278e-05,-1.9393943148315884e-05,5.6647251767572016e-05,0.00022910561528988183,1.0413901691208594e-05,-0.00021528577781282365
4.4532240281114355e-05,-6.284992196015082e-06,7.031312270555645e-05,0.00021181354532018304,2.9292405088199303e-05,5.6995315389940515e-05
5.585353937931359e-05,-2.1063499389128992e-06,7.486576942028478e-05,0.00018498422286938876,3.75810923287645e-05,0.0002715715963859111
5.873881309526041e-05,-5.054880602983758e-06,7.328652282012627e-05,0.00016033176507335156,3.503605694277212e-05,0.0003656443441286683
5.839016012032516e-05,-3.5953194128524046e-06,7.06237624399364e-05,0.00012826541205868125,3.4278757084393874e-05,0.0003978070162702352
5.8228652051184326e-05,-2.398341507614532e-07,6.972660048631951e-05,8.618042193120345e-05,3.8789305108366534e-05,0.0003823491570074111
5.523790241568349e-05,-8.480048563797027e-06,6.287954602157697e-05,1.4048951015865896e-05,3.247899076086469e-05,0.00029522841214202344
4.40676485595759e-05,-3.112597551080398e-05,4.650298797059804e-05,-8.72760865604505e-05,6.999106972216396e-06,0.00017257528088521212
2.6273293769918382e-05,-5.9835587308043614e-05,2.5903393179760315e-05,-0.00017788763216231018,-2.6325666112825274e-05,1.5795409126440063e-05
9.464539289183449e-06,-8.711109694559127e-05,5.602355940936832e-06,-0.00021269169519655406,-5.6616656365804374e-05,-0.00019471179984975606
1.6000884670575033e-06,-0.0001034187080222182,-6.653775471932022e-06,-0.00017072007176466286,-7.700014248257503e-05,-0.0003989138640463352
4.312154487706721e-06,-0.00010298362030880526,-3.795868451561546e-06,-8.29996497486718e-05,-8.078962127910927e-05,-0.0005475456709973514
1.1936914233956486e-05,-9.211012365994975e-05,4.936465302307624e-06,-1.7992084394791164e-05,-7.295824616448954e-05,-0.0006124376668594778
1.6253983631031588e-05,-8.051248005358502e-05,6.540764843521174e-06,1.7747634046827443e-06,-6.712572940159589e-05,-0.0004831856058444828
1.5306135537684895e-05,-6.83766120346263e-05,5.478551884152694e-06,1.9644607164082117e-05,-6.215868052095175e-05,-0.0001173382843262516
1.493711351940874e-05,-5.889031308470294e-05,7.351961357926484e-06,6.3196690462064e-05,-5.0462047511246055e-05,0.0003150443371850997
1.450398031010991e-05,-5.670838800142519e-05,1.184204393211985e-05,0.00010474444570718333,-3.765015208045952e-05,0.0005329393898136914
9.545439752400853e-06,-6.606672104680911e-05,8.027707735891454e-06,9.797637176234275e-05,-3.3237982279388234e-05,0.0004933669697493315
1.2323330338404048e-06,-8.261010225396603e-05,-3.39420171258098e-06,5.655303175444715e-05,-3.5250381188234314e-05,0.0003240796213503927
-3.768636815948412e-06,-9.006953041534871e-05,-5.892500212212326e-06,7.31376712792553e-05,-3.803840445470996e-05,0.0001442889479221776
-2.0186304539038247e-07,-8.270130638265982e-05,7.247384473885177e-06,0.00017738304450176656,-3.659544381662272e-05,6.762504926882684e-05
8.263327799795661e-06,-6.856116669951007e-05,2.6922372853732668e-05,0.0002974758390337229,-2.8214579288032837e-05,-2.244253846583888e-05
1.416328814229928e-05,-5.7422512327320874e-05,4.01416327804327e-05,0.0003367009339854121,-1.996397622860968e-05,-0.000279464409686625
1.6604000848019496e-05,-5.221339961281046e-05,4.039335181005299e-05,0.0002623118634801358,-1.6936157408053987e-05,-0.0004781901661772281
1.888381302705966e-05,-5.211202733335085e-05,2.6372334104962647e-05,0.00013887688692193478,-2.0348372345324606e-05,-0.00041839887853711843
2.1826974261784926e-05,-5.37380255991593e-05,7.430627647408983e-06,4.06707295041997e-05,-2.8092141292290762e-05,-0.00015930003428366035
2.6163237635046244e-05,-5.476422666106373e-05,-3.2785367238830077e-06,1.016587930280366e-06,-3.2692500099074095e-05,0.00014600275608245283
2.861514985852409e-05,-5.5339583923341706e-05,-2.9017166980338516e-06,2.3626003894605674e-05,-3.8584181311307475e-05,0.0003708596050273627
2.712329660425894e-05,-5.2594547014450654e-05,6.777434919058578e-06,9.004794264910743e-05,-4.4283897295827046e-05,0.0004856308223679662
2.402889367658645e-05,-4.698011252912693e-05,1.7439333532820456e-05,0.00012974163109902292,-4.099143188796006e-05,0.0004978882498107851
2.3585989765706472e-05,-4.109834480914287e-05,2.5987506887759082e-05,9.78238313109614e-05,-1.8828814063454047e-05,0.00044000710477121174
2.383799983363133e-05,-3.2524054404348135e-05,3.356117304065265e-05,1.8557637304184027e-05,1.3112881788401864e-05,0.0003654377069324255
2.5349121642648242e-05,-2.27674263442168e-05,4.258459011907689e-05,-4.197372982162051e-05,3.2248117349809036e-05,0.00028623887919820845
2.8360313081066124e-05,-2.1186642698012292e-05,4.534495747066103e-05,-5.212006362853572e-05,3.0882220016792417e-05,0.00010263425792800263
2.8926653612870723e-05,-2.969069464597851e-05,4.0698792872717604e-05,-3.125877265119925e-05,2.1741268938058056e-05,-0.00014696492871735245
2.6275994969182648e-05,-4.010303018731065e-05,3.417489642743021e-05,-2.263636270072311e-05,2.2306918253889307e-05,-0.00026683564647100866
2.3061262254486792e-05,-4.7678342525614426e-05,2.698196840356104e-05,-6.74939583404921e-05,3.085661955992691e-05,-0.00021594508143607527
2.621504791022744e-05,-5.0068352720700204e-05,2.024153400270734e-05,-0.00016515971219632775,3.923778058378957e-05,-0.00011064373393310234
4.064443783136085e-05,-4.322431414038874e-05,2.2021949916961603e-05,-0.0002601545420475304,4.5869714085711166e-05,9.508607035968453e-06
6.048502109479159e-05,-2.948422115878202e-05,3.6036908568348736e-05,-0.00026162038557231426,5.100503403809853e-05,0.0001807073422241956
7.412397098960355e-05,-1.5252868251991458e-05,5.1848932344000787e-05,-0.00012949523807037622,4.80623020848725e-05,0.0003869487263727933
7.63165153330192e-05,-6.198511528054951e-06,6.228819984244183e-05,5.1602706662379205e-05,3.683528120745905e-05,0.0005654616397805512
6.882994784973562e-05,-7.565517989860382e-06,6.227046105777845e-05,0.00012295774649828672,2.5283850845880806e-05,0.0006665020482614636
6.128212407929823e-05,-1.4039474990568124e-05,5.726066592615098e-05,4.722120866063051e-05,2.8604690669453703e-05,0.0007155623170547187
6.131164991529658e-05,-1.4009030564920977e-05,6.212152948137373e-05,-6.764868157915771e-05,5.1164279284421355e-05,0.0006889741634950042
6.283761467784643e-05,-9.153480277745984e-06,7.782163447700441e-05,-0.00012353860074654222,6.811840285081416e-05,0.000564539572224021
5.3232444770401344e-05,-1.2277836503926665e-05,8.548842743039131e-05,-0.00012134572898503393,5.920499097555876e-05,0.0003858249692711979
4.2585463233990595e-05,-1.783863626769744e-05,8.290739060612395e-05,-8.797712507657707e-05,4.244978481438011e-05,8.120360143948346e-05
3.4010761737590656e-05,-2.178000249841716e-05,7.195624493760988e-05,1.011711447063135e-06,2.972542461066041e-05,-0.00042030573240481317
1.9515702661010437e-05,-3.525246575009078e-05,5.572192822000943e-05,7.422692578984424e-05,1.4805814316787291e-05,-0.0007765389746055007
7.305575309146661e-06,-5.78440485696774e-05,3.486792775220238e-05,5.306188904796727e-05,-4.815941792912781e-06,-0.0008166608167812228
-3.7415168208099203e-07,-8.345356764039025e-05,1.3654546819452662e-05,3.332362393848598e-05,-3.0262148356996477e-05,-0.0006806391174905002
-9.802408385439776e-06,-0.0001017101967590861,3.0339429031300824e-06,6.685458356514573e-05,-5.487247108248994e-05,-0.0004096154298167676
-2.4054659661487676e-05,-0.00011504624126246199,-4.455604084796505e-06,9.279277583118528e-05,-7.944636308820918e-05,-0.00011693222768371925
-3.820050187641755e-05,-0.00013024946383666247,-1.5607693057972938e-05,4.786584759131074e-05,-0.00010050026321550831,0.00010959587234538049
-4.074755634064786e-05,-0.00013559537183027714,-2.4638102331664413e-05,-2.783779382298235e-05,-0.00010240507981507108,0.00010457305324962363
-2.8308613764238544e-05,-0.00012241942749824375,-1.914173481054604e-05,-4.3697826185962185e-05,-8.390552102355286e-05,-8.273452112916857e-05
-9.955992936738767e-06,-9.929964289767668e-05,-3.446702748988173e-06,1.3025417501921766e-05,-5.8841043937718496e-05,-0.0002264586219098419
4.819122295884881e-06,-7.977359928190708e-05,1.093140417651739e-05,6.700457743136212e-05,-3.981808549724519e-05,-0.00019893543503712863
1.0742683116404805e-05,-6.932744872756302e-05,2.066810156975407e-05,6.456596020143479e-05,-3.03314645861974e-05,-8.884382987162098e-05
1.3375102753343526e-05,-6.601001223316416e-05,2.7198728275834583e-05,2.1229119738563895e-05,-2.440449497953523e-05,7.392703764708131e-07
1.77828023879556e-05,-6.364990986185148e-05,3.1608295103069395e-05,-9.716251042846125e-06,-2.1664498490281403e-05,7.446197560057044e-05
2.2213595002540387e-05,-5.871603570994921e-05,3.3709231502143666e-05,1.2151016562711447e-05,-2.5394405383849517e-05,0.00015722370881121606
2.294404293934349e-05,-5.248409433988854e-05,3.56548152922187e-05,7.06214559613727e-05,-3.475731864455156e-05,0.0002501205017324537
2.1301077140378766e-05,-4.597247971105389e-05,3.80707933800295e-05,0.00012664729729294777,-4.272471778676845e-05,0.00031620883964933455
2.0907596990582533e-05,-3.9115500840125605e-05,4.13518282584846e-05,0.00015691360749769956,-4.5332166337175295e-05,0.00032160247792489827
2.1519856090890244e-05,-3.551621557562612e-05,4.552467362373136e-05,0.00018151775293517858,-4.615495345206e-05,0.000246948329731822
2.4645965822855942e-05,-3.5645425668917596e-05,4.994349365006201e-05,0.00021398099488578737,-4.1409439290873706e-05,0.00018746595014818013
3.277590440120548e-05,-3.523300983943045e-05,5.207685171626508e-05,0.00023854257597122341,-2.5132821974693798e-05,0.00015508246724493802
4.023918154416606e-05,-3.51521885022521e-05,5.185171903576702e-05,0.00023710938694421202,-5.708418484573485e-06,7.557094795629382e-05
3.936799839721061e-05,-3.7646332202712074e-05,4.837186497752555e-05,0.000221413720282726,4.173816705588251e-06,-6.350201874738559e-05
3.52017414115835e-05,-3.6427714803721756e-05,4.913789962301962e-05,0.0001901455980259925,1.030372459354112e-05,-0.0001286343322135508
3.749974712263793e-05,-2.6815911041921936e-05,5.8931134844897315e-05,0.00013080121425446123,2.274231519550085e-05,-5.233768024481833e-05
4.492821608437225e-05,-1.9397088180994615e-05,6.401104474207386e-05,4.069805800099857e-05,3.568065949366428e-05,1.3594641131930985e-05
4.6900695451768115e-05,-1.8590237232274376e-05,5.8914858527714387e-05,-5.3318992286222056e-05,4.2357834900030866e-05,-3.315646608825773e-05
4.244104275130667e-05,-1.5491854355786927e-05,5.481787593453191e-05,-0.00011433853796916083,4.229892510920763e-05,-2.859001324395649e-05
3.325941361254081e-05,-1.7537058738525957e-05,5.3534109611064196e-05,-8.66636328282766e-05,2.397802018094808e-05,2.153873174393084e-05
2.0732411940116435e-05,-3.401753201615065e-05,4.9031303205993026e-05,5.162026718608104e-05,-1.2005270946247038e-05,8.687392983119935e-05
1.3523083907784894e-05,-5.2924282499589026e-05,3.8858292100485414e-05,0.00020016224880237132,-3.9301710785366595e-05,0.0002696842129807919
1.546142448205501e-05,-5.715035877074115e-05,2.4176786610041745e-05,0.00018890750652644783,-3.94845446862746e-05,0.000477784953545779
2.4699549612705596e-05,-5.019365926273167e-05,1.6440011677332222e-05,-2.5196604838129133e-06,-1.685708593868185e-05,0.0005763994995504618
3.581749115255661e-05,-4.306414120947011e-05,1.695820719760377e-05,-0.00019874882127624005,6.779971045034472e-06,0.0005682207411155105
4.1492261516395956e-05,-4.178151357336901e-05,1.4001503586769104e-05,-0.0002895185607485473,1.3909596418670844e-05,0.0005110792117193341
4.1436811443418264e-05,-4.474191882763989e-05,1.106030867958907e-05,-0.0002866278518922627,4.383541181596229e-06,0.00044107483699917793
3.286581704742275e-05,-4.7841975174378604e-05,1.2756384421663824e-05,-0.00024439231492578983,-9.229989700543229e-06,0.0003982004418503493
1.6695126760168932e-05,-5.804251122754067e-05,1.4691121577925514e-05,-0.00020001250959467143,-2.2832706235931255e-05,0.0003146095259580761
1.1139186426589731e-06,-7.108990394044667e-05,1.1839604667329695e-05,-0.00014383497182279825,-4.4300497393123806e-05,6.76816125633195e-05
-9.303549632022623e-06,-7.848870154703036e-05,9.63961338129593e-06,-6.88619002175983e-06,-7.414239371428266e-05,-0.00026056397473439574
-1.602636621100828e-05,-7.75548760429956e-05,1.2710271221294533e-05,0.0002361354127060622,-0.00010258100519422442,-0.0004695784591604024
-2.1739042495028116e-05,-6.965810462133959e-05,1.6032299754442647e-05,0.0004522073722910136,-0.00011344426457071677,-0.0005212235846556723
-2.162823875551112e-05,-6.134848081273958e-05,1.50223522723536e-05,0.00044783781049773097,-9.637700713938102e-05,-0.00048794623580761254
-1.2692401469394099e-05,-5.713556311093271e-05,1.0906745956162922e-05,0.00019906242960132658,-5.362245428841561e-05,-0.00040209395228885114
-1.1929661241083522e-06,-5.368495112634264e-05,1.5052248272695579e-05,-7.811321847839281e-05,-3.84698978450615e-06,-0.00027866841992363334
6.589478289242834e-06,-4.707797052105889e-05,3.3403452107449993e-05,-0.0001339595764875412,3.181282227160409e-05,-0.0001599740207893774
1.3352848327485844e-05,-3.728297815541737e-05,5.791043440694921e-05,5.528672772925347e-05,5.503667125594802e-05,-4.8434863856527954e-05
2.2723830625182018e-05,-2.7568004952627234e-05,7.525805995101109e-05,0.00024389862664975226,7.29710518498905e-05,6.426065374398604e-05
3.095539068453945e-05,-2.5269619072787464e-05,7.973216270329431e-05,0.00021984490740578622,7.275884127011523e-05,0.0001490459981141612
2.965686326206196e-05,-2.9975371944601648e-05,7.318409188883379e-05,8.126733882818371e-05,4.8003403207985684e-05,0.00019210789469070733
2.236977161373943e-05,-3.5704571928363293e-05,6.459157884819433e-05,6.01708197791595e-05,1.5315077689592727e-05,0.00018660738714970648
2.0704157577711158e-05,-3.722339897649363e-05,5.887002407689579e-05,0.00016369456716347486,-8.546424396627117e-06,7.523802196374163e-05
2.409459739283193e-05,-3.545682557160035e-05,5.147345655132085e-05,0.00022350074141286314,-1.948468889167998e-05,-0.00010787895735120401
1.9552820958779193e-05,-4.0681392420083284e-05,3.3801374229369685e-05,0.00016624116688035429,-2.6954534405376762e-05,-0.00017280051542911679
8.353017619810998e-06,-5.0759150326484814e-05,1.1888268090842757e-05,4.6025776100577787e-05,-3.896190537489019e-05,1.0936681064777076e-05
6.623495210078545e-06,-5.5193042499013245e-05,4.1688017518026754e-06,-3.655615000752732e-05,-4.688063927460462e-05,0.00023962989507708699
2.206175122410059e-05,-5.0360024033579975e-05,1.3251958080218174e-05,-5.321632124832831e-05,-3.148770338157192e-05,0.0003379862755537033
4.851823177887127e-05,-3.5065560950897634e-05,3.1212359317578375e-05,-8.070127660175785e-05,1.911378240038175e-05,0.0003259848745074123
7.189820462372154e-05,-1.6558820789214224e-05,4.769594670506194e-05,-0.0002017476363107562,8.193531539291143e-05,0.00021087232744321227
8.63429086166434e-05,-9.57944394031074e-07,5.0975941121578217e-05,-0.00038153649074956775,0.00012107065413147211,7.083355740178376e-05
9.153923747362569e-05,7.355811248999089e-06,4.686375905293971e-05,-0.0004933755844831467,0.00013120264338795096,-3.738873783731833e-05
8.975002128863707e-05,9.702313036541454e-06,4.839479151996784e-05,-0.0004751045780722052,0.00012498931027948856,-0.00011028275184798986
7.819438178557903e-05,3.090254722337704e-06,4.929275382892229e-05,-0.00036189358797855675,0.00010619018576107919,-0.00022473870194517076
5.194528785068542e-05,-2.2396552594727837e-05,3.422357622184791e-05,-0.0002632300602272153,7.259561243699864e-05,-0.0003013219975400716
2.1364558051573113e-05,-5.0580882088979706e-05,1.4800484677834902e-05,-0.00019113300368189812,3.451110751484521e-05,-0.00012691107986029238
4.068733687745407e-07,-6.626831600442529e-05,1.0462426871526986e-05,-5.871046596439555e-05,4.9777959247876424e-06,0.00020021926320623606
-1.2067222996847704e-05,-7.537690544268116e-05,1.7949210814549588e-05,0.0001357615110464394,-1.6954818420344964e-05,0.000295549922157079
-2.2212005205801688e-05,-8.600424189353362e-05,2.2091286155045964e-05,0.00029259425355121493,-3.90649183827918e-05,7.260258280439302e-05
-3.3663236536085606e-05,-9.936452261172235e-05,1.381237234454602e-05,0.00034113938454538584,-6.938909064047039e-05,-9.582331404089928e-05
-4.364922642707825e-05,-0.00010929790732916445,-1.0601194162518368e-06,0.0003061702009290457,-9.731419413583353e-05,7.800557068549097e-05
-4.227549288771115e-05,-0.0001064895186573267,-4.224516487738583e-06,0.0002524433075450361,-0.00010129321162821725,0.0004039095947518945
-2.6215922844130546e-05,-9.054951806319878e-05,1.2369411706458777e-05,0.00021267778356559575,-8.063961286097765e-05,0.0005133270751684904
-5.562627848121338e-06,-7.330288644880056e-05,3.382227077963762e-05,0.00017946161096915603,-5.4076288506621495e-05,0.0003792612114921212
8.741913006815594e-06,-6.204453529790044e-05,4.391922993818298e-05,0.00015077446005307138,-3.661644950625487e-05,0.00022536484175361693
1.3587265129899606e-05,-5.721626439481042e-05,3.980420660809614e-05,0.00013134432083461434,-3.3645250368863344e-05,5.143471935298294e-05
1.2598063221958e-05,-5.819679790874943e-05,2.964187297038734e-05,0.00012082454486517236,-4.0844170143827796e-05,-0.00035019181086681783
1.2766618056048173e-05,-5.934435466770083e-05,2.6190991775365546e-05,0.00011385639663785696,-4.610522955772467e-05,-0.0008056536898948252
1.8014645320363343e-05,-5.4172345699043944e-05,3.475176708889194e-05,0.00010636918159434572,-3.743039269465953e-05,-0.0007739908178336918
2.4238777768914588e-05,-4.5113909436622635e-05,4.1226106986869127e-05,8.655454439576715e-05,-1.9972074369434267e-05,-0.00021469876810442656
2.3488268197979778e-05,-4.193452696199529e-05,3.583752550184727e-05,5.9185065765632316e-05,-1.4880813978379592e-05,0.00023626608890481293
1.9450884792604484e-05,-4.60344526800327e-05,2.6635085305315442e-05,3.685857154778205e-05,-2.029153438343201e-05,0.0002950275666080415
1.6284475350403227e-05,-4.9165500968229026e-05,2.149147621821612e-05,2.2476089725387283e-05,-2.5562456357874908e-05,0.0002205962809966877
1.541131132398732e-05,-4.922006337437779e-05,1.6989188225124963e-05,1.1186281881236937e-05,-2.7201824195799418e-05,0.00022464107314590365
1.8420658307150006e-05,-4.2208455852232873e-05,1.988234907912556e-05,2.1817375454702415e-05,-2.314300581929274e-05,0.0002904905122704804
2.6866948246606626e-05,-2.941758430097252e-05,3.412881778785959e-05,4.839597022510134e-05,-1.0207443665422034e-05,0.0003438525309320539
3.2435578759759665e-05,-2.9138664103811607e-05,3.912483953172341e-05,4.6413395466515794e-05,-5.2986738410254475e-06,0.00034717097878456116
2.5915023798006587e-05,-5.3987299907021224e-05,2.206551653216593e-05,-7.970516890054569e-06,-3.0913306545699015e-05,0.00023715915449429303
1.2345472896413412e-05,-8.358653576578945e-05,-5.539201879400935e-07,-7.965665281517431e-05,-6.729063170496374e-05,2.811232661770191e-05
5.074702585261548e-06,-9.509301162324846e-05,-1.1353742593200877e-05,-0.00011702821939252317,-8.354943565791473e-05,-8.63744571688585e-05
1.2905205039714929e-05,-8.71133161126636e-05,-7.7655422501266e-06,-0.00011424552940297872,-7.343907782342285e-05,7.840631587896496e-05
2.904033499362413e-05,-6.825306627433747e-05,3.232532890251605e-06,-9.525041241431609e-05,-5.040271207690239e-05,0.0004336040874477476
4.4842050556326285e-05,-4.7935376642271876e-05,1.5054718460305594e-05,-6.41650112811476e-05,-3.311651380499825e-05,0.0007424225914292037
5.58902756893076e-05,-3.085287244175561e-05,2.676471194718033e-05,-2.645566155479173e-06,-2.9040742447250523e-05,0.0008335867314599454
6.490794476121664e-05,-1.763061482051853e-05,3.673898754641414e-05,7.918289338704199e-05,-2.9135011573089287e-05,0.0007246460299938917
7.613052002852783e-05,-7.549913334514713e-06,4.041281863464974e-05,0.00013108851271681488,-1.740572952257935e-05,0.0005409236182458699
8.515622903360054e-05,-3.369752221260569e-06,3.844587263301946e-05,0.00010039487824542448,1.0124113032361493e-05,0.000382473022909835
8.278656605398282e-05,-7.221631676657125e-06,3.933730840799399e-05,6.228478923731018e-06,3.6411493056220934e-05,0.00028771799406968057
6.815481901867315e-05,-2.1871192075195722e-05,4.26997103204485e-05,-5.4931555496295914e-05,3.9431466575479135e-05,0.0001390262332279235
4.857717431150377e-05,-3.965598079957999e-05,4.1937772039091215e-05,-1.0453508139107726e-06,1.7765421944204718e-05,-0.00020537957607302815
2.8724172807415016e-05,-5.1087008614558727e-05,3.7758836697321385e-05,0.00013351075176615268,-1.0041131645266432e-05,-0.0005912309279665351
1.057452755048871e-05,-5.7547800679458305e-05,3.397824184503406e-05,0.00020407837291713804,-2.4364884666283615e-05,-0.0006835893727838993
-3.4329384561715415e-06,-6.45968975732103e-05,2.9555974833783694e-05,0.00011649211955955252,-1.7952406778931618e-05,-0.0005441686953417957
-1.3549047253036406e-05,-7.310274668270722e-05,2.7542288080439903e-05,-1.6360663721570745e-05,-8.762100151216146e-06,-0.000557334627956152
-1.9683147911564447e-05,-7.975459448061883e-05,2.8741218557115644e-05,-2.4590117391198874e-05,-1.2533439985418227e-05,-0.0007439511246047914
-2.1521609596675262e-05,-8.257974695879966e-05,2.6061790777021088e-05,7.273421215359122e-05,-1.7873631804832257e-05,-0.0007769622025080025
-2.0039624359924346e-05,-8.520721166860312e-05,1.5560117390123196e-05,0.00012242753291502595,-1.4589102647732943e-05,-0.0005611014203168452
-1.5983847333700396e-05,-8.729775436222553e-05,4.67302197648678e-06,3.600075433496386e-05,-7.632168490090407e-06,-0.00027535163098946214
-6.862186637590639e-06,-8.351749420398846e-05,8.469346539641265e-06,-0.00011726169032044709,-6.171797508613963e-07,-3.378933251951821e-05
1.1349588021403179e-05,-6.863194721518084e-05,2.717413372010924e-05,-0.00012583067291416228,-6.298794801296026e-07,0.00013684578880202025
2.4255859898403287e-05,-5.1145616453140974e-05,3.971706973970868e-05,7.594986527692527e-05,-1.0508719242352527e-05,0.0002339204802410677
2.650615897437092e-05,-4.401567639433779e-05,4.1678660636534914e-05,0.00021430646302178502,-1.8547523723100312e-05,0.0002872405166272074
2.4192995624616742e-05,-4.495840039453469e-05,4.1310020606033504e-05,0.00016315361426677555,-2.1975098206894472e-05,0.0002660542377270758
2.1236044631223194e-05,-4.867408279096708e-05,3.8569269236177206e-05,8.24594681034796e-05,-2.3095253709470853e-05,0.0002196040004491806
2.3699683879385702e-05,-4.938204074278474e-05,3.7832891393918544e-05,6.21769213466905e-05,-1.7967306121136062e-05,0.00020260731980670244
2.5478448151261546e-05,-4.953651296091266e-05,3.713114347192459e-05,7.55544679122977e-05,-6.353929165925365e-06,0.00013858087186235934
2.2877740775584243e-05,-5.2504004997899756e-05,3.1746571039548144e-05,5.437944128061645e-05,4.476400135899894e-06,5.750688796979375e-05
1.544933365948964e-05,-5.523804429685697e-05,2.612576099636499e-05,6.9770262598467525e-06,1.0704360647650901e-05,-3.41142799697991e-06
9.203531590173952e-06,-5.2783158025704324e-05,2.7953594326390885e-05,-2.822963688231539e-05,1.078007244359469e-05,-5.801807128591463e-05
7.950872713990975e-06,-4.5873606723034754e-05,3.690046651172452e-05,-3.277737778262235e-05,3.980425844929414e-06,-9.495069389231503e-05
1.4510832443193067e-05,-3.709606971824542e-05,4.750256266561337e-05,-6.562509497598512e-06,-8.751030691200867e-06,-9.087350190384313e-05
2.767865953501314e-05,-2.8043552447343245e-05,5.772223448730074e-05,4.1088784200837836e-05,-1.98222460312536e-05,-3.632702282629907e-05
3.8869588024681434e-05,-1.811502625059802e-05,6.636504986090586e-05,0.00010132397437701002,-1.7503225535620004e-05,8.406519191339612e-05
4.575858838506974e-05,-8.202945537050255e-06,6.867809133837e-05,0.00013045665400568396,1.336733589596406e-06,0.00024959834991022944
5.22556874784641e-05,-2.3576994863105938e-06,6.21365979895927e-05,3.940157330362126e-05,3.941571412724443e-05,0.0004361307364888489
6.30636204732582e-05,-1.08162430478842e-06,5.489067189046182e-05,-0.00019336504919920117,8.838202484184876e-05,0.000614037096966058
7.457026367774233e-05,-2.755186869762838e-06,5.486766531248577e-05,-0.00043687940342351794,0.00012271224113646895,0.0007010719855315983
8.216397691285238e-05,-5.6682201829971746e-06,5.903603960177861e-05,-0.0005226433277130127,0.00012614512525033206,0.0006428032065741718
8.634585537947714e-05,-5.181106189411366e-06,6.243057578103617e-05,-0.00040228202124126256,0.00011417002679081634,0.0005055636283941567
8.54962709126994e-05,-4.119479399378179e-06,6.554453284479678e-05,-0.00019926243112422526,0.00010271275095874444,0.0003728667215909809
6.708075670758262e-05,-1.752944262989331e-05,6.0755748563678935e-05,-0.0001133866753662005,8.040388638619334e-05,0.0002059100370388478
3.430656943237409e-05,-3.948183803004213e-05,4.3933458073297516e-05,-0.00014689285308122635,4.001167690148577e-05,-1.6523459635209292e-05
7.019489657977829e-06,-5.391344893723726e-05,2.8509623007266782e-05,-6.862287409603596e-05,-4.958130375598557e-06,-0.00020169635536149144
-1.0861166629183572e-05,-6.594941805815324e-05,1.9810026060440578e-05,0.0001733042299747467,-4.82145078422036e-05,-0.0002443382400088012
-1.997831896005664e-05,-7.719395944150165e-05,1.7402460798621178e-05,0.0004088618152309209,-7.407200610032305e-05,-7.094021566445008e-05
-1.560803866595961e-05,-7.628551247762516e-05,2.404868973826524e-05,0.00048090843483805656,-7.117115455912426e-05,0.0003328659222461283
-9.747600415721536e-06,-7.087559788487852e-05,2.7529655199032277e-05,0.0003825071034952998,-6.757961091352627e-05,0.0008002478280104697
-1.9402490579523146e-05,-8.433710900135338e-05,1.2527499166026246e-05,0.0002837622305378318,-8.797664486337453e-05,0.0009220329811796546
-3.4247459552716464e-05,-0.00010885042865993455,-1.0600899258861318e-05,0.00025809332146309316,-0.00011729480320354924,0.0006099821184761822
-3.858797936118208e-05,-0.00012150729889981449,-2.4941075025708415e-05,0.00021540165471378714,-0.00012692221207544208,5.135899118613452e-05
-3.058070797123946e-05,-0.0001172980191768147,-2.296671664225869e-05,0.00015936745330691338,-0.00011019201338058338,-0.0005174133111722767
-1.7972453861148097e-05,-0.00010083916276926175,-5.198006874707062e-06,0.00014308879326563329,-8.319757034769282e-05,-0.0007273891242220998
-1.404445902153384e-05,-8.843126852298155e-05,9.198771294904873e-06,0.0001704910391708836,-7.142070535337552e-05,-0.0006462734309025109
-1.5114938832994085e-05,-8.25293900561519e-05,1.2905540643259883e-05,0.0002093463990604505,-7.659621041966602e-05,-0.0005126206087879837
-1.378410161123611e-05,-7.587475556647405e-05,1.5513369362452067e-05,0.0002492412750143558,-8.402517414651811e-05,-0.00047152742627076805
-5.953288564342074e-06,-6.691338785458356e-05,2.2264594008447602e-05,0.0002686817024368793,-7.674285006942227e-05,-0.0004782044270541519
8.863625225785654e-06,-5.626039273920469e-05,2.962866346933879e-05,0.00015766025171615183,-4.321786036598496e-05,-0.0004394970601424575
2.514760308258701e-05,-4.921243089484051e-05,3.2233994716079906e-05,-7.752903911750764e-05,5.819591706313076e-07,-0.00033313516178168356
3.470141382422298e-05,-5.1374390750424936e-05,3.0128760045045055e-05,-0.00022725574672222137,2.027419577643741e-05,-0.00021656168974004686
3.5088574804831296e-05,-5.837715434608981e-05,2.922261592175346e-05,-0.0001852864952525124,7.894946975284256e-06,-0.00014578437549062073
3.021682277903892e-05,-6.135817238828167e-05,3.180183921358548e-05,-6.562061025761068e-05,-1.2190524103061762e-05,-0.00010152759932680055
2.5056871891138144e-05,-5.795646575279534e-05,3.248691064072773e-05,1.31861552290502e-05,-2.7551794119062833e-05,-2.531097015889827e-05
2.3234444597619586e-05,-5.322090146364644e-05,2.949285408249125e-05,7.070910942275077e-05,-4.729137071990408e-05,0.00010216423106612638
2.3941975086927414e-05,-5.191234959056601e-05,2.8048389140167274e-05,0.0001580196403665468,-7.149527664296329e-05,0.00021932189702056348
2.7902802685275674e-05,-4.9039022997021675e-05,3.3942400477826595e-05,0.0002442666154820472,-8.179883297998458e-05,0.0002828734868671745
3.498648220556788e-05,-3.812933573499322e-05,4.286995317670517e-05,0.00026739935856312513,-6.967035733396187e-05,0.0002691806002985686
4.3041818571509793e-05,-2.1550431483774446e-05,4.7463574446737766e-05,0.00020437545026652515,-4.177957453066483e-05,0.00023951746698003262
5.163950481801294e-05,-8.223158147302456e-06,4.7051078581716865e-05,6.744339771103114e-05,6.213709866642603e-07,0.0002484956057742238
6.684891559416428e-05,3.350833139847964e-06,5.313798465067521e-05,-8.964335575001314e-05,6.002510417602025e-05,0.00024227745598182082
8.340379281435162e-05,1.5266030459315516e-05,7.141500827856362e-05,-0.00018187267414759845,0.00011976814130321145,2.5209641535184346e-05
8.450613677268848e-05,1.215356769534992e-05,8.120964048430324e-05,-0.00020700806635431945,0.00014836780610494316,-0.0002699718461371958
6.94015616318211e-05,-1.349473950540414e-05,6.374653457896784e-05,-0.00023407886328641325,0.000136323127662763,-0.0002857013314496726
5.08490193169564e-05,-4.393242852529511e-05,3.23141211993061e-05,-0.0002990871435031295,0.00010445308726048097,-4.143535261391662e-05
3.8884998502908275e-05,-6.29640489933081e-05,1.2296959539526142e-05,-0.0003200690262019634,7.067678961902857e-05,0.0002523800649214536
3.614613524405286e-05,-6.420482532121241e-05,9.06401237443788e-06,-0.00025777105474844575,4.193544009467587e-05,0.0004325488698668778
3.636683686636388e-05,-6.069253504392691e-05,1.0762811143649742e-05,-0.0002081923739751801,2.0986555682611652e-05,0.00044812020496465266
3.6211247788742185e-05,-5.513842188520357e-05,1.629707549000159e-05,-0.00016103763482533395,9.314951057604048e-06,0.0004590102762449533
3.0622184567619115e-05,-4.52764579677023e-05,2.933111863967497e-05,-6.950186798349023e-05,6.047333954484202e-06,0.0005599569994956255
1.8347809600527398e-05,-4.806069773621857e-05,4.1420826164539903e-05,-7.211270258267177e-06,4.309737505536759e-06,0.0007044292287901044
7.080518571456196e-06,-5.878748561372049e-05,4.724491009255871e-05,-4.848147364100441e-05,5.103992862132145e-06,0.0007667610188946128
7.241671937663341e-06,-6.087057408876717e-05,5.416275962488726e-05,-0.00014972113422118127,1.7589494746061973e-05,0.0007277486147359014
1.244387385668233e-05,-5.474138743011281e-05,6.203001976246014e-05,-0.00016471043636556715,3.203126470907591e-05,0.0006285036215558648
9.227341251971666e-06,-5.393850733526051e-05,5.9494326706044376e-05,-7.234533404698595e-05,2.6046292987302877e-05,0.00040162712684832513
-2.44487250711245e-06,-5.856766802025959e-05,4.454436566447839e-05,4.18054660258349e-05,9.253707844436576e-07,-7.471319258911535e-05
-1.41952577905613e-05,-6.456147821154445e-05,2.8263029889785685e-05,0.00011101156269432977,-2.3934771888889372e-05,-0.0005316082388162613
-1.971642632270232e-05,-7.039501360850409e-05,1.567190520290751e-05,9.607031097402796e-05,-3.2036401535151526e-05,-0.0005942669813521206
-1.863231045717839e-05,-7.333391840802506e-05,1.2404429071466438e-05,2.529997618694324e-05,-2.3128024622565135e-05,-0.000371084752259776
-1.2714266631519422e-05,-6.950116949155927e-05,2.460311952745542e-05,7.468164312740555e-06,-1.2271790183149278e-05,-0.0002652124676387757
-7.2581315180286765e-06,-6.139391189208254e-05,4.3954685679636896e-05,0.00011856297351187095,-1.2084897207387257e-05,-0.00031723457504995167
-6.631785709032556e-06,-5.967371180304326e-05,5.3782776376465335e-05,0.0002820382942445576,-2.630248127388768e-05,-0.0003187406691722572
-9.606634193914942e-06,-6.681850936729461e-05,4.550023368210532e-05,0.0003469599178060889,-4.834929131902754e-05,-0.00031811193912290037
-7.258382538566366e-06,-7.147584983613342e-05,2.9149718102416955e-05,0.00028277671663090587,-6.734279304509982e-05,-0.00035072825266979635
3.2519983506063e-06,-6.704248517053202e-05,1.6724769011489116e-05,0.0001901801733765751,-7.875066512497142e-05,-0.00024082971503958106
1.9556842744350433e-05,-5.989301280351356e-05,1.5085555787663907e-05,0.00013966583355795592,-8.035698556341231e-05,0.00011515893856994808
3.566401937860064e-05,-5.203160981182009e-05,2.202358518843539e-05,0.0001318211725447327,-7.511254079872742e-05,0.00045105136814527214
4.784755583386868e-05,-4.078023994225077e-05,3.181568536092527e-05,0.00013509001291822642,-6.925989146111533e-05,0.0005059874965809286
5.7926459703594446e-05,-2.6655905458028428e-05,4.231173807056621e-05,0.00013811544340569526,-6.584333459613845e-05,0.00033447719761170447
6.654406024608761e-05,-1.536665513413027e-05,4.963494211551733e-05,0.0001581001706654206,-6.845880125183612e-05,0.0001620788243599236
7.45962533983402e-05,-1.051487652148353e-05,5.1695486035896465e-05,0.00019927637185901403,-7.403279596474022e-05,0.00014235962589737028
8.069885370787233e-05,-1.2805523510905914e-05,4.795647691935301e-05,0.00021102800383232534,-7.056865433696657e-05,0.0002187194477301091
7.361528696492314e-05,-2.4825732907629572e-05,3.072444815188646e-05,0.00013979741197545081,-5.623756442219019e-05,0.00014356077008415014
5.270439214655198e-05,-4.564691334962845e-05,5.1100191740260925e-06,3.9120717701734975e-05,-4.795283530256711e-05,-8.722718484932557e-05
3.472474418231286e-05,-5.8270572480978444e-05,-4.889749106951058e-06,-3.707684300024994e-05,-4.850416735280305e-05,-0.00031917114392854273
2.6391904611955397e-05,-5.5973741837078705e-05,9.165024493995588e-06,-8.19827982923016e-05,-4.1340004827361554e-05,-0.0003974485443904996
1.6156831406988204e-05,-5.7607379858382046e-05,2.6898989744950086e-05,-0.00010278769332217053,-2.2824422558187507e-05,-0.000338914105668664
1.7411524595445371e-06,-6.82005993439816e-05,2.8878583179903217e-05,-0.00015113610425032675,-1.9824715309368912e-06,-0.0002181142190238461
-2.428020707156975e-06,-6.697098433505744e-05,2.9663147870451212e-05,-0.00017014439799822867,3.396761167095974e-05,-8.380450890399516e-05
8.757042451179586e-06,-4.3409345380496234e-05,4.668613109970465e-05,-8.893868653103709e-05,8.013361366465688e-05,-2.523145667510107e-05
2.4717966880416498e-05,-1.121167679229984e-05,7.044035010039806e-05,7.421505870297551e-05,9.990559192374349e-05,3.957771696150303e-05
3.650232974905521e-05,2.6003533548646374e-06,7.98025430412963e-05,0.00021321054373402148,9.066207712749019e-05,0.00019449007231742144
4.095993790542707e-05,-8.807232916296925e-06,6.782587297493592e-05,0.00022159842774271965,7.045449456200004e-05,0.00039194623241201043
3.6238667235011235e-05,-3.223743988201022e-05,4.937975245411508e-05,0.00013099231000524014,4.282929512555711e-05,0.0005089434562250972
2.452769513183739e-05,-5.317734758136794e-05,3.541783007676713e-05,5.718129614251666e-05,7.570264187961584e-06,0.0005514162476174533
1.239345692738425e-05,-6.661779480054975e-05,2.5144188839476556e-05,2.905754081439227e-05,-1.3545261936087627e-05,0.0006076178979128599
7.737472515145782e-06,-7.040012860670686e-05,1.641341623326298e-05,-2.8772261430276558e-05,-3.611302190620336e-07,0.0005997333792038262
8.369453098566737e-06,-6.526146898977458e-05,1.4011737221153453e-05,-0.00015283616085071117,3.1128885893849656e-05,0.00030988920480012894
8.390506081923377e-06,-5.54590551473666e-05,2.0278450392652303e-05,-0.00028478947933763266,5.08301418449264e-05,-0.00023679061268921942
6.465357273555128e-06,-4.518775676842779e-05,3.193457087036222e-05,-0.0003172379219904542,5.0288574129808694e-05,-0.0007216377998702228
3.5438613394944696e-06,-4.109526707907207e-05,4.2689174733823165e-05,-0.00019086297834292054,3.1893014238448814e-05,-0.0008919432293623686
-1.4266878451962839e-06,-4.421327685122378e-05,4.516361514106393e-05,4.851264020544477e-05,-8.372286401936435e-07,-0.0007126681739464402
-5.740074357163394e-06,-4.975533011020161e-05,3.78690856450703e-05,0.0002557773841544986,-3.11857475026045e-05,-0.0003711945319082588
-6.231386123545235e-06,-5.6139611842809245e-05,2.4383223717450164e-05,0.0002965025487355888,-4.838175300392322e-05,-0.00016190987662412226
-4.4128455556347035e-06,-6.521214527310804e-05,1.1498093044792768e-05,0.0001783182378858328,-5.599349969998002e-05,-0.00012184168008388951
1.8518832121117157e-06,-6.99227603035979e-05,7.578459189971909e-06,6.670049333479255e-05,-5.755643724114634e-05,-5.350649371393956e-05
1.2381086889945436e-05,-6.944288907106966e-05,8.711483133083675e-06,5.6506713008275256e-05,-6.0061021940782666e-05,9.881860023597255e-05
2.2528764020535164e-05,-6.637739716097713e-05,1.0404495697002858e-05,0.0001022035867208615,-6.400887650670484e-05,0.00021413314971141517
3.1813066016184166e-05,-5.906121077714488e-05,1.5398618415929377e-05,0.00013808543735649437,-6.421042780857533e-05,0.00023108393361326307
4.095687108929269e-05,-4.6614539314759895e-05,2.069520633085631e-05,0.0001306146295974031,-6.547783414134756e-05,0.00022920405899640173
4.5788008719682693e-05,-4.4559947127709165e-05,1.7662781829130836e-05,0.0001034760134643875,-7.187115988926962e-05,0.000334156648023054
4.175387221039273e-05,-4.863146023126319e-05,7.888266736699734e-06,0.00010899554763454944,-7.421588088618591e-05,0.0005839118384756148
3.749651659745723e-05,-4.566785355564207e-05,6.931903499207692e-06,0.00014110263145994395,-5.790555223939009e-05,0.00082594488048926
4.036728205392137e-05,-3.6730682040797547e-05,1.7488540834165178e-05,0.00013637404481414706,-2.9044276743661612e-05,0.0008919066749513149
4.429225737112574e-05,-2.893514647439588e-05,2.93703269562684e-05,4.780822928296402e-05,-8.729264663998038e-06,0.0007757014827802777
4.879842163063586e-05,-2.4028999177971855e-05,3.6476925743045285e-05,-6.808119360357523e-05,-2.4770122308837017e-06,0.000572987599298358
5.482038250193e-05,-1.8957542124553584e-05,3.870123327942565e-05,-0.00014092031051404774,4.599826866069634e-07,0.0003093488921876997
5.52262608835008e-05,-2.2999252905719914e-05,3.3160999009851366e-05,-0.00021367579756770283,3.0597914246754954e-06,-4.1542738472344354e-05
4.5954639062983915e-05,-3.060997914872132e-05,2.967797263409011e-05,-0.00026032584719359875,3.6397595977177843e-06,-0.00028058953466825187
3.8069534639362246e-05,-3.4378354030195624e-05,4.0693237679079175e-05,-0.00017588229093234986,9.158853572444059e-06,-0.00021714597824029624
4.0065784560283646e-05,-3.179719715262763e-05,5.820665683131665e-05,-6.222754745977e-05,2.7579551897360943e-05,-4.707533662440255e-05
4.3522748455870897e-05,-3.330821346025914e-05,6.09312774031423e-05,-8.660732419230044e-05,5.262267222860828e-05,-1.4810072570980992e-05
