6.598389973078156e-06,-4.970683221472427e-05,3.358578760526143e-05,1.240717392647639e-05,-1.5464069292647764e-05,5.605975093203597e-05
1.2407615031406749e-05,-4.904667366645299e-05,4.205574805382639e-05,4.538230314210523e-06,-1.9911136405426078e-05,5.4345531680155545e-05
1.930439429997932e-05,-5.331899592420086e-05,4.4427939428715035e-05,2.753150283751893e-06,-1.999221058213152e-05,5.4452622862299904e-05
2.4244813175755553e-05,-5.8155088481726125e-05,4.1619830881245434e-05,1.7829421267379075e-05,-1.9357234123162925e-05,5.56134145881515e-05
2.4384629796259105e-05,-6.028854477335699e-05,3.7041430914541706e-05,4.647704918170348e-05,-2.57711890299106e-05,6.088973532314412e-05
2.2910971892997622e-05,-5.8245328546036035e-05,3.715672210091725e-05,6.937302532605827e-05,-3.186535104759969e-05,6.446949555538595e-05
2.0664198018494062e-05,-5.299770418787375e-05,3.929781814804301e-05,7.926537364255637e-05,-3.5128967283526435e-05,6.149215187178925e-05
1.689964483375661e-05,-4.821310722036287e-05,4.103694300283678e-05,7.619959069415927e-05,-3.4727567253867164e-05,5.697055166820064e-05
1.472819803893799e-05,-4.740066287922673e-05,3.907642894773744e-05,6.6081338445656e-05,-3.129790638922714e-05,5.8076082495972514e-05
1.4857954738545232e-05,-4.7513425670331344e-05,3.3364296541549265e-05,5.447193325380795e-05,-2.9094208002788946e-05,6.310398748610169e-05
1.4017720786796417e-05,-4.674534284276888e-05,3.0714276363141835e-05,4.2972566006937996e-05,-2.7414758733357303e-05,6.212924927240238e-05
1.0658862265700009e-05,-4.6174558519851416e-05,3.2397223549196497e-05,3.240005025872961e-05,-2.6846490072784945e-05,5.805199180031195e-05
6.463066256401362e-06,-4.7243604058166966e-05,3.559277320164256e-05,2.313833283551503e-05,-2.688817767193541e-05,5.69535513932351e-05
4.948954028805019e-06,-4.975042611476965e-05,3.5828372347168624e-05,1.9257196981925517e-05,-2.6659432478481904e-05,6.0673301049973816e-05
7.372143954853527e-06,-5.1123199227731675e-05,3.381323767825961e-05,2.0902632968500257e-05,-2.699343349377159e-05,6.382812716765329e-05
1.1319967597955838e-05,-5.0753882533172145e-05,3.176905374857597e-05,2.1175541405682452e-05,-2.6172907382715493e-05,6.189888517837971e-05
1.534229886601679e-05,-4.958484350936487e-05,2.992530971823726e-05,1.4582733456336427e-05,-2.2110360077931546e-05,5.711117773898877e-05
1.9182531104888767e-05,-4.934217213303782e-05,2.853659498214256e-05,1.9260048702562926e-06,-1.5641944628441706e-05,5.5618485930608585e-05
2.2269521650741808e-05,-4.916275429422967e-05,2.87253951682942e-05,-6.715844392601866e-06,-9.65458184509771e-06,5.720263288822025e-05
2.185475932492409e-05,-4.879117477685213e-05,3.0018196412129328e-05,-3.1341303383669583e-06,-4.8124443310371134e-06,5.8724672271637246e-05
2.0931776816723868e-05,-4.933885793434456e-05,3.267449210397899e-05,9.358365787193179e-06,-1.0247642734384499e-07,5.921419869991951e-05
2.392474743828643e-05,-5.072765998193063e-05,3.319632378406823e-05,2.130103348463308e-05,4.771713520312915e-06,6.097395089454949e-05
3.1054420105647296e-05,-5.1597140554804355e-05,2.9908835131209344e-05,2.5464976715738885e-05,7.066000762279145e-06,6.338796811178327e-05
3.549479151843116e-05,-5.2810562920058146e-05,2.797588058456313e-05,2.639894955791533e-05,6.5069061747635715e-06,6.678258796455339e-05
3.452901364653371e-05,-5.4668038501404226e-05,2.7377798687666655e-05,3.207314512110315e-05,7.87039243732579e-06,6.922770262463018e-05
3.327200829517096e-05,-5.5063799663912505e-05,2.7162626793142408e-05,3.826919419225305e-05,1.02095809779712e-05,6.66051491862163e-05
3.258388824178837e-05,-5.4736676247557625e-05,2.9083865229040384e-05,3.951095641241409e-05,1.0885458323173225e-05,6.354379002004862e-05
3.05290705000516e-05,-5.41274348506704e-05,3.0174958737916313e-05,3.5064735129708424e-05,7.464728696504608e-06,6.566147203557193e-05
2.829159529937897e-05,-5.176962440600619e-05,2.802928793244064e-05,2.9455117328325287e-05,5.865456387255108e-06,6.874328391859308e-05
2.765432873275131e-05,-4.9517606385052204e-05,2.6407507903059013e-05,2.7259284252068028e-05,6.229234713828191e-06,6.798957474529743e-05
2.7731648515327834e-05,-4.75647539133206e-05,2.617112113512121e-05,2.8525928428280167e-05,5.631354724755511e-06,6.798502727178857e-05
2.6951018298859708e-05,-4.7999950766097754e-05,2.5170325898216106e-05,3.069696685997769e-05,5.315033831720939e-06,7.142957474570721e-05
2.54250735451933e-05,-4.9467005737824365e-05,2.503613541193772e-05,3.271453169872984e-05,2.5621591248636832e-06,7.44212229619734e-05
2.3864256945671514e-05,-4.890726995654404e-05,2.4528098947484978e-05,3.3312622690573335e-05,-4.2656579353206325e-06,7.346710481215268e-05
2.0896035493933596e-05,-4.916516627417877e-05,2.497286732250359e-05,3.0608487577410415e-05,-1.2372430319373962e-05,7.169617310864851e-05
1.8522623577155173e-05,-4.9297410441795364e-05,2.721255259530153e-05,2.825147566909436e-05,-1.745421832310967e-05,7.23682896932587e-05
1.7008302165777422e-05,-4.999204247724265e-05,2.8462471163948067e-05,3.0599232559325173e-05,-2.041744301095605e-05,7.231836934806779e-05
1.659082408878021e-05,-5.121042704558931e-05,2.7198457246413454e-05,3.3584969060029835e-05,-2.111286266881507e-05,7.065169484121725e-05
1.6834035704960115e-05,-5.332332875696011e-05,2.705561746552121e-05,3.570694025256671e-05,-2.1680873032892123e-05,6.818851397838444e-05
1.498171786806779e-05,-5.336129470379092e-05,2.7535883418750018e-05,3.89595479646232e-05,-2.2001324396114796e-05,6.1879436543677e-05
1.1934410395042505e-05,-5.153322854312137e-05,2.7505060643306933e-05,4.099066791241057e-05,-2.076474265777506e-05,5.625890116789378e-05
1.1078664101660252e-05,-4.865158553002402e-05,2.935763041023165e-05,4.141084718867205e-05,-1.9365681509952992e-05,5.511728522833437e-05
1.5014691598480567e-05,-4.6048593503655866e-05,3.15245270030573e-05,3.989228935097344e-05,-1.9230941688874736e-05,5.6736942497082055e-05
2.1361980543588288e-05,-4.6774955990258604e-05,2.98263239528751e-05,3.521643520798534e-05,-1.9613078620750457e-05,5.917711678193882e-05
2.4198803657782264e-05,-5.213269105297513e-05,2.7103544198325835e-05,2.7951748052146286e-05,-1.9127701307297684e-05,6.082264008000493e-05
2.1294237740221433e-05,-5.669984602718614e-05,2.795519685605541e-05,2.480426883266773e-05,-1.696746767265722e-05,6.122304330347106e-05
1.7189480786328204e-05,-5.364585740608163e-05,2.9997099773027003e-05,2.5533578082104214e-05,-1.382258597004693e-05,6.248821591725573e-05
1.6733767552068457e-05,-4.748388164443895e-05,3.314692003186792e-05,2.655068237800151e-05,-1.2243214769114275e-05,6.488965300377458e-05
1.8130602256860584e-05,-4.5134660467738286e-05,3.585917875170708e-05,2.9127368179615587e-05,-1.40235088110785e-05,6.179711635923013e-05
1.699456333881244e-05,-4.5283282815944403e-05,3.6393903428688645e-05,3.116742300335318e-05,-1.9056913515669294e-05,5.555818279390223e-05
1.7421876691514626e-05,-4.623658605851233e-05,3.635267057688907e-05,2.953252442239318e-05,-2.7286429030937143e-05,5.505135050043464e-05
2.072707866318524e-05,-4.9648537242319435e-05,3.5278473660582677e-05,2.991620931425132e-05,-3.596068199840374e-05,5.822594175697304e-05
2.248615783173591e-05,-5.113951920066029e-05,3.04618679365376e-05,3.321563417557627e-05,-3.965231007896364e-05,5.6804379710229114e-05
2.218689587607514e-05,-4.874779187957756e-05,2.7196625524084084e-05,3.512054536258802e-05,-3.83254919142928e-05,5.855655035702512e-05
2.1266116164042614e-05,-4.598290615831502e-05,2.7470261557027698e-05,3.3922311558853835e-05,-3.301227116025984e-05,6.501965981442481e-05
1.8840290067601018e-05,-4.4060525397071615e-05,2.7302534363116138e-05,3.188870687154122e-05,-2.609157127153594e-05,6.606185343116522e-05
1.9037061065318994e-05,-4.2576131818350405e-05,2.6575862648314796e-05,3.0888888431945816e-05,-1.7766009477782063e-05,6.613972072955221e-05
2.001975735765882e-05,-4.198519673082046e-05,2.6523292035562918e-05,2.9341576009755954e-05,-7.798307706252672e-06,6.588686665054411e-05
1.7633801689953543e-05,-4.266416726750322e-05,2.5538642148603685e-05,3.0211576813599095e-05,1.9698691176017746e-06,6.182910146890208e-05
1.4502740668831393e-05,-4.66328565380536e-05,2.4834860596456565e-05,3.181194915669039e-05,6.4588703025947325e-06,5.816890188725665e-05
1.1189134966116399e-05,-4.9768936150940135e-05,2.6471305318409577e-05,3.248950815759599e-05,9.668940037954599e-06,5.762786531704478e-05
9.552444680593908e-06,-5.228217560215853e-05,2.8561102226376534e-05,3.0003426218172535e-05,1.58564744197065e-05,5.709542892873287e-05
9.404883712704759e-06,-5.289029286359437e-05,2.8022395781590603e-05,2.367388515267521e-05,1.965142655535601e-05,5.751708886236884e-05
1.1151150829391554e-05,-5.052772758062929e-05,2.3634098397451453e-05,1.7023199688992463e-05,2.1449588530231267e-05,5.8708072174340487e-05
1.3372455214266665e-05,-5.076881643617526e-05,2.1944179025013e-05,1.3622527148982044e-05,2.2376047127181664e-05,6.071297320886515e-05
1.582708500791341e-05,-5.281692574499175e-05,2.6529312890488654e-05,1.534982402517926e-05,2.1791427570860833e-05,6.334933277685195e-05
1.7138614566647448e-05,-4.930687646265142e-05,3.0826980946585536e-05,2.1144487618585117e-05,2.0503970517893322e-05,6.126362859504297e-05
1.7397715055267327e-05,-4.5029850298305973e-05,3.190363713656552e-05,2.7427598979556933e-05,1.8769202142721042e-05,5.2345978474477306e-05
1.8778195226332173e-05,-4.576312130666338e-05,3.160756023135036e-05,2.7818314265459776e-05,1.5525904018431902e-05,4.2718809709185734e-05
2.0467246940825135e-05,-4.841886766371317e-05,3.136119994451292e-05,2.2084821466705762e-05,1.027850612445036e-05,3.8291935197776183e-05
2.164471152354963e-05,-5.022617187933065e-05,3.200641003786586e-05,1.8786131477099843e-05,2.6386167064629262e-06,3.965384530602023e-05
2.3160713681136258e-05,-5.024315760238096e-05,3.318082963232882e-05,2.13952280319063e-05,-6.307932380877901e-06,4.24916397605557e-05
2.5472168999840505e-05,-5.085139855509624e-05,3.3798758522607386e-05,2.342291372769978e-05,-1.3485984709404875e-05,4.479900962905958e-05
2.7943084205617197e-05,-5.1851737225661054e-05,3.316937363706529e-05,2.123118429153692e-05,-1.8033288142760284e-05,4.946253466187045e-05
3.0117944334051572e-05,-5.304720616550185e-05,3.242999082431197e-05,1.61945863510482e-05,-2.0443032553885132e-05,5.498552854987793e-05
2.9163555154809728e-05,-5.201628300710581e-05,3.424620081204921e-05,1.2439296369848307e-05,-1.986827737709973e-05,5.836429772898555e-05
2.7692132789525203e-05,-4.962690218235366e-05,3.692360405693762e-05,1.5061714293551631e-05,-1.706418152025435e-05,5.807393972645514e-05
2.7732106900657527e-05,-4.8505728045711294e-05,3.736286089406349e-05,2.078768375213258e-05,-1.4861730960546993e-05,5.660123497364111e-05
3.0357163268490694e-05,-4.764168625115417e-05,3.8106736610643566e-05,2.3080270693753846e-05,-1.3310751455719583e-05,5.854677874594927e-05
3.336331792525016e-05,-4.89628582727164e-05,4.0379534766543657e-05,2.4966811906779185e-05,-1.0053968253487255e-05,6.155482697067782e-05
3.406824544072151e-05,-5.311169661581516e-05,4.0824543248163536e-05,2.660335121618118e-05,-6.651447620242834e-06,6.1955870478414e-05
3.4666460123844445e-05,-5.359871283872053e-05,3.814928641077131e-05,2.5303348593297414e-05,-6.723552814946743e-06,6.480990850832313e-05
3.616985122789629e-05,-5.125502138980664e-05,3.802587161771953e-05,2.7280078938929364e-05,-9.532827789371368e-06,6.539859168697149e-05
3.633177766459994e-05,-5.0914397434098646e-05,3.872985689667985e-05,3.091781763941981e-05,-1.4069834833208006e-05,5.904160570935346e-05
3.512293551466428e-05,-5.13784762006253e-05,3.873217792715877e-05,2.9445631298585795e-05,-2.5281255148001947e-05,5.488555325428024e-05
3.1743344152346253e-05,-5.1309933041920885e-05,3.761025800486095e-05,2.6437779524712823e-05,-3.84399936592672e-05,5.734729711548425e-05
2.569701428001281e-05,-5.117178079672158e-05,3.384102456038818e-05,2.4857743483153172e-05,-4.313386671128683e-05,6.242191739147529e-05
2.5637838916736655e-05,-5.1188897487008944e-05,3.350223778397776e-05,2.40070148720406e-05,-3.951712278649211e-05,6.555268191732466e-05
2.8639369702432305e-05,-5.2708292059833184e-05,3.5307020880281925e-05,2.362395935051609e-05,-3.308591112727299e-05,6.330896576400846e-05
3.116835068794899e-05,-5.3427156672114506e-05,3.6725105019286275e-05,2.5095434466493316e-05,-2.6669547878555022e-05,6.0805145039921626e-05
3.231648588553071e-05,-5.141610745340586e-05,3.656191984191537e-05,2.536042666179128e-05,-2.1564368580584414e-05,6.008978743921034e-05
3.2710337109165266e-05,-5.0128757720813155e-05,3.328569800942205e-05,2.361690712859854e-05,-1.6117341147037223e-05,6.224522803677246e-05
3.2613304938422516e-05,-5.211928873904981e-05,2.7113974283565767e-05,2.649963971634861e-05,-9.2727068476961e-06,6.798286631237715e-05
3.11964176944457e-05,-5.546510510612279e-05,2.24305458687013e-05,3.177966573275626e-05,-1.661807232267165e-06,7.14912821422331e-05
2.894333010772243e-05,-5.890387183171697e-05,2.2488418835564516e-05,3.54440780938603e-05,4.442790668690577e-06,6.899817526573315e-05
2.7273334126221016e-05,-6.060062150936574e-05,2.2681426344206557e-05,3.801122511504218e-05,7.696476131968666e-06,6.496674905065447e-05
2.8347243642201647e-05,-5.8403340517543256e-05,2.3630289433640428e-05,3.932924664695747e-05,9.387804311700165e-06,6.293202022789046e-05
2.8848178772022948e-05,-5.3076819312991574e-05,2.8035599825670943e-05,3.840206773020327e-05,1.1154782441735733e-05,5.8873622037936e-05
2.738666080404073e-05,-4.730412911158055e-05,3.372632636455819e-05,3.791703056776896e-05,1.2635002349270508e-05,5.281939229462296e-05
2.4838058379828e-05,-4.2528157791821286e-05,3.6317036574473605e-05,4.003552385256626e-05,1.2346606126811821e-05,5.028735176892951e-05
2.2048719984013587e-05,-3.997499879915267e-05,3.5683366149896756e-05,4.246954995323904e-05,1.1921672921744175e-05,5.398544453782961e-05
1.947789132827893e-05,-4.112061287742108e-05,3.502751496853307e-05,4.242116119712591e-05,1.1297209312033374e-05,5.869454253115691e-05
1.9038609025301412e-05,-4.6074288547970355e-05,3.63667422789149e-05,3.867604391416535e-05,1.0132654097105842e-05,6.0027359722880647e-05
2.1088220819365233e-05,-5.171719749341719e-05,3.621323412517086e-05,3.4093758586095646e-05,6.632277745666215e-06,5.6727083574514836e-05
2.445882091706153e-05,-5.4250325774773955e-05,3.510437090881169e-05,3.037008355022408e-05,1.1873245284732548e-06,5.413697363110259e-05
2.5014855054905638e-05,-5.2220701036276296e-05,3.6754088796442375e-05,2.7402156774769537e-05,-9.299631642534223e-07,5.1297251047799364e-05
2.613581091281958e-05,-4.6728197048651055e-05,3.9862403355073184e-05,2.7613405109150335e-05,-1.5076930139912292e-06,5.18176966579631e-05
2.8413029212970287e-05,-4.2861513065872714e-05,4.2518651753198355e-05,2.7454747396404855e-05,-3.0705555218446534e-06,5.719644104829058e-05
2.9782249839627184e-05,-4.3015374103561044e-05,4.3878557335119694e-05,2.4382552510360256e-05,-7.002081474638544e-06,5.6157448852900416e-05
2.7750302251661196e-05,-4.354781049187295e-05,4.1572824557079e-05,2.3713664631941356e-05,-1.1920558790734503e-05,5.175611295271665e-05
2.415435665170662e-05,-4.6029606892261654e-05,3.974495848524384e-05,2.7138428777107038e-05,-1.5265122783603147e-05,5.1459905080264434e-05
2.0492712792474777e-05,-4.8303994844900444e-05,3.865864346153103e-05,3.3287367841694504e-05,-1.780123056960292e-05,5.467444134410471e-05
1.737256025080569e-05,-4.814432395505719e-05,3.461379310465418e-05,3.713218029588461e-05,-2.0795221644220874e-05,5.486411100719124e-05
1.5845103916944936e-05,-4.924381573800929e-05,3.248259235988371e-05,3.731817923835479e-05,-3.177381950081326e-05,5.2013252570759505e-05
1.2621811038115993e-05,-5.0339411245658994e-05,3.177079634042457e-05,3.615767491282895e-05,-4.117039134143852e-05,5.181317465030588e-05
1.1743155482690781e-05,-5.253601921140216e-05,3.368284887983464e-05,3.4407348721288145e-05,-4.3322943383827806e-05,5.462224726215936e-05
1.2973009688721504e-05,-5.051046537118964e-05,3.82937905669678e-05,3.309958628960885e-05,-4.654048098018393e-05,5.5438442359445617e-05
1.1730026017175987e-05,-4.8170935770031065e-05,4.099383659195155e-05,2.944336119981017e-05,-5.654636333929375e-05,5.1443603297229856e-05
8.085965419013519e-06,-4.7136967623373494e-05,3.685004048747942e-05,2.4886125174816698e-05,-6.926419882802293e-05,4.717301271739416e-05
9.326455256086774e-06,-4.561347304843366e-05,2.923371175711509e-05,2.2162757886690088e-05,-7.660515257157385e-05,4.778460061061196e-05
1.4647791431343649e-05,-4.448225809028372e-05,2.402766222076025e-05,1.9028439055546187e-05,-7.505573012167588e-05,5.256380245555192e-05
1.9125951439491473e-05,-4.5207238144939765e-05,2.3574262741021812e-05,1.4575105524272658e-05,-6.6227643401362e-05,5.314360896591097e-05
2.080931699310895e-05,-4.687022010330111e-05,2.409389526292216e-05,9.684206816018559e-06,-5.2150164265185595e-05,4.90953607368283e-05
1.9916255041607656e-05,-4.8287718527717516e-05,2.3499480448663235e-05,5.765595687989844e-06,-3.0403676646528766e-05,4.6577813918702304e-05
1.8066470147459768e-05,-4.886147871729918e-05,2.4329396183020435e-05,3.917713002010714e-06,-8.321521818288602e-07,4.9426565965404734e-05
1.6675485312589444e-05,-4.837814049096778e-05,2.5636802092776634e-05,4.76246714242734e-06,3.186237518093549e-05,5.305494778440334e-05
1.557491486892104e-05,-4.931325383950025e-05,2.5055631340364926e-05,8.61388889461523e-06,5.567667176364921e-05,5.532004070119001e-05
1.5514995538978837e-05,-4.965681000612676e-05,2.375671647314448e-05,1.3912389476899989e-05,6.382003630278632e-05,5.7263732742285356e-05
1.8361251932219602e-05,-4.742719102068804e-05,2.481802221154794e-05,1.7774060324882157e-05,5.860998862772249e-05,5.81993481318932e-05
2.136022158083506e-05,-4.670278576668352e-05,2.5655179342720658e-05,2.227979712188244e-05,4.670843554777093e-05,5.9239569964120165e-05
2.2515001546707936e-05,-5.1398536015767604e-05,2.347434201510623e-05,3.3656608138699085e-05,3.336167719680816e-05,6.216598558239639e-05
2.155744550691452e-05,-5.4287240345729515e-05,1.977774445549585e-05,5.3301781008485705e-05,2.2468293536803685e-05,6.697283242829144e-05
2.245677387691103e-05,-5.265714935376309e-05,1.8742401152849197e-05,6.62387246848084e-05,1.3176352695154492e-05,6.624645902775228e-05
2.2812706447439268e-05,-4.840007022721693e-05,2.115696042892523e-05,6.342135020531714e-05,8.09173707239097e-06,6.0290138208074495e-05
2.2227417503017932e-05,-4.641839404939674e-05,2.6133757273782976e-05,6.253530591493472e-05,7.090528470143909e-06,6.084584310883656e-05
2.0982874048058875e-05,-4.9981663323706016e-05,3.3165324566653e-05,7.422277121804655e-05,4.717755928140832e-06,6.653337186435238e-05
1.6190888345590793e-05,-5.4329622798832133e-05,3.8128328014863655e-05,8.217554568545893e-05,4.065172561240615e-06,6.730577297275886e-05
1.531883026473224e-05,-5.217552461544983e-05,3.637337067630142e-05,7.674874359508976e-05,2.485953700670507e-06,6.459972792072222e-05
1.890256316983141e-05,-5.198971484787762e-05,3.059763548662886e-05,6.324646528810263e-05,-4.415574494487373e-06,6.0863261751364917e-05
2.350323302380275e-05,-5.384798350860365e-05,2.608042450447101e-05,4.835836443817243e-05,-6.977948942221701e-06,6.0616966948146e-05
2.444551319058519e-05,-5.4431042372016236e-05,2.5330982680316083e-05,3.741433101822622e-05,-4.564650680549676e-06,6.532658881042153e-05
2.197756475652568e-05,-5.372927262214944e-05,2.467250669724308e-05,2.6783891371451318e-05,-1.3454283589453553e-06,6.656921323155984e-05
2.069668516924139e-05,-5.15452484251e-05,2.3650985895073973e-05,2.101723657688126e-05,-1.9117421743430896e-06,6.314150959951803e-05
2.247552401968278e-05,-5.0905266107292846e-05,2.4318829673575237e-05,2.087614848278463e-05,-5.702835551346652e-06,6.031462180544622e-05
2.4773511540843174e-05,-4.945549517287873e-05,2.7980131562799215e-05,2.337518526474014e-05,-8.534087100997567e-06,5.839024015585892e-05
2.2178168364916928e-05,-4.633424032363109e-05,3.066802310058847e-05,2.7546991987037472e-05,-1.1858714060508646e-05,5.973378574708477e-05
1.756201709213201e-05,-4.300811269786209e-05,3.0161774702719413e-05,2.9640434149769135e-05,-1.6971522200037725e-05,6.270541780395433e-05
1.5722243915661238e-05,-4.1706804040586576e-05,2.9062186513328925e-05,3.0931158107705414e-05,-2.3155111193773337e-05,6.502556789200753e-05
1.6300920833600685e-05,-4.1531642636982724e-05,2.8991429644520395e-05,3.0598832381656393e-05,-2.5317942345282063e-05,6.933316035429016e-05
1.55833586177323e-05,-4.1314935515401885e-05,2.813302489812486e-05,2.6013693059212528e-05,-2.3675769625697285e-05,7.195115904323757e-05
1.4244013073039241e-05,-4.0912931581260636e-05,2.5247822122764774e-05,1.8343589545111172e-05,-2.2057229216443375e-05,6.913433026056737e-05
1.3725178177992348e-05,-4.297655323171057e-05,2.3489847080782056e-05,1.5719249859103e-05,-2.3423681341228075e-05,6.477438000729308e-05
1.3902650607633404e-05,-4.5868713641539216e-05,2.499794754839968e-05,2.1414216462289914e-05,-2.6150742996833287e-05,6.050673982826993e-05
1.4631267731601838e-05,-4.888312832918018e-05,2.864491216314491e-05,2.9712673494941555e-05,-2.8072781788068824e-05,5.6123848480638117e-05
1.731231895973906e-05,-5.133065496920608e-05,3.154331716359593e-05,3.393966835574247e-05,-2.7507068807608448e-05,5.576381954597309e-05
2.1482845113496296e-05,-5.1176939450670034e-05,3.425184331717901e-05,3.518309677019715e-05,-2.7692072762874886e-05,6.149934779386967e-05
2.3597871404490434e-05,-4.90899765281938e-05,3.5401415516389534e-05,3.5370903788134456e-05,-2.7117150239064358e-05,6.643343658652157e-05
2.248833334306255e-05,-4.879339394392446e-05,3.34645010298118e-05,3.4864588087657467e-05,-2.2480826373794116e-05,6.757937808288261e-05
2.2473121134680696e-05,-4.963457104167901e-05,3.15103679895401e-05,3.162773646181449e-05,-1.6951566067291424e-05,6.709543231409043e-05
2.6877911295741796e-05,-4.733253808808513e-05,3.3490363421151415e-05,2.8240772735443898e-05,-1.3160170965420548e-05,6.536983710248023e-05
2.9574064683401957e-05,-4.424359212862328e-05,3.512926559778862e-05,2.6108040401595645e-05,-1.2576808330777567e-05,6.423804734367877e-05
2.7339556254446507e-05,-4.5928209146950394e-05,3.348110840306617e-05,2.0327641323092394e-05,-1.5094710761331953e-05,6.402054714271799e-05
2.648204826982692e-05,-4.752850509248674e-05,2.9002745577599853e-05,1.0457821190357208e-05,-1.6598301954218186e-05,6.132550333859399e-05
2.656108517840039e-05,-4.495641042012721e-05,2.7861369744641706e-05,-8.959997899182781e-07,-1.6325482647516765e-05,5.614162364508957e-05
2.674322786333505e-05,-4.235663072904572e-05,3.4075947041856125e-05,-3.615661171352258e-06,-1.575257738295477e-05,5.289026375976391e-05
2.923139436461497e-05,-4.3101885239593685e-05,3.9302736695390195e-05,2.5797701255214633e-06,-1.4237251889426261e-05,5.1161012379452586e-05
3.228560308343731e-05,-4.6600816858699545e-05,3.948752782889642e-05,1.1044512575608678e-05,-1.0454520634084474e-05,4.909311974188313e-05
3.1813116947887465e-05,-4.765042831422761e-05,3.9197748264996335e-05,1.7712278349790722e-05,-8.867237738741096e-06,4.623614586307667e-05
2.7445094019640237e-05,-4.851346602663398e-05,3.9342015952570364e-05,2.1463290977408178e-05,-1.1785555216192733e-05,4.653655196307227e-05
2.696167939575389e-05,-4.892831566394307e-05,3.7947211239952594e-05,2.5815863409661688e-05,-1.1671998436213471e-05,5.369764403440058e-05
3.193910379195586e-05,-4.854827784583904e-05,3.6390163586474955e-05,3.0713028536411e-05,-9.618420335755218e-06,6.290943565545604e-05
3.3370990422554314e-05,-5.012398469261825e-05,3.591626227716915e-05,3.1695883080828935e-05,-6.9187331064313184e-06,6.445503095164895e-05
2.844857044692617e-05,-5.19192180945538e-05,3.610271232901141e-05,2.731684799073264e-05,-8.046768925851211e-06,5.775114186690189e-05
2.3762968339724466e-05,-5.292273999657482e-05,3.62619903171435e-05,2.3444807084160857e-05,-1.1358162737451494e-05,4.948199421050958e-05
2.2969699784880504e-05,-5.3485211537918076e-05,3.6728444683831185e-05,2.1220659618848003e-05,-1.4620122783526313e-05,4.682576036429964e-05
2.395692172285635e-05,-5.363058880902827e-05,3.667513374239206e-05,1.949453871930018e-05,-1.6262471035588533e-05,5.0907667173305526e-05
2.614329059724696e-05,-5.3439656767295673e-05,3.453990211710334e-05,1.983971924346406e-05,-1.3994877008371986e-05,5.753814912168309e-05
2.823878821800463e-05,-5.3274161473382264e-05,3.1591043807566166e-05,1.9628045265562832e-05,-1.2713291653199121e-05,5.896113361814059e-05
2.6975885702995583e-05,-5.1980226999148726e-05,2.9437727789627388e-05,1.7783766452339478e-05,-1.4453490621235687e-05,5.430986129795201e-05
2.3958580641192384e-05,-5.303175203152932e-05,3.0257391699706204e-05,1.9821614841930568e-05,-1.764629087119829e-05,5.142990994499996e-05
2.0323768694652244e-05,-5.629115185001865e-05,3.517479126458056e-05,2.6902078388957307e-05,-1.971650999621488e-05,5.3948948334436864e-05
1.7357635442749597e-05,-5.711648191208951e-05,3.817943070316687e-05,3.054962871829048e-05,-2.0094297724426724e-05,5.882581899641082e-05
1.532109126856085e-05,-5.573770613409579e-05,3.498557998682372e-05,2.380170553806238e-05,-1.7202935850946233e-05,6.288316217251122e-05
1.3360626326175407e-05,-5.38891508767847e-05,3.2159554393729195e-05,1.2935182894580066e-05,-1.4621452464780305e-05,6.45419058855623e-05
1.2877921108156443e-05,-5.107739343657158e-05,3.0993403925094754e-05,9.77819217951037e-06,-1.5326728316722438e-05,6.000838038744405e-05
1.5726296624052338e-05,-4.8883637646213174e-05,3.064665725105442e-05,1.3205477443989366e-05,-1.909034290292766e-05,5.3475479944609106e-05
1.9639546735561453e-05,-5.19182431162335e-05,3.444116737227887e-05,1.793481715139933e-05,-2.132008012267761e-05,5.107286779093556e-05
2.059777580143418e-05,-5.8249770518159494e-05,3.681491580209695e-05,2.3410937501466833e-05,-2.228052107966505e-05,4.907101902063005e-05
2.0376108295749873e-05,-5.824104664498009e-05,3.483945329207927e-05,3.106283111264929e-05,-2.2357871785061434e-05,4.084856482222676e-05
1.9126220649923198e-05,-5.243087070994079e-05,3.320536779938266e-05,3.9197137084556744e-05,-1.911618710437324e-05,3.0570983653888106e-05
1.8248607375426218e-05,-4.920752689940855e-05,3.768107126234099e-05,4.0247428842121735e-05,-1.2997074009035714e-05,3.536665826686658e-05
2.0512588889687322e-05,-4.975231422577053e-05,3.998960164608434e-05,4.286974581191316e-05,-1.0230945008515846e-05,5.055929796071723e-05
2.320064049854409e-05,-5.22144437127281e-05,3.335392102599144e-05,4.87013858219143e-05,-1.2714238437183667e-05,5.66360104130581e-05
2.549883174651768e-05,-5.209027585806325e-05,2.7336565835867077e-05,4.515214095590636e-05,-1.3858771126251668e-05,5.675647116731852e-05
2.539125671319198e-05,-4.940872895531356e-05,2.6518662707530893e-05,3.5706183552974835e-05,-1.1106078090961091e-05,5.555167808779515e-05
2.220685018983204e-05,-4.883085421170108e-05,2.8575206670211628e-05,2.7804202545667067e-05,-6.704010502289748e-06,5.274402428767644e-05
1.9540144421625882e-05,-4.930555951432325e-05,3.156953971483745e-05,2.7652780772768892e-05,-4.2485471567488275e-06,4.832910417462699e-05
2.1029187337262556e-05,-4.9498779844725505e-05,3.246134292567149e-05,3.377556276973337e-05,-2.4092933017527685e-06,4.879154948866926e-05
2.2617963622906245e-05,-5.088934995001182e-05,3.056622517760843e-05,3.9386723074130714e-05,-1.6777687505964423e-06,5.40166802238673e-05
2.4942512027337216e-05,-5.262134436634369e-05,2.9043050744803622e-05,4.0270046156365424e-05,3.3304772273368144e-07,5.698070890503004e-05
3.0239190891734324e-05,-5.373896419769153e-05,2.9643446396221407e-05,3.815282980212942e-05,1.3813806845064391e-06,5.363521631807089e-05
3.462395034148358e-05,-5.4198411817196757e-05,3.148024916299619e-05,3.572622881620191e-05,-6.446234692703001e-07,4.819713285542093e-05
3.482532702037133e-05,-5.3645992011297494e-05,2.9850281862309203e-05,3.0865772714605555e-05,-2.1563066638918826e-06,4.7844951041042805e-05
3.134302096441388e-05,-5.243403575150296e-05,2.6543882995611057e-05,2.700571349123493e-05,-2.2030676518625114e-06,5.337844413588755e-05
2.7765492632170208e-05,-5.127041004016064e-05,2.426521859888453e-05,2.900600702560041e-05,-3.057409458051552e-06,6.041695814928971e-05
2.4264867533929646e-05,-4.890166383120231e-05,2.42913647525711e-05,3.4285210858797655e-05,-7.879616532591172e-06,6.541930633829907e-05
2.2462536435341462e-05,-4.5883527491241693e-05,2.664276325958781e-05,3.7214718759059906e-05,-1.789056113921106e-05,7.045161328278482e-05
2.181722447858192e-05,-4.4709740905091166e-05,3.081688191741705e-05,4.005440496257506e-05,-2.801736081892159e-05,7.408907549688593e-05
2.0228508219588548e-05,-4.749989966512658e-05,3.3363219699822366e-05,4.417631498654373e-05,-3.2415926398243755e-05,7.230059418361634e-05
1.6257110473816283e-05,-5.2401708671823144e-05,3.1815845431992784e-05,4.32787710451521e-05,-3.1799430871615186e-05,6.537674926221371e-05
1.2621547284652479e-05,-5.526312816073187e-05,3.103646304225549e-05,3.413520607864484e-05,-2.8341481083771214e-05,6.513487460324541e-05
1.2356926163192838e-05,-5.37836822331883e-05,3.2784890208859e-05,2.9465591069310904e-05,-2.621295971039217e-05,7.115329935913906e-05
1.3808793482894544e-05,-5.086617238703184e-05,3.835915413219482e-05,3.797900353674777e-05,-2.374927316850517e-05,7.345368794631213e-05
1.7950593246496283e-05,-5.140492066857405e-05,4.5158689317759126e-05,5.0744863983709365e-05,-1.7108577594626695e-05,7.400486356345937e-05
2.2529722627950832e-05,-5.331303327693604e-05,4.724297468783334e-05,5.6975146435434e-05,-1.0134297554031946e-05,7.209580508060753e-05
2.3093178242561407e-05,-5.405406409408897e-05,4.490681385505013e-05,5.528125984710641e-05,-3.151377313770354e-06,7.162390102166682e-05
2.1202551579335704e-05,-5.203184991842136e-05,4.041614374727942e-05,5.169967334950343e-05,6.941981609998038e-06,7.60841357987374e-05
1.9388548025744967e-05,-4.837309097638354e-05,3.9266735257115215e-05,4.4442338548833504e-05,1.5577583326376043e-05,7.133626058930531e-05
1.877734212030191e-05,-4.197673479211517e-05,4.045274909003638e-05,3.598626426537521e-05,1.792864168237429e-05,6.113824201747775e-05
1.573464942339342e-05,-3.848255437333137e-05,3.8305206544464454e-05,2.900269828387536e-05,1.7329261027043685e-05,5.70497359149158e-05
1.4437944628298283e-05,-4.430394619703293e-05,3.591875793063082e-05,2.611166928545572e-05,1.808099841582589e-05,5.8259513025404885e-05
1.6417512597399764e-05,-5.055647488916293e-05,3.531174661475234e-05,2.8778611522284336e-05,1.8547243598732166e-05,5.746671013184823e-05
1.8995991922565736e-05,-5.21685324201826e-05,3.865058533847332e-05,3.1587704143021256e-05,1.7984573787543923e-05,5.6923763622762635e-05
2.0766208763234317e-05,-5.0225964514538646e-05,3.9242280763573945e-05,3.122829366475344e-05,1.6253818102995865e-05,6.319503881968558e-05
2.0913365005981177e-05,-4.8476405936526135e-05,3.43647989211604e-05,2.5722134523675777e-05,1.49836723721819e-05,6.597322499146685e-05
1.9882443666574545e-05,-4.858217653236352e-05,2.947533175756689e-05,1.8078691937262192e-05,1.1124507182103116e-05,5.833891191286966e-05
1.9406292267376557e-05,-4.975802585249767e-05,2.6375077140983194e-05,1.134919875767082e-05,4.773801720148185e-06,5.153279926162213e-05
1.9907769456040114e-05,-5.1736940804403275e-05,2.5154926333925687e-05,9.59778390097199e-06,-5.556584028454381e-07,5.4379906941903755e-05
2.0669838704634458e-05,-5.353026062948629e-05,2.7103171305498108e-05,1.3266095265862532e-05,-2.1022240161983063e-06,5.808619607705623e-05
2.2657462977804244e-05,-5.360398790799081e-05,3.0856492230668664e-05,2.0518029486993328e-05,-1.1322110822220566e-06,5.524358857655898e-05
2.2854012058814988e-05,-5.19298373546917e-05,3.244492836529389e-05,2.6236826670356095e-05,-4.664418611355359e-06,5.035191497881897e-05
2.047163070528768e-05,-4.9898178986040875e-05,3.194775490555912e-05,2.657455661392305e-05,-1.2852231520810165e-05,4.772628381033428e-05
1.6904665244510397e-05,-5.004593913326971e-05,3.136805389658548e-05,2.4613756977487355e-05,-1.9004030036740005e-05,4.527825876721181e-05
1.7084124920074828e-05,-5.258543023956008e-05,3.086328797508031e-05,2.653009505593218e-05,-1.979555054276716e-05,4.2550764192128554e-05
2.0171893993392587e-05,-5.3545256378129125e-05,3.128722892142832e-05,3.196717079845257e-05,-1.9113702364847995e-05,4.321874075685628e-05
2.1034125893493183e-05,-5.223266271059401e-05,3.153997386107221e-05,3.456234117038548e-05,-1.9004774003406055e-05,4.792047184309922e-05
1.8036424080491997e-05,-5.191713717067614e-05,2.9660013751708902e-05,3.392769940546714e-05,-1.963704198715277e-05,5.3568612202070653e-05
1.5704687029938214e-05,-5.3882700740359724e-05,2.7058693376602605e-05,3.073726111324504e-05,-1.875354973890353e-05,5.8579269534675404e-05
1.5014537893875968e-05,-5.3812636906513944e-05,2.3830496502341703e-05,2.4828919777064584e-05,-1.6666041119606234e-05,5.929300095885992e-05
1.4780244782741647e-05,-5.159544525668025e-05,2.144820427929517e-05,1.5533389159827493e-05,-1.530933877802454e-05,5.764745219494216e-05
1.6629654055577703e-05,-4.996970892534591e-05,2.2125272153061815e-05,8.473659363517072e-06,-1.6440362742287107e-05,5.954653170192614e-05
1.8144493878935464e-05,-4.872475255979225e-05,2.470757499395404e-05,1.0004259820561856e-05,-1.8247308616992086e-05,6.573487189598382e-05
1.7185535398311913e-05,-4.8008343583205715e-05,2.80782078334596e-05,1.1379622264939826e-05,-2.052219133474864e-05,6.98975200066343e-05
1.6770291040302254e-05,-4.972689566784538e-05,2.8345222744974308e-05,1.254153630725341e-05,-2.2782125597586855e-05,6.488993676612154e-05
1.6805010091047734e-05,-5.1094004447804764e-05,2.1653602743754163e-05,1.71536212292267e-05,-2.6463121685083024e-05,5.848095679539256e-05
1.5696889022365212e-05,-5.040424730395898e-05,1.9021801563212648e-05,1.862048520706594e-05,-3.7748977774754167e-05,5.582803350989707e-05
1.558768781251274e-05,-4.9336438678437844e-05,2.2931522835278884e-05,1.757170321070589e-05,-5.032307672081515e-05,5.827812128700316e-05
1.7360687706968747e-05,-4.864514630753547e-05,2.9460019504767843e-05,1.5950281522236764e-05,-5.64068577659782e-05,6.801119889132679e-05
1.693538433755748e-05,-4.9214060709346086e-05,3.4906646760646254e-05,1.558732765261084e-05,-5.6106273405021057e-05,7.098096830304712e-05
1.448911916668294e-05,-5.023704216000624e-05,3.502133040456101e-05,1.7399073840351775e-05,-5.180593871045858e-05,6.495066918432713e-05
1.3534446225094143e-05,-5.162351590115577e-05,3.322176416986622e-05,2.1454630768857896e-05,-4.363664993434213e-05,6.220517389010638e-05
1.4225306586013176e-05,-5.325423990143463e-05,3.0903298466000706e-05,2.550786484789569e-05,-3.303683115518652e-05,6.562656199093908e-05
1.752453863446135e-05,-5.412140308180824e-05,2.8458827728172764e-05,3.0387136575882323e-05,-2.1257494154269807e-05,7.123895920813084e-05
2.100636083923746e-05,-5.182274617254734e-05,2.8053898859070614e-05,3.336720692459494e-05,-5.491102001542458e-06,7.465015369234607e-05
2.2661963157588616e-05,-4.894257290288806e-05,2.874372512451373e-05,3.1475436117034405e-05,1.0299930181645323e-05,7.519879000028595e-05
2.4131644750013947e-05,-4.914556848234497e-05,2.8202184694237076e-05,2.5045728762052022e-05,2.172095628338866e-05,7.484711386496201e-05
2.6670893930713646e-05,-5.048690582043491e-05,2.7101914383820258e-05,2.2377431378117763e-05,2.670360845513642e-05,7.353050750680268e-05
2.919596590800211e-05,-4.960281876265071e-05,2.6091887775692157e-05,3.204132735845633e-05,2.7871737984241918e-05,6.922493048477918e-05
3.060070957872085e-05,-4.726131010102108e-05,2.4265338652185164e-05,4.5195269194664434e-05,2.8761749490513466e-05,6.503905751742423e-05
3.071653191000223e-05,-4.520860602497123e-05,2.1516061678994447e-05,4.628970782505348e-05,2.9315702704479918e-05,6.349310569930822e-05
2.9216171242296696e-05,-4.432776040630415e-05,2.090517409669701e-05,2.920129190897569e-05,2.63255260506412e-05,6.189521809574217e-05
2.7654639779939316e-05,-4.724662721855566e-05,2.313351069460623e-05,4.482163149077678e-06,2.124490129062906e-05,5.967346078250557e-05
2.8671205654973164e-05,-5.2066527132410556e-05,2.58149975707056e-05,-8.373513992410153e-06,1.6707681425032206e-05,5.6770102673908696e-05
3.110778197878972e-05,-5.416461863205768e-05,2.8543188818730414e-05,5.118545232107863e-07,1.2093719305994455e-05,5.27287156728562e-05
3.130935874651186e-05,-5.432006946648471e-05,3.088450102950446e-05,1.8891401850851253e-05,8.260478352895007e-06,4.8218007577816024e-05
2.9064274713164195e-05,-5.43843925697729e-05,2.9184073355281726e-05,3.153002035105601e-05,3.148530367980129e-06,4.0195915062213317e-05
2.6244717446388677e-05,-5.352273728931323e-05,2.9019925932516344e-05,3.2915824704105034e-05,-3.6164005905447993e-06,3.0245684683904983e-05
2.4450955606880598e-05,-5.0230442866450176e-05,3.4623630199348554e-05,2.4592938643763773e-05,-9.057910574483685e-06,2.4982951799756847e-05
2.47838361246977e-05,-4.772074316861108e-05,3.9037957321852446e-05,1.0430355359858368e-05,-1.0988212125084829e-05,3.0250752388383262e-05
2.7703923478838988e-05,-4.98031331517268e-05,3.88539228879381e-05,-3.962254140787991e-06,-1.084782797988737e-05,4.389906825963408e-05
3.5792021662928164e-05,-5.5376465752488e-05,3.724937414517626e-05,-8.818263268040027e-06,-1.3807284631184302e-05,5.3950847359374166e-05
3.810525595326908e-05,-5.497801612364128e-05,4.003357025794685e-05,1.0210315849690232e-05,-1.773403892002534e-05,5.391969534684904e-05
3.3940636058105156e-05,-4.9622616643318906e-05,4.418768367031589e-05,5.983670416753739e-05,-1.718966814223677e-05,4.87028737552464e-05
3.380330963409506e-05,-4.944125976180658e-05,4.474090019357391e-05,0.00011356855247868225,-1.583071207278408e-05,4.70343729830347e-05
3.5425568057689816e-05,-4.9287751608062536e-05,4.48159480583854e-05,0.00013796838175039738,-1.3101535841997247e-05,5.0507693231338635e-05
3.3700413041515276e-05,-4.937847188557498e-05,4.437139432411641e-05,0.00013438791211228818,-1.1345473467372358e-05,5.130775025463663e-05
2.953994771814905e-05,-4.9788439355324954e-05,4.1151019104290754e-05,0.00011505951988510787,-1.0209989341092296e-05,4.9468970246380195e-05
2.6435045583639294e-05,-4.877016181126237e-05,3.640850627562031e-05,9.153915743809193e-05,-8.13476162875304e-06,5.29306817043107e-05
2.1749829102191143e-05,-4.8299214540747926e-05,3.319714960525744e-05,7.050590647850186e-05,-7.965251825226005e-06,6.133271381258965e-05
1.8004991943598725e-05,-5.107331890030764e-05,3.0696486646775156e-05,5.374740430852398e-05,-1.0558349458733574e-05,6.961871986277401e-05
1.6938327462412417e-05,-5.368153870222159e-05,2.8697511879727244e-05,4.152228211751208e-05,-1.1441212336649187e-05,7.141678361222148e-05
1.7142830984084867e-05,-5.4000960517441854e-05,2.999475873366464e-05,3.411495345062576e-05,-9.108115591516253e-06,6.605054659303278e-05
1.71109404618619e-05,-5.264095671009272e-05,3.1820411095395684e-05,3.0454099032795057e-05,-7.290850135177607e-06,5.83033288421575e-05
1.8310915038455278e-05,-5.144442184246145e-05,2.9911354431533255e-05,2.8573311283253133e-05,-7.5587709034152795e-06,5.732643330702558e-05
2.035204306594096e-05,-5.245863212621771e-05,2.6819183403858915e-05,2.9021515729255043e-05,-1.0971471965603996e-05,6.432884401874617e-05
2.112695074174553e-05,-5.4041738621890545e-05,2.9190232453402132e-05,3.2107003789860755e-05,-1.6920941561693326e-05,6.971805123612285e-05
2.047287671302911e-05,-5.613794201053679e-05,3.3759883081074804e-05,3.454705438343808e-05,-2.1953906980343163e-05,6.443780875997618e-05
1.8434257071930915e-05,-5.760213753092103e-05,3.587067112675868e-05,3.139230466331355e-05,-2.1597381419269368e-05,5.464053538162261e-05
1.695584251137916e-05,-5.761680586147122e-05,3.4021606552414596e-05,2.427829895168543e-05,-1.869369953055866e-05,5.151034565642476e-05
1.7712920453050174e-05,-5.472870179801248e-05,3.0022622013348155e-05,1.7844273315859027e-05,-1.6203948689508252e-05,5.2785020670853555e-05
2.0231163944117725e-05,-5.270677138469182e-05,2.8213178666192107e-05,1.16786304715788e-05,-1.5559948224108666e-05,5.5997861636569723e-05
2.1610732801491395e-05,-5.3452589781954885e-05,2.930606387963053e-05,8.29049383810343e-07,-1.645182419451885e-05,6.0994807427050546e-05
1.9775310647673905e-05,-5.513201904250309e-05,3.068020669161342e-05,-1.1127528523502406e-05,-1.4161175386107061e-05,6.573022255906835e-05
1.7821474102674983e-05,-5.659628368448466e-05,3.112826743745245e-05,-1.3186741853132844e-05,-1.077934848581208e-05,6.461870361818e-05
1.8663306036614813e-05,-5.556390169658698e-05,3.107997326878831e-05,-8.568011367060535e-07,-1.2825025805796031e-05,5.6367149227298796e-05
2.054260767181404e-05,-5.2721436077263206e-05,2.9086619178997353e-05,1.7195718100992963e-05,-1.6485228115925565e-05,4.901870124740526e-05
2.0729898096760735e-05,-4.9562175263417885e-05,2.900139043049421e-05,2.9526092475862242e-05,-1.547923056932632e-05,4.9327216402161866e-05
2.0554516595439054e-05,-4.797967631020583e-05,3.023605859198142e-05,2.616294295876287e-05,-8.188828360289335e-06,5.313625297276303e-05
2.0196937839500606e-05,-4.752681707032025e-05,3.130471668555401e-05,1.0788889085233677e-05,-1.446480382583104e-06,5.4970969358691946e-05
1.9520970454323106e-05,-4.581867324304767e-05,3.251111775171012e-05,-1.985978315133252e-06,-3.356899753725884e-07,5.45254661119543e-05
1.9014809367945418e-05,-4.644385990104638e-05,3.202863081241958e-05,-3.3857920698210364e-06,-2.6821533083420945e-06,5.5849341151770204e-05
1.815919858927373e-05,-4.5480148401111364e-05,3.159821790177375e-05,5.573414000537014e-06,-5.307976607582532e-06,5.271961708785966e-05
2.0340408809715882e-05,-4.507175981416367e-05,3.204208769602701e-05,1.2373831850709394e-05,-6.170120741444407e-06,4.688058834290132e-05
2.2813095711171627e-05,-4.633558273781091e-05,3.4042321203742176e-05,9.725842573971022e-06,-6.875646249682177e-06,4.7485678805969656e-05
2.5289640689152293e-05,-4.8578553105471656e-05,3.697680222103372e-05,5.517849331226898e-06,-7.264741725521162e-06,5.078133108327165e-05
2.5019371605594642e-05,-4.820894173462875e-05,3.938032023143023e-05,3.902533080690773e-06,-7.80264690547483e-06,5.4799860663479194e-05
2.4443501388304867e-05,-4.409678149386309e-05,3.825573730864562e-05,4.501079274632502e-06,-7.120464033505414e-06,5.644560951623134e-05
2.457953814882785e-05,-3.9962662413017824e-05,3.278572694398463e-05,4.302181878301781e-06,-5.036748916609213e-06,5.692016929970123e-05
2.2552550944965333e-05,-3.799836849793792e-05,2.970601781271398e-05,4.536023880064022e-06,-4.548526703729294e-06,5.3342660976340994e-05
1.7021809981088154e-05,-4.058705599163659e-05,3.1133091397350654e-05,5.547052751353476e-06,-6.47490514893434e-06,4.492836887948215e-05
1.0740319339674897e-05,-4.5305921958060935e-05,3.335989822517149e-05,7.938262569950894e-06,-1.134273497882532e-05,4.1814644646365196e-05
8.776606591709424e-06,-4.723736856249161e-05,3.2646017643855885e-05,1.2779247299476992e-05,-1.8705546608543955e-05,4.774294939124957e-05
8.820538823783863e-06,-4.493438609642908e-05,3.0432131097768433e-05,1.6501749996677972e-05,-2.507968747522682e-05,5.319916090229526e-05
8.730204172024969e-06,-4.400206671562046e-05,2.9762464691884816e-05,1.8475258912076242e-05,-3.2027997804107144e-05,5.133058220962994e-05
9.782002052816097e-06,-4.556042404146865e-05,3.1153867894317955e-05,2.474908069416415e-05,-4.721356526715681e-05,4.8684054490877315e-05
1.316121324634878e-05,-4.776209607371129e-05,3.2730364182498306e-05,3.988874232163653e-05,-6.966572982491925e-05,5.1580242143245414e-05
1.3315016985870898e-05,-4.812979022972286e-05,3.223645762773231e-05,5.706612500944175e-05,-8.774585876381025e-05,5.7350996939931065e-05
1.2206332030473277e-05,-4.699372220784426e-05,3.2522315450478345e-05,7.163702684920281e-05,-9.28034060052596e-05,5.9218415117356926e-05
1.4181282494973857e-05,-4.5811961172148585e-05,3.3403412089683115e-05,7.789693336235359e-05,-8.535122469766065e-05,5.9216377849224955e-05
1.8955281120724976e-05,-4.5942393626319245e-05,3.351125997141935e-05,6.969626701902598e-05,-6.981588376220316e-05,5.844010956934653e-05
2.318429142178502e-05,-4.679821358877234e-05,3.391867358004674e-05,5.2455059631029144e-05,-4.646819070330821e-05,5.689993849955499e-05
2.5294650185969658e-05,-4.891749267699197e-05,3.362982170074247e-05,4.0635572077007964e-05,-1.7164831660920754e-05,6.130600377218798e-05
2.6268240617355332e-05,-4.628414899343625e-05,3.413758895476349e-05,4.177538721705787e-05,1.3972699889563955e-05,6.76100971759297e-05
2.5174069378408603e-05,-4.293139136279933e-05,3.402557558729313e-05,4.492661901167594e-05,4.476873800740577e-05,7.07965373294428e-05
2.427549952699337e-05,-4.501242801779881e-05,3.178653787472285e-05,4.068233465659432e-05,7.273198571056128e-05,7.521056977566332e-05
2.3589187549077906e-05,-4.723683377960697e-05,2.9983921194798313e-05,3.523984196363017e-05,8.551506471121684e-05,7.636570808244869e-05
2.4455664970446378e-05,-4.7345867642434314e-05,2.7181697078049183e-05,3.343088974361308e-05,8.21077119326219e-05,7.364316115854308e-05
2.792505983961746e-05,-4.731824083137326e-05,2.493800457159523e-05,3.2477495551574975e-05,7.42553238524124e-05,7.327349885599688e-05
3.031682899745647e-05,-4.8819052608450875e-05,2.566791772551369e-05,3.281322278780863e-05,6.119180761743337e-05,8.248692756751552e-05
3.082016701227985e-05,-5.0429898692527786e-05,2.890688119805418e-05,3.324774297652766e-05,4.695597090176307e-05,9.325942664872855e-05
3.05766225210391e-05,-5.067224628874101e-05,3.005984217452351e-05,2.7943564418819733e-05,3.233267489122227e-05,9.553822746966034e-05
3.4706390579231083e-05,-4.984733459423296e-05,2.564968599472195e-05,2.2461017579189502e-05,2.036296973528806e-05,9.146010415861383e-05
3.953586929128505e-05,-4.665109736379236e-05,2.213049265264999e-05,2.06897639145609e-05,1.2576161680044606e-05,8.655040437588468e-05
4.064271706738509e-05,-4.312145392759703e-05,2.1503858079086058e-05,2.3421371224685572e-05,3.96769155486254e-06,8.328992407768965e-05
3.564089638530277e-05,-4.361254832474515e-05,2.185130688303616e-05,2.5212360924342647e-05,-5.587264240602963e-06,7.516863115597516e-05
3.114965875283815e-05,-4.723958045360632e-05,2.3000760847935453e-05,2.7027919713873416e-05,-1.2199886441521812e-05,6.72382811899297e-05
2.9913611797383055e-05,-5.001759927836247e-05,2.5632012693677098e-05,3.196401667082682e-05,-1.664748924667947e-05,6.62942766211927e-05
2.8178756110719405e-05,-5.125757525092922e-05,2.7792544642579742e-05,3.6563564208336174e-05,-2.171813503082376e-05,7.036066381260753e-05
2.2830732632428408e-05,-5.219427839620039e-05,2.6987219825969078e-05,3.6062028812011704e-05,-2.585553920653183e-05,7.101921801222488e-05
1.5513789549004287e-05,-5.1573009841376916e-05,2.391600537521299e-05,3.2340471079805866e-05,-2.7960233637713827e-05,6.790193583583459e-05
1.1678067494358402e-05,-4.973611794412136e-05,2.306620626768563e-05,3.1314084480982274e-05,-2.868795854737982e-05,6.273420876823366e-05
1.168484868685482e-05,-4.727289342554286e-05,2.637398756633047e-05,3.2727639336371794e-05,-2.947348366433289e-05,5.836438504047692e-05
1.3840679457644e-05,-4.409171742736362e-05,3.064813063247129e-05,3.556349111022428e-05,-3.0173661798471585e-05,6.026242408552207e-05
1.456852987757884e-05,-4.195057772449218e-05,3.262062818976119e-05,3.6879566323477775e-05,-3.080095848417841e-05,6.65533370920457e-05
1.4646646377514116e-05,-4.440203701960854e-05,3.14184399030637e-05,3.592175926314667e-05,-2.852360557881184e-05,6.983040657360107e-05
1.4807052139076404e-05,-4.7721823648316786e-05,3.33257376041729e-05,3.276409188401885e-05,-2.378544922976289e-05,6.450928776757792e-05
1.59407063620165e-05,-4.736692790174857e-05,3.800721970037557e-05,2.7742284146370366e-05,-1.8588329112390056e-05,5.2261668315622956e-05
1.6499510820722207e-05,-4.646910019800998e-05,3.9292677683988586e-05,2.3941727704368532e-05,-1.450319086870877e-05,4.404673381941393e-05
1.8077846107189544e-05,-4.8143188905669376e-05,3.495508644846268e-05,2.4963930627563968e-05,-1.2851641258748714e-05,4.2347230191808194e-05
2.082982609863393e-05,-5.0566723075462505e-05,3.274634218541905e-05,2.3104303181753494e-05,-1.416849499946693e-05,4.348511720309034e-05
2.204605334554799e-05,-5.2042447350686416e-05,3.4578031772980466e-05,1.0422406376164872e-05,-1.2791802873834968e-05,4.720558717963286e-05
1.9333458112669177e-05,-5.2314793720142916e-05,3.516015931381844e-05,-6.490626219601836e-06,-1.1531315976753831e-05,4.457129034562968e-05
1.3985415534989443e-05,-5.2412317018024623e-05,3.8078855141066015e-05,-7.326715603994671e-06,-1.580356365593616e-05,4.0154900489142165e-05
1.256163068319438e-05,-5.366482582758181e-05,4.159554009675048e-05,4.230622835166287e-06,-1.8953027392853983e-05,4.0979743062052876e-05
1.8890706996899098e-05,-5.4754702432546765e-05,4.0490001993020996e-05,1.3301879334903788e-05,-1.909337515826337e-05,4.401170008350164e-05
2.4109554942697287e-05,-5.559934288612567e-05,3.7270649045240134e-05,1.6527457773918286e-05,-1.7944443243322894e-05,4.554915722110309e-05
2.1586005459539592e-05,-5.578031777986325e-05,3.556546289473772e-05,1.647016870265361e-05,-1.518718090665061e-05,4.770570376422256e-05
1.3941633369540796e-05,-5.430002056527883e-05,3.4785007301252335e-05,1.5156138033489697e-05,-1.3230599506641738e-05,4.9833208322525024e-05
1.1645101039903238e-05,-5.199002771405503e-05,3.6457688111113384e-05,1.3414580280368682e-05,-1.3792664503853302e-05,4.7547699068672955e-05
1.2665789654420223e-05,-4.864739821641706e-05,4.001403067377396e-05,1.4781707250222098e-05,-1.5350307876360603e-05,4.785078635904938e-05
1.3422839401755482e-05,-4.7137578803813085e-05,4.090410948265344e-05,1.6405709175160155e-05,-1.4987069334893022e-05,5.6293272791663185e-05
1.3668545761902351e-05,-4.82350769743789e-05,4.024036752525717e-05,1.7318508980679326e-05,-1.3681029486178886e-05,6.439065327867866e-05
1.4350682249641977e-05,-5.029402018408291e-05,4.07964143960271e-05,1.9521938156685792e-05,-1.4964828551455867e-05,6.502669566543773e-05
1.5888081179582514e-05,-5.07981822011061e-05,4.1652267100289464e-05,2.500302070984617e-05,-1.985817652894184e-05,6.428564665839076e-05
1.6441736079286784e-05,-5.105232776259072e-05,3.847929110634141e-05,3.7550213164649904e-05,-2.345876782783307e-05,6.477821443695575e-05
1.7641832528170198e-05,-5.0331891543464735e-05,3.29774156853091e-05,5.4941112466622144e-05,-2.1891242795391008e-05,6.39657155261375e-05
1.737318598316051e-05,-4.808227822650224e-05,3.132593701593578e-05,6.763281999155879e-05,-1.7436204871046357e-05,6.153132562758401e-05
1.5079870536283124e-05,-4.550085941446014e-05,3.355271110194735e-05,7.366554928012192e-05,-1.435696231055772e-05,5.8303932746639475e-05
1.2211186003696639e-05,-4.448622712516226e-05,3.606272366596386e-05,7.651407941011712e-05,-1.4721345905854832e-05,5.666951255989261e-05
1.4307411220215727e-05,-4.4714295654557645e-05,3.6369136068969965e-05,7.448572432622313e-05,-1.6987010894808918e-05,5.807313209515996e-05
2.01421989913797e-05,-4.4003110815538093e-05,3.4352935472270474e-05,6.522834155475721e-05,-1.9956056348746642e-05,6.0303347709123045e-05
2.4832073904690333e-05,-4.433909634826705e-05,3.331156767671928e-05,5.259370300336741e-05,-2.0564946680678986e-05,6.312078039627522e-05
2.6287931177648716e-05,-4.58433132735081e-05,3.114796709269285e-05,3.97074873035308e-05,-1.6084337403299287e-05,6.521765317302197e-05
2.696827687032055e-05,-4.694076415034942e-05,2.621135354274884e-05,2.735794805630576e-05,-1.1632891983026639e-05,6.379884871421382e-05
2.59012831520522e-05,-4.4619602704187855e-05,2.320548810530454e-05,1.7156922694994137e-05,-9.42281349125551e-06,6.108652451075613e-05
2.5449075110373087e-05,-4.0366703615291044e-05,2.2263755454332568e-05,1.3145400771463756e-05,-7.5207203735772055e-06,5.756179598392919e-05
2.8401733288774267e-05,-3.81472818844486e-05,2.0568199033732526e-05,1.3804336958855856e-05,-9.037150448421016e-06,5.580170181929134e-05
3.1764255254529417e-05,-4.087757770321332e-05,1.790852729754988e-05,1.123410402215086e-05,-1.1272664778516628e-05,5.378776404540986e-05
3.028009450645186e-05,-4.6229626605054364e-05,2.05604901566403e-05,7.165373972384259e-06,-1.3253817087388597e-05,5.274060822557658e-05
2.5385446861037053e-05,-4.731273293145932e-05,2.635068813106045e-05,9.714535735838581e-06,-1.3302396837389097e-05,5.3290274081518874e-05
2.430036875011865e-05,-4.565209383144975e-05,2.7608013624558225e-05,1.565603270137217e-05,-1.0797584764077328e-05,5.2835232054349035e-05
2.6743005946627818e-05,-4.754227848025039e-05,2.4602390112704597e-05,1.9743562006624416e-05,-8.742099453229457e-06,5.3460695198737085e-05
2.7525946279638447e-05,-5.2542432968039066e-05,2.138863055733964e-05,2.1143885533092543e-05,-8.315912964462768e-06,5.132082515046932e-05
2.9814107620040886e-05,-5.560295903705992e-05,2.1937883502687328e-05,1.9654071365948766e-05,-8.692601113580167e-06,4.9136506277136505e-05
3.452816599747166e-05,-5.597576455329545e-05,2.6896583221969195e-05,2.0401201254571788e-05,-1.1152506885991897e-05,4.777168214786798e-05
3.747698065126315e-05,-5.659693124471232e-05,3.2540116080781445e-05,3.048653161386028e-05,-1.5659354176023044e-05,4.639850158127956e-05
3.6117042327532545e-05,-5.4018008086131886e-05,3.693147300509736e-05,5.0132061005569994e-05,-1.573878944327589e-05,4.559390072245151e-05
3.148506220895797e-05,-5.074882574263029e-05,3.835670941043645e-05,7.494563760701567e-05,-9.471898920310196e-06,4.757348506245762e-05
2.9014960091444664e-05,-4.819858440896496e-05,3.635603570728563e-05,9.527074143989012e-05,-4.428367901709862e-06,5.115218664286658e-05
2.8157062843092717e-05,-4.800600800081156e-05,3.3929092751350254e-05,0.00010116506746271625,-5.845905434398446e-06,5.5350392358377576e-05
2.8203183319419622e-05,-4.967267523170449e-05,3.201724757673219e-05,9.080426389118657e-05,-8.324991540575866e-06,6.032011879142374e-05
2.8817481506848708e-05,-4.9758440582081676e-05,3.055881097679958e-05,7.018547330517322e-05,-1.0881396519835107e-05,6.109744572313502e-05
2.9628383344970644e-05,-4.804416312254034e-05,2.7668418624671176e-05,5.003916521673091e-05,-1.4427892892854288e-05,5.909046740271151e-05
2.9808119506924413e-05,-4.657712270272896e-05,2.4939232389442623e-05,3.531995753291994e-05,-1.6305746612488292e-05,5.735943341278471e-05
2.8314243536442518e-05,-4.6178636694094166e-05,2.336261240998283e-05,2.857020081137307e-05,-1.6022704585338943e-05,5.767164839198813e-05
2.60471260844497e-05,-4.751778396894224e-05,2.3598779080202803e-05,2.5613178877392784e-05,-1.661458554735873e-05,5.8135410654358566e-05
2.4005646992009133e-05,-5.092402716400102e-05,2.7196943847229704e-05,2.3103350031306036e-05,-1.797292679839302e-05,5.7664547057356685e-05
2.1371817638282664e-05,-5.282073107082397e-05,3.192136500729248e-05,2.1258318156469613e-05,-1.6689105905243196e-05,5.5270174925681204e-05
1.9796030755969696e-05,-5.368567872210406e-05,3.4790511563187465e-05,1.9212626284570433e-05,-1.382016489515081e-05,5.399972360464744e-05
2.1517651475733146e-05,-5.4024487326387316e-05,3.486243076622486e-05,1.795905154722277e-05,-1.0078831110149622e-05,5.5713080655550584e-05
2.5071174604818225e-05,-5.14274142915383e-05,3.0406676160055213e-05,1.852166860771831e-05,-6.916493020980852e-06,5.5948810768313706e-05
2.635776218085084e-05,-4.803134288522415e-05,2.664589192136191e-05,1.9172448446624912e-05,-5.8121877373196185e-06,5.846289059263654e-05
2.6311432520742528e-05,-5.026286089560017e-05,2.769778984657023e-05,1.7327776731690392e-05,-3.505261020109174e-06,6.870449578855187e-05
2.5876337531371973e-05,-5.549015259020962e-05,2.726836100919172e-05,1.6734698874643072e-05,2.1441739761485223e-07,7.651503983652219e-05
2.3334607249125838e-05,-5.842513928655535e-05,2.588111601653509e-05,1.8377530068391934e-05,2.9287584766279906e-06,7.43692071409896e-05
2.128991582139861e-05,-5.6963417591759935e-05,2.4382818082813174e-05,1.9407287254580297e-05,3.1060744731803425e-06,6.796715751988813e-05
2.0757039237651043e-05,-5.432635953184217e-05,2.592830605863128e-05,1.8409604308544658e-05,4.3266868487989996e-06,6.732597830705345e-05
2.2995205654297024e-05,-5.550333662540652e-05,3.2779938919702545e-05,1.6617494111415e-05,3.894702786055859e-06,6.688485882477835e-05
2.50096545642009e-05,-5.893832349102013e-05,3.585558442864567e-05,1.9227754819439724e-05,-1.8500946907806792e-06,6.051427772035822e-05
2.1218336769379675e-05,-5.7503108109813184e-05,3.232533344998956e-05,2.6388117476017214e-05,-1.1629622349573765e-05,5.628974759019911e-05
1.5190694284683559e-05,-5.272840280667879e-05,2.8635618946282193e-05,3.111808837275021e-05,-2.5194896807079203e-05,5.639302980853245e-05
1.187034013128141e-05,-5.0075181206921116e-05,2.8267597372177988e-05,2.964346276712604e-05,-3.58173310814891e-05,5.7773413573158905e-05
1.2918086213176139e-05,-5.056771624367684e-05,2.9890943551436067e-05,2.5775494577828795e-05,-3.882046803482808e-05,5.736075763707049e-05
1.5932746464386582e-05,-5.228609370533377e-05,2.9980306862853467e-05,2.1843050490133464e-05,-3.681311136460863e-05,6.135574221843854e-05
1.519611214462202e-05,-5.34663449798245e-05,2.8893608032376505e-05,1.76817957253661e-05,-3.5943856346420944e-05,6.742175173712894e-05
1.206040360557381e-05,-5.352228617994115e-05,3.109100725851022e-05,1.6298221453325823e-05,-3.482205283944495e-05,6.895209662616253e-05
8.66786103870254e-06,-5.302985664457083e-05,3.604801167966798e-05,1.7983205907512456e-05,-3.181962892995216e-05,6.43487146589905e-05
5.4309575716615655e-06,-5.23867056472227e-05,3.908100552507676e-05,1.967069874808658e-05,-2.635620694491081e-05,5.8621048083296046e-05
4.302371962694451e-06,-5.291742127155885e-05,3.857817137031816e-05,1.8880784409702756e-05,-2.2465435904450715e-05,5.808216883451678e-05
5.283081463858252e-06,-5.51540324522648e-05,3.7269557651598006e-05,1.5341489415732212e-05,-2.389982546446845e-05,6.112405390013009e-05
4.963874744134955e-06,-5.604754187515937e-05,3.7255449569784105e-05,1.1177220585523173e-05,-2.5642793843871914e-05,6.280456727836281e-05
3.4838649298762903e-06,-5.502671774593182e-05,3.63339131581597e-05,1.0404305612610187e-05,-2.4539865989936516e-05,6.274259794736281e-05
2.17941556002188e-06,-5.550033165491186e-05,3.4453067200956866e-05,1.137998879130464e-05,-2.082728678942658e-05,6.174801092129201e-05
4.44717755954116e-07,-5.7919292885344476e-05,3.481821477180347e-05,1.3677046808879822e-05,-1.4177774573909119e-05,5.819456418976188e-05
2.2898152565176133e-06,-5.867353320354596e-05,3.677180575323291e-05,1.835956391005311e-05,-2.9840525712643284e-06,5.505737499333918e-05
9.571484042680822e-06,-5.607423008768819e-05,3.5393819416640326e-05,2.1688025299226865e-05,1.0461222700541839e-05,5.512159623322077e-05
1.6255689843092114e-05,-5.267815868137404e-05,3.224571264581755e-05,2.3631391741218977e-05,2.4198017854359932e-05,5.480359686771408e-05
1.9567545678000897e-05,-5.1792820158880204e-05,3.0504528695018962e-05,2.5027251467690803e-05,3.526174259604886e-05,5.2788724133279175e-05
2.2991020159679465e-05,-5.0287271733395755e-05,2.966663487313781e-05,2.4350807507289574e-05,4.050035204272717e-05,5.323860023054294e-05
2.5907558665494435e-05,-4.640425322577357e-05,3.0699378839926794e-05,2.5193046894855797e-05,4.245606032782234e-05,5.51135053683538e-05
2.7831671104650013e-05,-4.3600644858088344e-05,3.3227250241907313e-05,3.0077213523327373e-05,4.2741950892377645e-05,5.750880518462509e-05
2.913548996730242e-05,-4.273906961316243e-05,3.635831308201887e-05,3.531144102453254e-05,4.191990228719078e-05,6.074638440622948e-05
3.21385741699487e-05,-4.254480154486373e-05,3.879986979882233e-05,3.381409260327928e-05,4.113382601644844e-05,5.995870378683321e-05
3.651524821179919e-05,-4.326055204728618e-05,4.044339948450215e-05,3.052477404708043e-05,3.8319001760100946e-05,5.8411722420714796e-05
3.6321878724265844e-05,-4.145941784372553e-05,3.778321479330771e-05,3.066829958697781e-05,3.080114402109757e-05,6.117439625086263e-05
3.667244527605362e-05,-3.8912130548851565e-05,3.315544017823413e-05,3.0192297344910912e-05,2.2118356355349533e-05,6.401857535820454e-05
4.005853770649992e-05,-3.884836769429967e-05,3.4003656764980406e-05,2.953183138743043e-05,1.7441585441702046e-05,6.603979272767901e-05
4.060721767018549e-05,-4.0140090277418494e-05,3.617475522332825e-05,2.7910180506296456e-05,1.4386514521902427e-05,6.743295671185479e-05
3.727454168256372e-05,-4.09409221902024e-05,3.925186683773063e-05,2.6390498533146456e-05,1.1931475455639884e-05,6.568514800164849e-05
3.3353790058754385e-05,-4.0256385545944795e-05,4.131747846258804e-05,2.7039748601964675e-05,7.979431757121347e-06,5.859411976416595e-05
3.2860458304639906e-05,-3.994445069110952e-05,3.988574098912068e-05,3.248223219998181e-05,2.1773596472485224e-06,5.414475890574977e-05
3.4183110983576626e-05,-4.090934817213565e-05,3.5711564123630524e-05,3.6577384889824316e-05,-4.694092240242753e-06,5.741629138356075e-05
3.283085243310779e-05,-4.3847809138242155e-05,2.8470443794503808e-05,3.3196825825143605e-05,-1.2195122508273926e-05,6.282762478804216e-05
2.610230876598507e-05,-4.723948586615734e-05,2.453341039654333e-05,2.7739519282476977e-05,-2.095007585012354e-05,6.111478433012962e-05
2.04310126719065e-05,-4.947085108142346e-05,2.554630373197142e-05,2.841901732608676e-05,-2.9131590054021217e-05,5.9995461924700066e-05
1.9182931282557547e-05,-5.0364578783046454e-05,2.9207561965449713e-05,3.45062799169682e-05,-3.324904901091941e-05,6.762045086361468e-05
2.0274317648727447e-05,-5.0899827328976244e-05,2.9650935175595805e-05,3.744231435121037e-05,-3.3597403671592474e-05,7.638054376002401e-05
2.0239458535797894e-05,-5.232029070612043e-05,2.519447480153758e-05,3.576302697183564e-05,-3.177740654791705e-05,7.794891280354932e-05
1.932446139107924e-05,-5.3814910643268377e-05,2.1125997591298074e-05,3.494022894301452e-05,-2.9920145607320592e-05,7.73520878283307e-05
1.84326072485419e-05,-5.543933002627455e-05,2.211779064964503e-05,3.4564160159789026e-05,-2.8326565370662138e-05,8.096640522126108e-05
1.7202028175233863e-05,-5.717439853469841e-05,2.5818728317972273e-05,3.426689363550395e-05,-2.8466794901760295e-05,8.199361764127389e-05
1.4492321497527882e-05,-5.700953624909744e-05,2.7812689950224012e-05,3.445242327870801e-05,-3.1438747100764886e-05,7.42073098081164e-05
1.1457133041403722e-05,-5.4441701649921015e-05,2.7615882572717965e-05,3.3758016797946766e-05,-3.74638766516e-05,6.28193884040229e-05
1.0513332199479919e-05,-5.25189570907969e-05,2.6252175302943215e-05,3.296771683380939e-05,-4.22106240876019e-05,5.7521283451933414e-05
1.0785141057567671e-05,-5.1672781410161406e-05,2.5213637854903936e-05,3.1917054002406076e-05,-4.291146251489408e-05,5.98997030465398e-05
1.4041342183190864e-05,-5.1020237151533365e-05,2.7199817850487307e-05,3.2952950277831405e-05,-3.735734208021313e-05,6.563808710779995e-05
1.951841841218993e-05,-5.099919144413434e-05,3.376673339516856e-05,3.24315442412626e-05,-3.102420305367559e-05,6.800083065172657e-05
2.213496554759331e-05,-5.078886169940233e-05,3.8170845073182136e-05,2.555072569521144e-05,-3.346031371620484e-05,6.772030610591173e-05
1.936577245942317e-05,-5.154229802428745e-05,3.742486660485156e-05,1.643257201067172e-05,-3.959140303777531e-05,6.040075095370412e-05
1.836480623751413e-05,-5.2977535233367234e-05,3.625738463597372e-05,9.76807586994255e-06,-4.139906741329469e-05,4.997123687644489e-05
2.0757703168783337e-05,-5.447743387776427e-05,3.76408061129041e-05,9.082071301236283e-06,-3.733074845513329e-05,3.996591112809256e-05
2.1383015337050892e-05,-5.379724098020233e-05,3.811620263149962e-05,1.3126506019034423e-05,-3.241251761210151e-05,3.093511986662634e-05
1.6869031242094934e-05,-5.31206933374051e-05,3.472278331173584e-05,1.0665514309948776e-05,-2.821959242282901e-05,2.604172368592117e-05
1.3484584087564144e-05,-5.4320527851814404e-05,3.316116635687649e-05,-1.707436126707762e-06,-1.8034572349279188e-05,2.4966446289909072e-05
1.5026531400508247e-05,-5.45299808436539e-05,3.43336614605505e-05,-9.952474101737607e-06,-5.974065516056726e-06,2.8391956220730208e-05
2.1280002329149283e-05,-5.503202191903256e-05,3.185506284353323e-05,1.3587371086032363e-06,-2.735836005740566e-06,3.1283409043680876e-05
2.7841470000566915e-05,-5.543449879041873e-05,2.6502495529712178e-05,2.2247537344810553e-05,-4.536554570222506e-06,3.2736268622102216e-05
2.8304870284046046e-05,-5.316358510754071e-05,2.537473847041838e-05,2.9503044061129913e-05,-7.021579904176178e-07,3.169705451000482e-05
2.669403693289496e-05,-4.8257708840537816e-05,2.9439786885632202e-05,2.129475433321204e-05,9.139896974375006e-06,2.940699050668627e-05
2.7099671569885686e-05,-4.561711102724075e-05,3.392546932445839e-05,1.30129183162353e-05,1.7739641407388262e-05,2.9148170142434537e-05
2.704288635868579e-05,-4.580341192195192e-05,3.5324697819305584e-05,1.66016943694558e-05,1.92710904229898e-05,3.083629417233169e-05
2.422170655336231e-05,-4.813361374544911e-05,3.1778530683368444e-05,2.9404232918750495e-05,1.4115772501099855e-05,3.4578333725221455e-05
2.2031670596334152e-05,-5.0423070206306875e-05,2.6087096557603218e-05,4.502931915340014e-05,5.112120106787188e-06,4.025061571155675e-05
2.1800691683893092e-05,-5.148176205693744e-05,2.332487201783806e-05,5.803275780635886e-05,-3.513077444949886e-06,4.9540773034095764e-05
2.1072175513836555e-05,-5.261371916276403e-05,2.6121726477867924e-05,6.222579395398498e-05,-8.295995939988643e-06,5.845315536134876e-05
1.9141049051540904e-05,-5.395535845309496e-05,2.985545143019408e-05,5.6240998674184084e-05,-8.831466402625665e-06,6.132775888545439e-05
1.9108894775854424e-05,-5.4137744882609695e-05,3.311004184070043e-05,4.470830026548356e-05,-7.655430636077654e-06,5.8302230172557756e-05
2.2940555936656892e-05,-5.3098723583389074e-05,3.607971302699298e-05,3.492514224490151e-05,-7.561709480796708e-06,5.846727799507789e-05
2.6787820388562977e-05,-5.170298754819669e-05,3.586648017517291e-05,2.9015058316872455e-05,-8.70842814038042e-06,6.394399679265916e-05
2.791216866171453e-05,-5.274481372907758e-05,3.2668609492247924e-05,2.5307503165095113e-05,-1.1116597306681797e-05,6.71909365337342e-05
2.8258546080905944e-05,-5.41617046110332e-05,3.216370532754809e-05,2.230635982414242e-05,-1.2972387594345491e-05,6.558551831403747e-05
2.8722037313855253e-05,-5.224196502240375e-05,3.408853444852866e-05,1.8806718799169175e-05,-1.2784455975634046e-05,6.1003025621175766e-05
3.0280887585831806e-05,-5.147281990502961e-05,3.345619552419521e-05,1.415320275555132e-05,-1.2635061466426123e-05,5.852136746398173e-05
3.3892203646246344e-05,-5.17000698891934e-05,3.217951598344371e-05,1.1952364729950204e-05,-1.4325170013762545e-05,5.976425381959416e-05
3.68824512406718e-05,-5.281557605485432e-05,3.3757129131117836e-05,1.418995361746056e-05,-1.5322797480621375e-05,6.378012039931491e-05
3.353338979650289e-05,-5.4795793403172866e-05,3.652961095212959e-05,1.4956723134673666e-05,-1.710953984002117e-05,6.59552970319055e-05
2.5755205570021644e-05,-5.3548232244793326e-05,3.635524262790568e-05,1.2316345419094432e-05,-1.918154339364264e-05,6.366496381815523e-05
2.136636248906143e-05,-4.985081250197254e-05,3.423657108214684e-05,1.2717116987914778e-05,-1.689005694061052e-05,6.26965775154531e-05
2.270686127303634e-05,-4.7261804866138846e-05,2.998772106366232e-05,1.5233647900458891e-05,-1.5370229448308237e-05,6.553628918481991e-05
2.4933522581704892e-05,-4.4599852117244154e-05,2.7867437893291935e-05,1.7491105609224178e-05,-1.736699960019905e-05,7.046559039736167e-05
2.614260301925242e-05,-4.406915104482323e-05,3.044993536605034e-05,2.1303199901012704e-05,-1.544509177620057e-05,7.571609603473917e-05
2.6874509785557166e-05,-4.419492688612081e-05,3.302067852928303e-05,2.720548764045816e-05,-1.080072524928255e-05,7.916588219814003e-05
2.4102171664708294e-05,-4.4112526666140184e-05,3.360196205903776e-05,4.210811312077567e-05,-8.79518029250903e-06,8.242616604547948e-05
2.220622445747722e-05,-4.437511961441487e-05,3.269410808570683e-05,6.183914229040965e-05,-6.6511975091998465e-06,8.609192445874214e-05
2.2690966943628155e-05,-4.347905269241892e-05,3.2780713809188455e-05,7.26892685634084e-05,-3.975170329795219e-06,8.3510487456806e-05
2.2363587049767375e-05,-4.137668292969465e-05,3.562021447578445e-05,7.119422662071884e-05,-2.6231439278490143e-06,7.635126530658454e-05
2.093556940963026e-05,-4.2072919313795865e-05,3.659926733234897e-05,6.738770025549456e-05,-1.612685537111247e-06,7.139013177948073e-05
1.937400156748481e-05,-4.5930835767649114e-05,3.4478125598980114e-05,7.372965046670288e-05,-1.4043297369426e-07,6.595384184038267e-05
1.9040096958633512e-05,-5.07261574966833e-05,3.294324778835289e-05,8.637843711767346e-05,8.447588015769725e-07,5.896641232538968e-05
1.949163925019093e-05,-5.4906147852307186e-05,3.25381952279713e-05,8.969486952992156e-05,2.4924278818616585e-07,5.615957343252376e-05
2.036787918768823e-05,-5.597409472102299e-05,3.258122524130158e-05,7.77862369432114e-05,-1.1999150046904106e-06,5.975013118586503e-05
1.821553087211214e-05,-5.438648440758698e-05,3.22942178172525e-05,6.122707418398932e-05,-2.782523097266676e-06,6.24173044343479e-05
1.2900728506792802e-05,-5.276290175970644e-05,3.226868648198433e-05,4.997168434783816e-05,-5.0246135288034566e-06,6.231950828805566e-05
8.630298907519318e-06,-5.20148387295194e-05,3.2948199077509344e-05,4.2657666199374944e-05,-6.673156804026803e-06,5.891585533390753e-05
9.836953722697217e-06,-5.0921928050229326e-05,3.35524782713037e-05,3.399524939595722e-05,-5.466760285344208e-06,5.4449490562547e-05
1.407774743711343e-05,-5.004335253033787e-05,3.399052729946561e-05,2.756423782557249e-05,-4.6798959374427795e-06,5.236684228293598e-05
1.7491360267740674e-05,-4.8368863645009696e-05,3.286159335402772e-05,2.6037680072477087e-05,-8.28908923722338e-06,5.0604176067281514e-05
1.7915630451170728e-05,-4.9396217946195975e-05,2.9808665203745477e-05,2.613513970572967e-05,-1.2724916814477183e-05,4.9405960453441367e-05
1.4460980310104787e-05,-5.166526170796715e-05,2.901869811466895e-05,2.8662439945037477e-05,-1.3135237168171443e-05,5.03287446917966e-05
9.820205377764069e-06,-5.0352893595118076e-05,3.22091109410394e-05,3.0619932658737525e-05,-1.1233898476348259e-05,5.139305358170532e-05
7.766935596009716e-06,-4.8523375880904496e-05,3.6395853385329247e-05,2.6862095182877965e-05,-1.1551828720257618e-05,4.81616698380094e-05
8.98043072083965e-06,-5.0452064897399396e-05,3.723796544363722e-05,2.4924891476985067e-05,-1.7152968212030828e-05,4.1394680010853335e-05
9.13382518774597e-06,-5.494757351698354e-05,3.4788197808666155e-05,2.944753759948071e-05,-2.239298919448629e-05,4.0877970604924485e-05
7.282995284185745e-06,-5.921394767938182e-05,3.210023351130076e-05,2.737236354732886e-05,-2.257817868667189e-05,4.911896394332871e-05
6.574150575033855e-06,-6.069902519811876e-05,3.171366188325919e-05,1.4739794096385594e-05,-2.158746610803064e-05,5.5472381063736975e-05
7.375550012511667e-06,-6.0233385738683864e-05,3.549692337401211e-05,4.472101863939315e-06,-2.2499005353893153e-05,5.681134280166589e-05
1.0409615242679138e-05,-5.721083653043024e-05,3.7345464079407975e-05,3.8915654840820935e-06,-2.7344587579136714e-05,5.436447463580407e-05
1.206153683597222e-05,-5.2934017730876803e-05,3.561502671800554e-05,1.0277338333253283e-05,-3.992316851508804e-05,5.1006303692702204e-05
9.338663403468672e-06,-5.167613926460035e-05,3.335915243951604e-05,1.7633421521168202e-05,-5.743902511312626e-05,5.1731713028857484e-05
8.530952072760556e-06,-5.177612547413446e-05,3.193711381754838e-05,2.2351352527039126e-05,-7.138548971852288e-05,5.474365025293082e-05
9.636560207582079e-06,-5.078259346191771e-05,3.157026367262006e-05,2.5074523364310153e-05,-7.915428432170302e-05,5.7758377806749195e-05
1.4166249457048252e-05,-4.811171311303042e-05,3.190991992596537e-05,2.751647843979299e-05,-7.971316517796367e-05,6.141496851341799e-05
1.7003743778332137e-05,-4.460813943296671e-05,3.6159472074359655e-05,2.746039717749227e-05,-7.648056634934619e-05,6.443167512770742e-05
1.590390456840396e-05,-4.203936623525806e-05,3.8326921639963984e-05,2.440158095851075e-05,-6.903851317474619e-05,6.485633639385924e-05
1.6199666788452305e-05,-4.073483432875946e-05,3.477984864730388e-05,2.063561805698555e-05,-5.2321051043691114e-05,6.452348316088319e-05
1.8992934201378375e-05,-4.208626342006028e-05,3.1890009267954156e-05,1.7750124243320897e-05,-2.5535931854392402e-05,6.29264977760613e-05
2.1506011762539856e-05,-4.5270622649695724e-05,3.337404632475227e-05,1.7323283827863634e-05,7.2720699790806975e-06,6.450305227190256e-05
2.09314857784193e-05,-4.841819099965505e-05,3.496338104014285e-05,1.7136839232989587e-05,3.961801121477038e-05,6.59320576232858e-05
2.0404060705914162e-05,-4.9491260142531246e-05,3.305903010186739e-05,1.874149529612623e-05,6.66653286316432e-05,6.269275763770565e-05
2.232185761386063e-05,-4.7433215513592586e-05,2.9475753763108514e-05,2.3296403014683165e-05,8.432334288954735e-05,6.174252484925091e-05
2.5980341888498515e-05,-4.604118657880463e-05,2.7649164621834643e-05,2.4997492801048793e-05,9.111512190429494e-05,6.520932947751135e-05
2.9251832529553212e-05,-4.873147190664895e-05,2.911878254963085e-05,1.9007333321496844e-05,8.81588421179913e-05,7.002879283390939e-05
3.24484208249487e-05,-5.129279088578187e-05,3.039807779714465e-05,1.0860800102818757e-05,7.992497558007017e-05,7.223342981887981e-05
3.6605968489311635e-05,-5.036076981923543e-05,2.9743441700702533e-05,1.1242893378948793e-05,6.994359864620492e-05,7.285133324330673e-05
4.289924254408106e-05,-4.7976984205888584e-05,3.0294782845885493e-05,2.2397443899535574e-05,5.975876410957426e-05,6.859643326606601e-05
4.742063538287766e-05,-4.689912384492345e-05,2.8623247999348678e-05,3.273614856880158e-05,4.869867188972421e-05,5.647170473821461e-05
4.908169648842886e-05,-4.8725534725235775e-05,2.2995751351118088e-05,3.227777051506564e-05,3.519027814036235e-05,4.348090442363173e-05
5.176132981432602e-05,-4.9852671509142965e-05,2.0191118892398663e-05,2.707327075768262e-05,2.080168815155048e-05,3.651385850389488e-05
5.269929170026444e-05,-4.880079359281808e-05,2.2585778424399905e-05,2.3655342374695465e-05,8.567389158997685e-06,3.780243787332438e-05
4.959442594554275e-05,-4.763488323078491e-05,2.9891931262682192e-05,2.243576273031067e-05,1.352766076934131e-07,4.4593834900297225e-05
4.568780059344135e-05,-4.913256270810962e-05,3.39832877216395e-05,2.253272759844549e-05,-4.758784143632511e-06,4.560616798698902e-05
4.0586710383649915e-05,-4.953153256792575e-05,3.05199391732458e-05,2.1081383238197304e-05,-8.310863449878525e-06,4.452066423255019e-05
3.614177694544196e-05,-4.7065113903954625e-05,2.68235871772049e-05,1.6653171769576147e-05,-9.746173418534454e-06,4.292011362849735e-05
3.364858275745064e-05,-4.5495769882109016e-05,2.8545939130708575e-05,1.6432381016784348e-05,-9.907136700348929e-06,4.066760448040441e-05
2.9223518140497617e-05,-4.7274013923015445e-05,3.1919695175020024e-05,2.4639504772494547e-05,-1.1395010005799122e-05,3.92928377550561e-05
2.32924703595927e-05,-5.150510332896374e-05,3.4015978599200025e-05,3.456884951447137e-05,-1.9057719327975065e-05,3.7387220800155774e-05
1.9218003217247315e-05,-5.419973604148254e-05,3.5131943150190637e-05,4.566612187772989e-05,-3.403401206014678e-05,3.672657840070315e-05
1.781110040610656e-05,-5.3439216571860015e-05,3.3070558856707066e-05,5.194164259592071e-05,-4.5789896830683574e-05,4.18287527281791e-05
1.6641750335111283e-05,-5.158997009857558e-05,2.9332315534702502e-05,4.884772715740837e-05,-5.0969199946848676e-05,5.341159339877777e-05
1.468949812988285e-05,-5.008314110455103e-05,2.7989810405415483e-05,4.505699689616449e-05,-5.186152338865213e-05,5.6435437727486715e-05
1.5047499800857622e-05,-4.946137050865218e-05,2.6457895728526637e-05,4.12322988267988e-05,-4.931476360070519e-05,5.0388105591991916e-05
1.647074350330513e-05,-5.0256137910764664e-05,2.385495463386178e-05,3.596037277020514e-05,-4.385943611850962e-05,4.486391844693571e-05
1.8236141841043718e-05,-5.145220347912982e-05,2.420931195956655e-05,3.0034087103558704e-05,-3.707142604980618e-05,4.734358299174346e-05
2.0234258045093156e-05,-5.270052497508004e-05,2.6006082407548092e-05,2.5910281692631543e-05,-2.817979475366883e-05,5.345982572180219e-05
2.028520975727588e-05,-5.301184137351811e-05,2.778423913696315e-05,2.4637918613734655e-05,-1.8005834135692567e-05,5.532241993932985e-05
1.8311062376596965e-05,-5.203962427913211e-05,2.8739063054672442e-05,2.2829479348729365e-05,-1.0481589924893342e-05,5.458830128191039e-05
1.631036320759449e-05,-4.9709542508935556e-05,2.9227001505205408e-05,2.166699596273247e-05,-5.107840024720645e-06,5.697424785466865e-05
1.518317912996281e-05,-4.846556839765981e-05,2.898005368479062e-05,2.2618123693973757e-05,4.0508345477974217e-07,6.29737478448078e-05
1.4519387150357943e-05,-4.922326479572803e-05,2.837956890289206e-05,2.291494092787616e-05,5.430337751022307e-06,6.678616045974195e-05
1.4341380847326946e-05,-5.110832353238948e-05,2.8129410566180013e-05,2.19282246689545e-05,6.982989361858927e-06,6.764981662854552e-05
1.2828932085540146e-05,-5.161342050996609e-05,2.87892125925282e-05,2.1559413653449155e-05,4.6669670155097265e-06,6.877986743347719e-05
1.253632490261225e-05,-4.7568551963195205e-05,2.894405770348385e-05,2.4905541067710146e-05,2.293730858582421e-06,6.858124834252521e-05
1.755436278472189e-05,-4.400085163069889e-05,2.8324207960395142e-05,3.551088593667373e-05,2.08910864785139e-06,6.389407644746825e-05
2.2781008738093078e-05,-4.5975441025802866e-05,2.611212585179601e-05,4.628924943972379e-05,1.9170931864209706e-06,6.0428861615946516e-05
2.0990813936805353e-05,-4.9954669520957395e-05,2.5140752768493257e-05,5.0405131332809106e-05,-7.58992371174827e-07,5.995601895847358e-05
1.635673652344849e-05,-5.199409133638255e-05,2.7280859285383485e-05,4.7215933591360226e-05,-5.325331585481763e-06,5.912182678002864e-05
1.4969956282584462e-05,-5.175984188099392e-05,2.8988957637920976e-05,4.026772148790769e-05,-8.220790732593741e-06,6.154625589260831e-05
1.694391539786011e-05,-5.365003380575217e-05,3.0535935366060585e-05,3.708454460138455e-05,-9.109558959607966e-06,6.659651262452826e-05
1.754902768880129e-05,-5.494069409905933e-05,3.4434280678397045e-05,3.6799519875785336e-05,-1.041181712935213e-05,6.809083424741402e-05
1.6035181033657864e-05,-5.291125853545964e-05,4.054638702655211e-05,3.569747059373185e-05,-1.3348690117709339e-05,6.814125663368031e-05
1.6194058844121173e-05,-5.216474528424442e-05,4.046634421683848e-05,3.0406257792492397e-05,-1.7473355910624377e-05,7.07077415427193e-05
1.7078615201171488e-05,-5.1998053095303476e-05,3.622593794716522e-05,2.3462007447960787e-05,-2.07352659344906e-05,7.473889127140865e-05
1.8465094399289228e-05,-5.229420276009478e-05,3.511470276862383e-05,1.965078990906477e-05,-2.1816334992763586e-05,7.702398579567671e-05
2.044418579316698e-05,-5.192724711378105e-05,3.669515353976749e-05,1.828559470595792e-05,-2.4706158001208678e-05,7.448572432622313e-05
2.1826810552738607e-05,-4.973350223735906e-05,3.794461372308433e-05,1.853256981121376e-05,-2.877814586099703e-05,7.292766531463712e-05
2.3222120944410563e-05,-4.653983341995627e-05,3.7673587939934805e-05,2.272117490065284e-05,-3.0096380214672536e-05,7.625635043950751e-05
2.344694803468883e-05,-4.488397826207802e-05,3.683414252009243e-05,2.593308272480499e-05,-2.86516278720228e-05,7.747234485577792e-05
2.2809996153227985e-05,-4.611938857124187e-05,3.5334214771864936e-05,2.4462826331728138e-05,-2.7126925488119014e-05,7.361553434748203e-05
1.938312198035419e-05,-4.822275150218047e-05,3.435604230617173e-05,2.3150119886850007e-05,-2.787019548122771e-05,6.52001253911294e-05
1.4828981875325553e-05,-4.725280814454891e-05,3.717175786732696e-05,2.5424256818951108e-05,-2.9879805879318155e-05,5.886290455237031e-05
1.427313964086352e-05,-4.530507794697769e-05,4.113263275939971e-05,2.8886006475659087e-05,-3.053504042327404e-05,5.7316949096275494e-05
1.702730151009746e-05,-4.616236037691124e-05,4.261711364961229e-05,2.967468935821671e-05,-3.05491776089184e-05,5.888768282602541e-05
1.822764716052916e-05,-4.665022061089985e-05,4.188920502201654e-05,2.784976823022589e-05,-2.9792829081998207e-05,6.060271698515862e-05
1.708186391624622e-05,-4.468638508114964e-05,3.982831913162954e-05,2.684331229829695e-05,-2.6228552087559365e-05,6.301633402472362e-05
1.6184374544536695e-05,-4.2455158109078184e-05,3.801636194111779e-05,2.7204598154639825e-05,-2.1189956896705553e-05,6.655926699750125e-05
1.6943029550020583e-05,-4.2921656131511554e-05,3.724682028405368e-05,2.5891804398270324e-05,-1.9250997866038233e-05,6.551237311214209e-05
1.793844421627e-05,-4.555509440251626e-05,3.7025245546828955e-05,2.4187196686398238e-05,-1.9670100300572813e-05,5.8006608014693484e-05
1.7898799342219718e-05,-4.772051761392504e-05,3.563209975254722e-05,2.435858186800033e-05,-1.862270073615946e-05,5.029449675930664e-05
1.8218015611637384e-05,-5.051252446719445e-05,3.2468615245306864e-05,2.6766616429085843e-05,-1.683198570390232e-05,4.6726945583941415e-05
2.06839158636285e-05,-5.4040727263782173e-05,2.8408618163666688e-05,2.932536881417036e-05,-1.607076956133824e-05,4.4529275328386575e-05
2.249997851322405e-05,-5.407356366049498e-05,2.809842408169061e-05,3.3662174246273935e-05,-1.607609556231182e-05,4.4262684241402894e-05
2.1012418073951267e-05,-4.9624544772086665e-05,3.0961167794885114e-05,3.575938899302855e-05,-1.3080179996904917e-05,4.8182544560404494e-05
2.0284118363633752e-05,-4.654306758311577e-05,3.051921521546319e-05,3.524545536492951e-05,-9.946531463356223e-06,5.543802762986161e-05
2.408186992397532e-05,-4.706804975285195e-05,2.651736394909676e-05,3.7113772123120725e-05,-1.0800775271491148e-05,6.189718988025561e-05
2.9499842639779672e-05,-4.579762025969103e-05,2.3892753233667463e-05,3.7684047129005194e-05,-1.1026839274563827e-05,6.577406020369381e-05
2.7100097213406116e-05,-4.193128916085698e-05,2.5441744583076797e-05,3.503050174913369e-05,-8.567772056267131e-06,6.664796092081815e-05
2.293820580234751e-05,-3.9586964703630656e-05,2.8513924917206168e-05,3.138471583952196e-05,-1.045267708832398e-05,6.636463513132185e-05
2.292771932843607e-05,-4.1532381146680564e-05,2.920644146797713e-05,2.7405909349909052e-05,-1.269038602913497e-05,6.44585452391766e-05
2.181194577133283e-05,-4.477061884244904e-05,2.77000817732187e-05,2.0141369532211684e-05,-1.1404289580241311e-05,6.502411997644231e-05
2.136215516657103e-05,-4.795610948349349e-05,2.58875861618435e-05,1.3202079571783543e-05,-1.1983854165009689e-05,6.517199653899297e-05
2.296443381055724e-05,-5.0978305807802826e-05,2.5724913939484395e-05,1.1467993317637593e-05,-1.4330295016407035e-05,6.145877705421299e-05
2.347791269130539e-05,-5.323835284798406e-05,2.7796133508672938e-05,7.397768058581278e-06,-1.3047383617958985e-05,5.847998181707226e-05
2.3946424335008487e-05,-5.329143095877953e-05,3.041521631530486e-05,-6.839957677584607e-06,-7.673362233617809e-06,5.993494050926529e-05
2.490742554073222e-05,-5.415998020907864e-05,3.1024301279103383e-05,-3.4349894121987745e-05,-3.1579193660036253e-07,6.621494685532525e-05
2.8672420739894733e-05,-5.3531770390691236e-05,2.9968892704346217e-05,-6.457183189922944e-05,9.006975233205594e-06,7.17679868103005e-05
3.1269813916878775e-05,-4.709955828730017e-05,3.020053918589838e-05,-7.321274460991845e-05,1.6031128325266764e-05,6.893281533848494e-05
3.087064760620706e-05,-3.994335565948859e-05,3.2859770726645365e-05,-5.017650255467743e-05,1.7213473256560974e-05,5.969272388028912e-05
3.071151877520606e-05,-3.776940138777718e-05,3.664284304250032e-05,-6.117476459621685e-06,1.3366097846301273e-05,5.3454390581464395e-05
3.1152580049820244e-05,-3.966917211073451e-05,4.147071740590036e-05,4.201238334644586e-05,8.939372492022812e-06,4.9990096158580855e-05
3.0272660296759568e-05,-4.132304457016289e-05,4.407433880260214e-05,8.447909203823656e-05,4.814926796825603e-06,4.688208719016984e-05
2.852657053153962e-05,-4.20532887801528e-05,4.034753146697767e-05,0.00011787912808358669,6.226653681551397e-07,4.727651321445592e-05
2.865945680241566e-05,-3.9733520679874346e-05,3.322755583212711e-05,0.00013804851914756,-2.2920587525732117e-06,5.1592873205663636e-05
2.8253334676264785e-05,-3.773547359742224e-05,3.0128810976748355e-05,0.00013974009198136628,-4.964654635841725e-06,5.3039228077977896e-05
2.7099344151793048e-05,-4.0472528780810535e-05,3.169209958286956e-05,0.0001223174767801538,-9.377599781146273e-06,5.325980964698829e-05
2.769550701486878e-05,-4.579115193337202e-05,3.177503458573483e-05,9.362897981191054e-05,-1.3409819985099602e-05,5.7659945014165714e-05
3.0069570129853673e-05,-4.941257066093385e-05,2.868017509172205e-05,6.21760482317768e-05,-1.4169698260957375e-05,6.338296952890232e-05
2.975589632114861e-05,-5.089586557005532e-05,2.7241871066507883e-05,3.2953976187855005e-05,-1.0315050531062298e-05,6.820820999564603e-05
2.8504069632617757e-05,-5.143839734955691e-05,3.156014281557873e-05,1.3081353245070204e-05,-7.674150765524246e-06,7.062943768687546e-05
2.7818668968393467e-05,-5.099968984723091e-05,3.73374750779476e-05,7.436629857693333e-06,-1.3274093362269923e-05,6.828777986811474e-05
2.7383204724173993e-05,-5.1554936362663284e-05,4.059992716065608e-05,1.4278236449172255e-05,-2.6446612537256442e-05,6.208938430063426e-05
2.889723145926837e-05,-5.39936991117429e-05,3.875904803862795e-05,2.517074790375773e-05,-3.905310222762637e-05,6.025606126058847e-05
3.348856989759952e-05,-5.4964417358860373e-05,3.18293459713459e-05,3.21720726788044e-05,-4.354049451649189e-05,6.520013266708702e-05
3.757810918614268e-05,-5.539767153095454e-05,2.903735003201291e-05,3.427514457143843e-05,-3.9021058910293505e-05,6.9566594902426e-05
3.729111995198764e-05,-5.431866884464398e-05,2.9424198146443814e-05,3.7079997127875686e-05,-3.03158703900408e-05,7.260750862769783e-05
3.2099185773404315e-05,-5.1353526941966265e-05,2.8255761208129115e-05,4.935515971737914e-05,-1.945028816408012e-05,6.980350008234382e-05
2.6603815058479086e-05,-5.099718691781163e-05,2.9726053980994038e-05,6.385848973877728e-05,-7.100160473783035e-06,6.254360778257251e-05
2.3740320102660917e-05,-5.4835883929627016e-05,3.150244810967706e-05,6.764764111721888e-05,2.5709155693220964e-07,5.6701315770624205e-05
2.3550061087007634e-05,-5.8930210798280314e-05,3.0123841497697867e-05,6.073508848203346e-05,4.041165993839968e-06,5.167928975424729e-05
2.4354578272323124e-05,-6.123771890997887e-05,2.774695894913748e-05,4.925913890474476e-05,6.598992968065431e-06,4.597892257152125e-05
2.3248527213581838e-05,-6.119263707660139e-05,2.8849548471043818e-05,3.817688411800191e-05,1.0301133443135768e-05,4.36178597738035e-05
2.129507811332587e-05,-6.144686631159857e-05,3.226114858989604e-05,2.831298297678586e-05,1.5258657185768243e-05,4.472583168535493e-05
1.918302587000653e-05,-6.222636147867888e-05,3.3239633921766654e-05,1.8388445823802613e-05,1.9368499124539085e-05,4.7247482143575326e-05
1.7588059563422576e-05,-6.199384370120242e-05,2.942647370218765e-05,1.1278048077656422e-05,2.028236303885933e-05,5.068947211839259e-05
1.6490213965880685e-05,-6.188402039697394e-05,2.5215838832082227e-05,8.451050234725699e-06,1.886219070001971e-05,5.354198219720274e-05
1.606707155588083e-05,-5.8513858675723895e-05,2.578802923380863e-05,7.094873126334278e-06,1.553324364067521e-05,5.801150473416783e-05
1.7001188098220155e-05,-5.337508991942741e-05,3.0086372134974226e-05,6.1388450376398396e-06,1.1567364708753303e-05,6.139950710348785e-05
1.7265561837120913e-05,-5.040043106419034e-05,3.2361338526243344e-05,5.938248705206206e-06,5.012288966099732e-06,6.065514389774762e-05
1.5557889128103852e-05,-4.9598940677242354e-05,3.172522337990813e-05,6.149347882455913e-06,-5.288426109473221e-06,5.647170473821461e-05
1.3931826288171578e-05,-4.953419920639135e-05,3.332782944198698e-05,4.449047992238775e-06,-1.211637027154211e-05,5.4790052672615275e-05
1.3739453606831376e-05,-5.199768202146515e-05,3.64161969628185e-05,8.909504458642914e-07,-1.402147699991474e-05,5.9687568864319474e-05
1.3129324543115217e-05,-5.3244850278133526e-05,3.6405712307896465e-05,-2.6589368644636124e-06,-1.3585365195467602e-05,6.715524796163663e-05
1.2745365893351845e-05,-5.0435930461389944e-05,3.490247036097571e-05,-5.998770575388335e-06,-1.389795943396166e-05,6.95406342856586e-05
1.3333666174730752e-05,-4.7354747948702425e-05,3.353986903675832e-05,-5.713805876439437e-06,-1.721929947962053e-05,6.635586760239676e-05
1.3597068573290017e-05,-4.7003908548504114e-05,3.1323939765570685e-05,7.040036052785581e-06,-2.242336813651491e-05,6.0151927755214274e-05
1.1872009963553865e-05,-4.734440881293267e-05,3.121730696875602e-05,2.894171302614268e-05,-2.4554299670853652e-05,5.654235428664833e-05
9.83532390819164e-06,-4.732147863251157e-05,3.208545967936516e-05,4.6837176341796294e-05,-2.1417970856418833e-05,5.9467845858307555e-05
9.013638191390783e-06,-4.734650065074675e-05,3.37584970111493e-05,5.395162588683888e-05,-1.8409295080346055e-05,6.414615199901164e-05
9.113946362049319e-06,-4.731957960757427e-05,3.527582884998992e-05,5.007366416975856e-05,-1.975470695469994e-05,6.753108027623966e-05
1.1932276720472146e-05,-4.6199591452023014e-05,3.4654112823773175e-05,4.24149984610267e-05,-2.157639573852066e-05,6.919218867551535e-05
1.415877432009438e-05,-4.35990332334768e-05,3.312578337499872e-05,3.7979247281327844e-05,-2.202288123953622e-05,6.44278698018752e-05
1.4841065421933308e-05,-4.23583660449367e-05,3.409946657484397e-05,3.823498627752997e-05,-1.9528946722857654e-05,5.803357998956926e-05
1.4950915101508144e-05,-4.206273297313601e-05,3.689590812427923e-05,3.884125908371061e-05,-1.643686664465349e-05,5.425284325610846e-05
1.4946546798455529e-05,-4.583098052535206e-05,3.43486390192993e-05,3.0340132070705295e-05,-1.4129992450762074e-05,5.234217314864509e-05
1.3512313671526499e-05,-5.0854254368459806e-05,2.8665228455793113e-05,1.5768522644066252e-05,-1.3972449778520968e-05,5.2303123084129766e-05
1.347954912489513e-05,-5.050394611316733e-05,2.6607513063936494e-05,6.774645953555591e-06,-1.4155541066429578e-05,4.919059210806154e-05
1.4717627891513985e-05,-4.911780706606805e-05,2.829183176800143e-05,7.161438588809688e-06,-1.4254468624130823e-05,4.745720434584655e-05
1.5889578207861632e-05,-4.966653068549931e-05,2.9899565561208874e-05,1.0395610843261238e-05,-1.3702918295166455e-05,4.8414862249046564e-05
1.692065598035697e-05,-5.139218774274923e-05,2.9414712116704322e-05,1.3109249266562983e-05,-1.1046719919249881e-05,4.883020665147342e-05
1.778382466000039e-05,-5.257458542473614e-05,2.8312113499850966e-05,1.5646653992007487e-05,-9.017860975291114e-06,4.667193934437819e-05
1.9063032596022822e-05,-5.1863968110410497e-05,2.853069599950686e-05,1.8261072909808718e-05,-8.007265932974406e-06,4.507616176852025e-05
1.9882505512214266e-05,-5.0656475650612265e-05,2.8279298931011e-05,1.8807313608704135e-05,-8.235632776631974e-06,4.8421527026221156e-05
2.1137673684279434e-05,-5.1302729843882844e-05,2.5818108042585663e-05,1.390059151162859e-05,-8.545439413865097e-06,5.657406654790975e-05
2.244602728751488e-05,-5.2437542763073e-05,2.435366332065314e-05,9.219240382662974e-06,-8.292221536976285e-06,6.274230690905824e-05
2.365778709645383e-05,-5.2128947572782636e-05,2.471794323355425e-05,9.832752766669728e-06,-9.5544410214643e-06,6.255253538256511e-05
2.333078191441018e-05,-4.995895142201334e-05,2.4727974960114807e-05,1.6832942492328584e-05,-1.3302017578098457e-05,6.185680831549689e-05
2.2570595319848508e-05,-4.83391631860286e-05,2.3868686184869148e-05,2.5043227651622146e-05,-1.6339570720447227e-05,6.0195055993972346e-05
2.2616171918343753e-05,-4.902091677649878e-05,2.3803102521924302e-05,2.8686514269793406e-05,-1.8439932318869978e-05,5.583020902122371e-05
2.3352095013251528e-05,-5.088270700071007e-05,2.3693502953392453e-05,2.7577854780247435e-05,-1.9175629859091714e-05,5.11477337568067e-05
2.3404340026900172e-05,-5.16328691446688e-05,2.3254830011865124e-05,2.7388463422539644e-05,-1.5915858966764063e-05,5.0726452172966674e-05
2.21383979805978e-05,-5.0125341658713296e-05,2.326934009033721e-05,2.865265923901461e-05,-1.1669737432384863e-05,5.548823537537828e-05
2.130276698153466e-05,-5.0306185585213825e-05,2.2927188183530234e-05,2.925770968431607e-05,-1.3088144442008343e-05,6.089732050895691e-05
2.2579755750484765e-05,-5.208441143622622e-05,2.4940891307778656e-05,2.9779343094560318e-05,-1.9376800992176868e-05,6.452188245020807e-05
2.389589644735679e-05,-5.151081131771207e-05,3.0173563573043793e-05,2.9601866117445752e-05,-2.2870246539241634e-05,6.44557221676223e-05
2.52662011916982e-05,-5.028060695622116e-05,3.3429543691454455e-05,3.232835661037825e-05,-1.9014927602256648e-05,6.246355769690126e-05
2.7913441954297014e-05,-5.073057400295511e-05,3.275079870945774e-05,3.587472383514978e-05,-1.17484487418551e-05,6.584799120901152e-05
3.0445971788140014e-05,-5.1230963435955346e-05,3.068380101467483e-05,3.826330430456437e-05,-7.640436706424225e-06,6.958220910746604e-05
3.174804805894382e-05,-5.147164119989611e-05,2.932346069428604e-05,3.916350760846399e-05,-9.993907951866277e-06,6.471168308053166e-05
3.1691779440734535e-05,-5.1271617849124596e-05,2.8095286324969493e-05,3.715583079610951e-05,-1.4387821465788875e-05,6.34700118098408e-05
2.662212136783637e-05,-5.1178965804865584e-05,2.6484960471861996e-05,3.303992343717255e-05,-1.9703029465745203e-05,6.97424984537065e-05
2.1714553440688178e-05,-4.971603266312741e-05,2.4405282601946965e-05,2.8794616810046136e-05,-2.1378056771936826e-05,7.493924931623042e-05
2.4537737772334367e-05,-4.7872046707198024e-05,2.2757400074624456e-05,2.5880395696731284e-05,-1.528615757706575e-05,7.554217881988734e-05
2.832903373928275e-05,-4.479636118048802e-05,2.474793654982932e-05,2.3924236302264035e-05,-8.472900844935793e-06,6.940497405594215e-05
3.0488672564388253e-05,-4.2405270505696535e-05,2.7741467420128174e-05,2.651402428455185e-05,-7.259622179844882e-06,5.988924385746941e-05
3.010628824995365e-05,-4.323538450989872e-05,2.730739834078122e-05,3.021169686689973e-05,-1.0484857739356812e-05,5.2849154599243775e-05
2.6933887056657113e-05,-4.6113465941743925e-05,2.414498885627836e-05,2.6424262614455074e-05,-1.3494723134499509e-05,5.108238838147372e-05
2.4619403120595962e-05,-4.95797794428654e-05,2.350952672713902e-05,1.458224232919747e-05,-1.3918243894295301e-05,5.1681927288882434e-05
2.5152869056910276e-05,-5.25466566614341e-05,2.8689699320239015e-05,7.112605999282096e-06,-1.2697573765763082e-05,5.655670611304231e-05
2.7703279556590132e-05,-5.362394585972652e-05,3.450816802796908e-05,1.0089257557410747e-05,-1.338835500064306e-05,6.267055141506717e-05
2.8533482691273093e-05,-4.98612062074244e-05,3.747250957530923e-05,1.916523979161866e-05,-1.7285257854382508e-05,6.425195897463709e-05
2.6707597498898394e-05,-4.5250119001138955e-05,3.902076423401013e-05,3.13817108690273e-05,-2.2535301468451507e-05,6.033632598700933e-05
2.314330959052313e-05,-4.5204586058389395e-05,3.895623012795113e-05,4.27235645474866e-05,-2.952864633698482e-05,5.549405614146963e-05
1.9929331756429747e-05,-4.927871123072691e-05,3.6824778362642974e-05,4.5736644096905366e-05,-4.0717593947192654e-05,5.250907634035684e-05
1.8292745153303258e-05,-5.340382631402463e-05,3.379277040949091e-05,4.1371775296283886e-05,-5.162207526154816e-05,5.198991493671201e-05
1.915625762194395e-05,-5.478826642502099e-05,3.1957697501638904e-05,3.799377373070456e-05,-5.7048666349146515e-05,5.768528353655711e-05
2.140864853572566e-05,-5.516930832527578e-05,3.276947609265335e-05,3.672915408969857e-05,-5.771812720922753e-05,6.66099731461145e-05
2.2318337869364768e-05,-5.605678234132938e-05,3.6136181734036654e-05,3.6406301660463214e-05,-5.4007490689400584e-05,6.94205446052365e-05
2.1897549231653102e-05,-5.3681178542319685e-05,3.929853846784681e-05,3.6365334381116554e-05,-3.993707287008874e-05,6.33391464361921e-05
2.1962499886285514e-05,-5.0532886234577745e-05,4.074195021530613e-05,3.5854063753504306e-05,-1.5122094737307634e-05,5.8241086662746966e-05
2.3524693460785784e-05,-4.942676969221793e-05,3.8285103073576465e-05,3.432007724768482e-05,1.207917830470251e-05,5.990980571368709e-05
2.64100654021604e-05,-4.960093792760745e-05,3.3780972444219515e-05,3.300164462416433e-05,3.821533391601406e-05,6.299709639279172e-05
2.8582864615600556e-05,-5.267038432066329e-05,3.625819954322651e-05,3.452181044849567e-05,6.401420250767842e-05,5.7128429034492e-05
2.8804906833101995e-05,-5.710122422897257e-05,4.4673364754999056e-05,3.617829497670755e-05,8.38552150526084e-05,4.891774005955085e-05
2.921198756666854e-05,-5.8810521295526996e-05,4.759263902087696e-05,3.283493424532935e-05,8.958279067883268e-05,5.219447848503478e-05
2.7819256501970813e-05,-5.6483346270397305e-05,4.379805614007637e-05,3.011206536029931e-05,8.380204963032156e-05,5.846399290021509e-05
2.7074340323451906e-05,-5.340841744327918e-05,4.037296093883924e-05,2.8985703465878032e-05,7.149705925257877e-05,5.4524687584489584e-05
2.6804676963365637e-05,-5.269447137834504e-05,3.9580660086357966e-05,3.113522689091042e-05,5.210109520703554e-05,4.6671670133946463e-05
2.6354708097642288e-05,-5.519600017578341e-05,4.040766361868009e-05,3.0738905479665846e-05,3.34024298354052e-05,4.23660603701137e-05
2.8996815672144294e-05,-5.864155536983162e-05,3.995194856543094e-05,2.616379060782492e-05,1.91537692444399e-05,4.1309518564958125e-05
3.090374229941517e-05,-6.325979484245181e-05,3.6604418710339814e-05,2.6767807867145166e-05,5.502603016793728e-06,4.044164961669594e-05
3.1615600164514035e-05,-6.523327465401962e-05,3.336088411742821e-05,2.8502539862529375e-05,-7.159216693253256e-06,3.557395757525228e-05
3.094349449384026e-05,-5.9658570535248145e-05,3.4997898183064535e-05,2.7020691049983725e-05,-1.6995792975649238e-05,3.398629269213416e-05
2.8746993848471902e-05,-5.106094977236353e-05,3.752533666556701e-05,2.535822568461299e-05,-2.2733618607162498e-05,4.0177827031584457e-05
2.7165961000719108e-05,-4.3707084842026234e-05,3.783700230997056e-05,2.7054644306190312e-05,-2.7097186830360442e-05,4.4237989641260356e-05
2.6467681891517714e-05,-4.132767207920551e-05,3.818479672190733e-05,3.0255796445999295e-05,-2.9776951123494655e-05,4.29211650043726e-05
2.672143091331236e-05,-4.3184169044252485e-05,3.772962372750044e-05,3.2720359740778804e-05,-3.0017852623132057e-05,4.254580562701449e-05
2.6527326554059982e-05,-4.7426161472685635e-05,3.6712383007397875e-05,3.6378267395775765e-05,-3.0201805202523246e-05,4.8614281695336103e-05
2.3307848096010275e-05,-5.191976379137486e-05,3.520109021337703e-05,4.379810707177967e-05,-2.9417606128845364e-05,5.486095687956549e-05
1.667662763793487e-05,-5.440765744424425e-05,3.2883486710488796e-05,5.036648508394137e-05,-2.6777004677569494e-05,5.372500527300872e-05
1.1571433788049035e-05,-5.307230821927078e-05,2.990689972648397e-05,5.158413841854781e-05,-2.5101280698436312e-05,4.9526497605256736e-05
1.1250609531998634e-05,-5.169443829800002e-05,2.8868767913081683e-05,4.8585934564471245e-05,-2.801723894663155e-05,4.958235513186082e-05
1.5149205864872783e-05,-5.3315176046453416e-05,2.967803447972983e-05,4.3570958951022476e-05,-3.7934525607852265e-05,5.640727249556221e-05
1.7818367268773727e-05,-5.3965970437275246e-05,3.0983846954768524e-05,3.6285211535869166e-05,-5.244391650194302e-05,6.512957770610228e-05
1.7840480722952634e-05,-5.25195719092153e-05,3.363177165738307e-05,2.780305476335343e-05,-6.186036625877023e-05,6.899514846736565e-05
1.7744850993040018e-05,-5.199599763727747e-05,3.549853136064485e-05,2.451678847137373e-05,-6.027119161444716e-05,6.702711834805086e-05
1.5963485566317104e-05,-5.449688251246698e-05,3.390304482309148e-05,3.1351009965874255e-05,-5.0027421821141616e-05,6.435269460780546e-05
1.4107646165939514e-05,-5.478111415868625e-05,3.2421656214864925e-05,4.131666719331406e-05,-3.752449629246257e-05,6.503824261017144e-05
1.3847603440808598e-05,-5.133859667694196e-05,3.1885243515716866e-05,4.558146611088887e-05,-2.761890209512785e-05,6.730925815645605e-05
1.4731980627402663e-05,-4.8778347263578326e-05,3.0341918318299577e-05,4.517834531725384e-05,-2.183658398280386e-05,6.209585990291089e-05
1.573599365656264e-05,-4.859727414441295e-05,2.6983570933225565e-05,4.63747201138176e-05,-1.618672104086727e-05,5.682064511347562e-05
1.3519807907869108e-05,-4.8161102313315496e-05,2.382884849794209e-05,4.403611092129722e-05,-8.49765638122335e-06,5.4683514463249594e-05
1.3003895219299011e-05,-4.871014607488178e-05,2.57726751442533e-05,3.936896246159449e-05,6.209457978911814e-07,5.213971235207282e-05
1.749550756358076e-05,-4.7360488679260015e-05,3.017137714778073e-05,4.252976577845402e-05,1.1060024007747415e-05,5.4467083828058094e-05
2.189607585023623e-05,-4.421245103003457e-05,3.241904414608143e-05,4.494927998166531e-05,1.5886100300122052e-05,5.8864025049842894e-05
2.4318622308783233e-05,-4.552516111289151e-05,3.127972377114929e-05,3.528526576701552e-05,1.5250046999426559e-05,6.051640593796037e-05
2.348878297198098e-05,-4.7507593990303576e-05,3.055841807508841e-05,1.971276469703298e-05,1.5089572116266936e-05,5.647867874358781e-05
2.0670298908953555e-05,-4.960677688359283e-05,3.038084105355665e-05,1.181653260573512e-05,1.8061882656184025e-05,5.575007890001871e-05
1.7998676412389614e-05,-5.005795901524834e-05,2.86538343061693e-05,1.3592821233032737e-05,2.030693030974362e-05,6.003137968946248e-05
1.8717191778705455e-05,-4.8518333642277867e-05,2.840474553522654e-05,1.9140557924401946e-05,1.696025356068276e-05,6.571794074261561e-05
2.1440619093482383e-05,-4.8262299969792366e-05,2.9922410249128006e-05,2.520573434594553e-05,8.248091944551561e-06,6.965647480683401e-05
2.27033015107736e-05,-4.901198553852737e-05,3.070924503845163e-05,3.092442057095468e-05,6.236859348973667e-07,7.008427201071754e-05
2.278688771184534e-05,-5.163656533113681e-05,3.19263017445337e-05,3.2348776585422456e-05,-1.8491169839762733e-06,6.882112211314961e-05
2.3199421775643714e-05,-5.367251651478e-05,3.275268682045862e-05,3.189824565197341e-05,-3.4371328183624428e-06,6.729825690854341e-05
2.2846645151730627e-05,-5.511665222002193e-05,3.0462655558949336e-05,3.249281508033164e-05,-8.942317435867153e-06,6.48874556645751e-05
2.2223408450372517e-05,-5.7323690271005034e-05,2.7769416192313656e-05,3.1965213565854356e-05,-1.5330124369938858e-05,6.231592124095187e-05
2.196324203396216e-05,-5.619696094072424e-05,2.710659828153439e-05,2.8379787181620486e-05,-1.8710014046519063e-05,6.171043060021475e-05
2.2707989046466537e-05,-4.8927991883829236e-05,2.6232051823171787e-05,2.4524604668840766e-05,-2.0522911654552445e-05,6.0900452808709815e-05
2.2218189769773744e-05,-4.144195554545149e-05,2.5810300940065645e-05,2.3415203031618148e-05,-2.279010550410021e-05,6.073671465856023e-05
1.8368005839874968e-05,-3.868673229590058e-05,2.783608579193242e-05,2.4430968551314436e-05,-2.5686784283607267e-05,6.244469113880768e-05
1.7065123756765388e-05,-4.010384509456344e-05,3.2082200050354004e-05,2.6635529138729908e-05,-2.7043161026085727e-05,6.546887016156688e-05
1.8483053281670436e-05,-4.249312405590899e-05,3.543470666045323e-05,2.7440251869847998e-05,-2.582183515187353e-05,6.86351559124887e-05
1.5870911738602445e-05,-4.3990010453853756e-05,3.469826333457604e-05,2.376469456066843e-05,-2.103957740473561e-05,7.385838398477063e-05
1.0795031812449452e-05,-4.157323928666301e-05,3.189165363437496e-05,1.4118030776444357e-05,-1.5388897736556828e-05,7.577619544463232e-05
1.163076376542449e-05,-3.749307506950572e-05,3.028075661859475e-05,-3.7412831943584024e-07,-9.889740795188118e-06,6.959986058063805e-05
1.7459882656112313e-05,-3.8152182241901755e-05,2.8933811336173676e-05,-1.3808199582854286e-05,-5.661978775606258e-06,6.0588739870581776e-05
1.931552469613962e-05,-4.215529406792484e-05,2.7110683731734753e-05,-1.9781729861279018e-05,-3.921682036889251e-06,5.7791225117398426e-05
1.804169369279407e-05,-4.522608651313931e-05,2.601035521365702e-05,-1.8889073544414714e-05,-5.3736052905151155e-06,6.331400072667748e-05
1.6192501789191738e-05,-4.539998190011829e-05,2.8298867619014345e-05,-1.638180219742935e-05,-1.0004593605117407e-05,6.65208135615103e-05
1.6808857253636234e-05,-4.303823516238481e-05,3.294378620921634e-05,-1.5394509318866767e-05,-1.2136112673033495e-05,6.166569801280275e-05
2.086343192786444e-05,-4.052871372550726e-05,3.5987886803923175e-05,-9.335392860521097e-06,-1.118031741498271e-05,5.97241087234579e-05
2.3171032808022574e-05,-4.2798965296242386e-05,3.7867790524614975e-05,-2.1231560367596103e-06,-1.208734556712443e-05,6.193044828251004e-05
2.1889216441195458e-05,-4.716496550827287e-05,3.663063034764491e-05,6.741380730090896e-06,-1.182060623250436e-05,6.378907710313797e-05
1.5212600374070462e-05,-4.877974424744025e-05,3.547022060956806e-05,2.369687172176782e-05,-1.0517505870666355e-05,6.018470958224498e-05
1.1690263818309177e-05,-4.835252184420824e-05,3.480962186586112e-05,4.665246160584502e-05,-1.1610237379500177e-05,5.0354206905467436e-05
1.4070731594983954e-05,-4.623260610969737e-05,3.536765871103853e-05,6.722808757331222e-05,-1.3397944712778553e-05,4.391012407722883e-05
1.761513158271555e-05,-4.664790321839973e-05,3.7264304410200566e-05,7.077332702465355e-05,-1.3162078175810166e-05,4.6703989937668666e-05
1.783926200005226e-05,-5.148150376044214e-05,3.7135676393518224e-05,6.155505252536386e-05,-1.1525035915838089e-05,5.172978126211092e-05
1.7083299098885618e-05,-5.429489829111844e-05,3.4593344025779516e-05,5.5913547839736566e-05,-1.1498680578370113e-05,5.581807272392325e-05
1.764888111210894e-05,-5.2124683861620724e-05,3.50227091985289e-05,6.633055454585701e-05,-1.6145208064699546e-05,5.915032306802459e-05
1.877483373391442e-05,-4.79228219774086e-05,3.931574246962555e-05,8.892856567399576e-05,-2.4443259462714195e-05,5.8761437685461715e-05
1.931264705490321e-05,-4.714610622613691e-05,3.9103128074202687e-05,0.00010325288167223334,-2.801383197947871e-05,5.959882400929928e-05
1.9839855667669326e-05,-5.1337181503186e-05,3.3944703318411484e-05,9.786759619601071e-05,-2.606806629046332e-05,5.924499055254273e-05
2.0773230062332004e-05,-5.350446735974401e-05,2.911498631874565e-05,7.698501576669514e-05,-2.2700063709635288e-05,5.603705358225852e-05
2.119801501976326e-05,-4.949132926412858e-05,2.8612472306122072e-05,5.3658473916584626e-05,-1.8881870346376672e-05,5.5099088058341295e-05
2.2928337784833275e-05,-4.468555925996043e-05,3.0297198463813402e-05,3.793544601649046e-05,-1.3355292139749508e-05,6.122906052041799e-05
2.644484084157739e-05,-4.397299562697299e-05,3.0711536965100095e-05,3.238243152736686e-05,-8.42639656184474e-06,6.838767876615748e-05
2.8941260097781196e-05,-4.3677962821675465e-05,2.817992390191648e-05,3.375435699126683e-05,-6.4244045461236965e-06,7.098684000084177e-05
2.8055304937879555e-05,-3.985510193160735e-05,2.6292525944882073e-05,3.63945982826408e-05,-6.257620043470524e-06,7.087158155627549e-05
2.5515289962640963e-05,-3.8679387216689065e-05,2.508447323634755e-05,3.743789056898095e-05,-5.858055828866782e-06,6.939746526768431e-05
2.3910461095510982e-05,-4.31521657446865e-05,2.2984606403042562e-05,3.26022673107218e-05,-4.270371391612571e-06,6.586698873434216e-05
2.5169205400743522e-05,-4.772976171807386e-05,2.3163836885942146e-05,1.8902259398601018e-05,-1.2479607676141313e-06,6.580449553439394e-05
2.5150928195216693e-05,-5.0353657570667565e-05,2.6559579055174254e-05,6.626095000683563e-06,3.5680241126101464e-06,6.606732495129108e-05
2.4727569325477816e-05,-5.384236283134669e-05,2.9966726287966594e-05,4.437323241290869e-06,5.916852842346998e-06,6.251156446523964e-05
2.2755650206818245e-05,-5.733538273489103e-05,3.322898191981949e-05,7.415274922095705e-06,3.970771558670094e-06,6.082194886403158e-05
2.2267493477556854e-05,-5.919310206081718e-05,3.587192259146832e-05,1.4589856618840713e-05,3.740225565707078e-06,6.156844756333157e-05
2.046877307293471e-05,-5.7114324590656906e-05,3.789516995311715e-05,1.8649123376235366e-05,4.8265469558828045e-06,5.5857108236523345e-05
1.7485337593825534e-05,-5.139023414812982e-05,3.983058923040517e-05,1.3951656001154333e-05,2.708454076127964e-06,4.782341784448363e-05
1.6321137081831694e-05,-4.820631875190884e-05,3.9670776459388435e-05,1.1470650861156173e-05,4.28954024300765e-07,4.895684105576947e-05
1.5021394574432634e-05,-4.535680272965692e-05,3.592929715523496e-05,1.596090260136407e-05,-8.361371328646783e-07,5.020168100600131e-05
1.573444387759082e-05,-4.494709719438106e-05,3.089778692810796e-05,2.040223807853181e-05,-2.8793610908905976e-06,4.8689009418012574e-05
1.7712874978315085e-05,-4.797723886440508e-05,2.9198827178333886e-05,2.2231142793316394e-05,-7.457702395186061e-06,4.831357364309952e-05
1.8403201465844177e-05,-5.013107511331327e-05,2.8606560590560548e-05,2.188897087762598e-05,-1.3713664884562604e-05,5.1163053285563365e-05
1.674027407716494e-05,-5.1953433285234496e-05,2.936125747510232e-05,2.056155790342018e-05,-1.9765244360314682e-05,5.366692130337469e-05
1.6388199583161622e-05,-5.350785795599222e-05,3.10745817841962e-05,1.9058359612245113e-05,-2.6295230782125145e-05,5.2280905947554857e-05
1.6371395759051666e-05,-5.352598964236677e-05,3.263509279349819e-05,1.870662163128145e-05,-3.786878733080812e-05,4.768379221786745e-05
1.9762530428124592e-05,-5.520456761587411e-05,3.019195719389245e-05,2.4064062017714605e-05,-4.995643757865764e-05,4.340272425906733e-05
2.3154920199885964e-05,-5.910442632739432e-05,2.5172332243528217e-05,3.055684646824375e-05,-5.372594387154095e-05,4.322092354414053e-05
2.3803628209861927e-05,-5.9493500884855166e-05,2.353509444219526e-05,3.478307553450577e-05,-4.9160422349814326e-05,5.183217581361532e-05
2.2769465431338176e-05,-5.691489786840975e-05,2.4871656933100894e-05,3.5823231883114204e-05,-4.2453830246813595e-05,6.172838766360655e-05
2.1144020138308406e-05,-5.4647312936140224e-05,2.7940845029661432e-05,3.4881013561971486e-05,-3.7562484067166224e-05,6.123969069449231e-05
2.1397789168986492e-05,-5.409357254393399e-05,2.9284639822435565e-05,3.4151387808378786e-05,-3.0889503250364214e-05,5.7124907471006736e-05
2.2305810489342548e-05,-5.464718196890317e-05,2.633924850670155e-05,3.419967106310651e-05,-2.119575219694525e-05,5.828987559652887e-05
2.2991851437836885e-05,-5.5713393521727994e-05,2.268157186335884e-05,3.509179805405438e-05,-1.2178157703601755e-05,6.218034104676917e-05
2.1590527467196807e-05,-5.491013507707976e-05,2.4257398763438687e-05,3.529071182128973e-05,-4.2667993511713576e-06,6.266223499551415e-05
2.0924588170601055e-05,-5.468646122608334e-05,2.9828177503077313e-05,3.371806087670848e-05,4.3344934965716675e-06,6.292334728641436e-05
2.2524491214426234e-05,-5.680531103280373e-05,3.4024411434074864e-05,2.9674311008420773e-05,1.366109154332662e-05,6.596028833882883e-05
2.355378273932729e-05,-5.62915884074755e-05,3.251022280892357e-05,2.5225763238267973e-05,2.1377400116762146e-05,6.755324284313247e-05
2.340590799576603e-05,-5.266938387649134e-05,3.029033905477263e-05,1.9110328139504418e-05,2.107749241986312e-05,6.386715540429577e-05
2.2829201043350622e-05,-5.0869766710093245e-05,3.115639992756769e-05,1.568045081512537e-05,1.7460222807130776e-05,5.93656295677647e-05
1.908190461108461e-05,-5.229031012277119e-05,3.131704215775244e-05,2.3554966901428998e-05,1.379926015943056e-05,5.716516898246482e-05
1.6377196516259573e-05,-5.430270539363846e-05,3.176123209414072e-05,3.1872084946371615e-05,8.121815881168004e-06,6.073293479857966e-05
2.1388112145359628e-05,-5.474397403304465e-05,3.113969069090672e-05,3.1334824598161504e-05,5.3674052651331294e-06,6.173679867060855e-05
2.7233510991209187e-05,-5.441622852231376e-05,3.039322473341599e-05,2.835576560755726e-05,8.9696841314435e-06,5.918055830989033e-05
2.1733634639531374e-05,-5.410621815826744e-05,3.0156603315845132e-05,2.570965443737805e-05,1.3944460079073906e-05,5.70102347410284e-05
1.0400344763183966e-05,-5.427287396742031e-05,2.7653622964862734e-05,2.8576539989444427e-05,1.3745516298513394e-05,5.398906796472147e-05
5.779923412774224e-06,-5.542224971577525e-05,2.7333322577760555e-05,3.358922549523413e-05,8.618150786787737e-06,5.429753218777478e-05
1.08488184196176e-05,-5.5548287491546944e-05,3.115754952887073e-05,3.467211718088947e-05,3.441486455812992e-07,5.479481478687376e-05
1.80422739504138e-05,-5.3982545068720356e-05,3.3493288356112316e-05,3.2267180358758196e-05,-8.60792806633981e-06,5.428294025477953e-05
2.0251243768143468e-05,-5.0536164053482935e-05,3.363437645020895e-05,3.0429644539253786e-05,-1.4694468518428039e-05,5.2441348088905215e-05
1.988794610952027e-05,-4.723036181530915e-05,3.525115971569903e-05,2.8472320991568267e-05,-1.4296429071691819e-05,5.293987487675622e-05
1.8841434211935848e-05,-4.691722278948873e-05,3.7628429709002376e-05,2.2398045985028148e-05,-1.123157562687993e-05,5.410830635810271e-05
1.95573393284576e-05,-4.6997251047287136e-05,3.813934381469153e-05,1.4333159015222918e-05,-9.1855499704252e-06,5.497785605257377e-05
2.2221653125598095e-05,-4.6279797970782965e-05,3.476741767372005e-05,5.858384611201473e-06,-6.972129540372407e-06,5.533627336262725e-05
2.4800341634545475e-05,-4.761602031067014e-05,3.2100811949931085e-05,2.301449740116368e-06,-6.360577572195325e-06,5.4824427934363484e-05
2.5554303647368215e-05,-5.081989729660563e-05,3.169866613461636e-05,1.018134116748115e-05,-9.122371920966543e-06,5.3217368986224756e-05
2.4624248908367008e-05,-5.104450974613428e-05,3.1052368285600096e-05,2.6771396733238362e-05,-1.187262296298286e-05,5.370793951442465e-05
2.487803612893913e-05,-4.669731424655765e-05,2.852592479030136e-05,4.078933852724731e-05,-1.119870830734726e-05,5.4744319641031325e-05
2.912053241743706e-05,-4.24554236815311e-05,2.5053233912331052e-05,4.3507952796062455e-05,-1.0025023584603332e-05,5.4784748499514535e-05
3.510693204589188e-05,-4.191561311017722e-05,2.324386514374055e-05,3.7832476664334536e-05,-1.1822389751614537e-05,5.6389617384411395e-05
3.713594560394995e-05,-4.569196971715428e-05,2.4843535356922075e-05,3.473347896942869e-05,-1.438050912838662e-05,5.8919136790791526e-05
3.617037509684451e-05,-4.851427365792915e-05,2.776716064545326e-05,3.5408695111982524e-05,-1.1292437193333171e-05,5.879389573237859e-05
3.662628660094924e-05,-4.691156937042251e-05,2.78631105175009e-05,3.610991552704945e-05,-4.8361198423663154e-06,5.6143901019822806e-05
3.7181547668296844e-05,-4.476512549445033e-05,2.7560074158827774e-05,3.6812991311307997e-05,-3.7352554045355646e-06,5.612598033621907e-05
3.644978642114438e-05,-4.464334779186174e-05,2.806629527185578e-05,3.634576569311321e-05,-8.987538421934005e-06,5.570038047153503e-05
3.566345912986435e-05,-4.293262099963613e-05,2.9432940209517255e-05,3.4491404221626e-05,-1.3130202205502428e-05,5.847562715644017e-05
3.535805444698781e-05,-3.897403075825423e-05,3.1571507861372083e-05,3.28725109284278e-05,-1.3734984349866863e-05,6.201500218594447e-05
3.3855463698273525e-05,-3.8939011574257165e-05,3.0659612093586475e-05,3.183939043083228e-05,-1.3999240763951093e-05,6.15504541201517e-05
2.9584994990727864e-05,-3.9562073652632535e-05,2.7332316676620394e-05,3.0377897928701714e-05,-1.668354707362596e-05,5.726446397602558e-05
2.3998809410841204e-05,-3.9900391129776835e-05,2.7360280000721104e-05,2.5764114980120212e-05,-1.748915747157298e-05,5.6292483350262046e-05
2.224762283731252e-05,-4.253731822245754e-05,2.9879194698878564e-05,2.41283378272783e-05,-1.5154989341681357e-05,6.262329407036304e-05
2.5919962354237214e-05,-4.31708394899033e-05,3.172843571519479e-05,3.0693612643517554e-05,-1.4599037058360409e-05,6.86985586071387e-05
2.903786844399292e-05,-4.438039104570635e-05,3.241668673581444e-05,3.5945278796134517e-05,-1.4354089216794819e-05,7.072769949445501e-05
2.8895690775243565e-05,-4.6204731916077435e-05,3.0655333830509335e-05,3.07467817037832e-05,-1.302651799051091e-05,6.907148053869605e-05
2.7447524189483374e-05,-4.7679764975328e-05,3.031622509297449e-05,1.8490358343115076e-05,-1.127807809098158e-05,6.621362990699708e-05
2.8329337510513142e-05,-4.9831094656838104e-05,3.407812982914038e-05,1.0673819815565366e-05,-1.1589347195695154e-05,6.35985707049258e-05
2.896646037697792e-05,-5.294332731864415e-05,3.826447937171906e-05,9.46202635532245e-06,-1.43020624818746e-05,6.223822128959e-05
2.7771571694756858e-05,-5.595005859504454e-05,4.056208854308352e-05,1.2413996046234388e-05,-1.921256261994131e-05,6.459185533458367e-05
2.7773354304372333e-05,-5.616152338916436e-05,3.856870534946211e-05,1.6165857232408598e-05,-2.1034989913459867e-05,6.66340347379446e-05
2.9485490813385695e-05,-5.2953128033550456e-05,3.7252695619827136e-05,1.6532127119717188e-05,-1.837423405959271e-05,6.763481360394508e-05
3.0251960197347216e-05,-5.0303522584727034e-05,3.694212864502333e-05,9.974899512599222e-06,-1.5071175766934175e-05,7.079142960719764e-05
2.7593299819272943e-05,-4.875323429587297e-05,3.543707498465665e-05,-2.481737055859412e-06,-1.484507811255753e-05,7.314862159546465e-05
2.341930303373374e-05,-4.658675243263133e-05,3.516810465953313e-05,-1.2347609299467877e-05,-1.7204625692102127e-05,7.115030894055963e-05
2.0867342755082063e-05,-4.482255462789908e-05,3.730881508090533e-05,-1.4005623597768135e-05,-1.812324990169145e-05,6.319289968814701e-05
2.024005152634345e-05,-4.368677400634624e-05,3.831693538813852e-05,-5.847370630363002e-06,-1.722696288197767e-05,5.380611037253402e-05
2.0157045582891442e-05,-4.441115015652031e-05,3.611433203332126e-05,6.76135368848918e-06,-1.5970694221323356e-05,4.911775977234356e-05
2.0779007172677666e-05,-4.786846329807304e-05,3.327182639623061e-05,1.3475104424287565e-05,-1.6029829566832632e-05,4.9748658057069406e-05
1.9980034267064184e-05,-5.1497867389116436e-05,3.1463478080695495e-05,1.1622210877249017e-05,-1.6476189557579346e-05,5.539181438507512e-05
1.776704993972089e-05,-5.138131746207364e-05,3.2349355024052784e-05,9.70844575931551e-06,-1.759432052494958e-05,6.122526247054338e-05
1.666732168814633e-05,-5.111108112032525e-05,3.549418761394918e-05,1.107023490476422e-05,-2.0685050913016312e-05,6.0718273743987083e-05
1.5191006241366267e-05,-5.214463089942001e-05,3.583150100894272e-05,1.1786626600951422e-05,-2.4985325580928475e-05,5.793898526462726e-05
1.3020991900702938e-05,-5.3903277148492634e-05,3.144115908071399e-05,1.790470014384482e-05,-2.727112587308511e-05,5.8956426073564216e-05
1.2622404938156251e-05,-5.451585820992477e-05,2.9382532375166193e-05,3.857685442198999e-05,-3.2171239581657574e-05,5.7659432059153914e-05
1.3789904187433422e-05,-5.4242769692791626e-05,3.0653620342491195e-05,6.79492877679877e-05,-4.279400309314951e-05,4.975916453986429e-05
1.5768338926136494e-05,-5.393926767283119e-05,3.3140735467895865e-05,9.775810030987486e-05,-5.578286072704941e-05,4.4019408960593864e-05
1.703764974081423e-05,-5.071457781014033e-05,3.455929254414514e-05,0.00011602784070419148,-6.940068124094978e-05,4.2691477574408054e-05
1.8048463971354067e-05,-5.004413105780259e-05,3.287139770691283e-05,0.00011113892833236605,-8.061700646067038e-05,3.6268174881115556e-05
1.7646380001679063e-05,-5.117305045132525e-05,3.036430098291021e-05,9.036743722390383e-05,-8.121822611428797e-05,2.7748279535444453e-05
1.6784490071586333e-05,-4.981461097486317e-05,3.096709770034067e-05,7.013990398263559e-05,-6.5684384026099e-05,2.7539686925592832e-05
1.505031468695961e-05,-5.1709997933357954e-05,3.340310649946332e-05,5.597265771939419e-05,-4.0345988963963464e-05,3.2942418329184875e-05
1.2214398338983301e-05,-5.459045132738538e-05,3.648112033260986e-05,4.489974890020676e-05,-1.2635576240427326e-05,4.246223397785798e-05
1.2216816685395315e-05,-5.622316166409291e-05,3.556131196091883e-05,3.643862874014303e-05,1.8885888493969105e-05,4.765417907037772e-05
1.4704331988468766e-05,-5.75270714762155e-05,3.066378485527821e-05,3.124102295259945e-05,5.024564597988501e-05,4.685444218921475e-05
1.935015643539373e-05,-5.727431926061399e-05,2.5321636712760665e-05,2.9799308322253637e-05,7.002649363130331e-05,5.0833688874263316e-05
2.190057057305239e-05,-5.585398685070686e-05,2.2284684746409766e-05,3.172237484250218e-05,7.580282544950023e-05,5.8930396335199475e-05
1.920600152516272e-05,-5.190699812374078e-05,2.17616052395897e-05,3.419024869799614e-05,7.404036296065897e-05,6.43743114778772e-05
1.665646595938597e-05,-4.7404220822500065e-05,1.9886874724761583e-05,3.392683720448986e-05,7.261950668180361e-05,6.647311965934932e-05
1.8048980564344674e-05,-4.531074227998033e-05,2.12688792089466e-05,3.2777537853689864e-05,6.98474541422911e-05,6.792003114242107e-05
2.169013168895617e-05,-4.673243165598251e-05,2.697869967960287e-05,2.8637661671382375e-05,6.109081004979089e-05,6.982938066357747e-05
2.5835754058789462e-05,-4.9438873247709125e-05,3.303995617898181e-05,2.1026426111347973e-05,4.930290378979407e-05,7.503348751924932e-05
2.7545074772206135e-05,-5.019420859753154e-05,3.3272906875936314e-05,1.4029722478881013e-05,3.757648664759472e-05,7.548109715571627e-05
2.4937724447227083e-05,-4.978559445589781e-05,2.7839947506436147e-05,1.1557290235941764e-05,2.71356911980547e-05,6.771375774405897e-05
2.0218920326442458e-05,-4.8764351959107444e-05,2.31615049415268e-05,1.2321251233515795e-05,1.6818235963000916e-05,6.368460890371352e-05
1.897657784866169e-05,-4.7512134187854826e-05,2.5282224669354036e-05,1.2732022696582135e-05,8.028315278352238e-06,6.848611519671977e-05
2.1174158973735757e-05,-4.688798435381614e-05,3.1852945539867505e-05,1.0702837244025432e-05,1.2739052408505813e-06,7.338796422118321e-05
