3.0338527722051367e-05,-5.335965761332773e-05,4.069969872944057e-05,4.808564699487761e-05,-9.379082257510163e-06,6.031654993421398e-05
3.045315679628402e-05,-5.310800770530477e-05,3.889004437951371e-05,7.869372348068282e-05,-4.92809613206191e-06,5.865307684871368e-05
2.869097988877911e-05,-5.2735296776518226e-05,3.790847404161468e-05,8.875007915776223e-05,-3.324230419821106e-07,5.122886068420485e-05
2.7758858777815476e-05,-4.988943328498863e-05,3.6979963624617085e-05,7.890353299444541e-05,3.618021537477034e-06,4.810935570276342e-05
2.5730079869390465e-05,-4.6236440539360046e-05,3.372385981492698e-05,6.357278471114114e-05,5.533894636755576e-06,5.1263526984257624e-05
2.7627203962765634e-05,-4.470918429433368e-05,3.156558159389533e-05,5.155140024726279e-05,6.357389793265611e-06,5.99672639509663e-05
3.348653262946755e-05,-4.311590237193741e-05,3.101615948253311e-05,5.368977872421965e-05,1.062774481397355e-05,6.90074812155217e-05
3.512815965223126e-05,-4.173334309598431e-05,3.0204240829334594e-05,7.07220533513464e-05,1.4809998901910149e-05,7.45043798815459e-05
3.2792937417980283e-05,-4.2483829020056874e-05,2.9256532798171975e-05,8.364281529793516e-05,1.3110795407555997e-05,7.48547026887536e-05
2.9390361305559054e-05,-4.569519296637736e-05,2.864319867512677e-05,8.0092329881154e-05,7.619790267199278e-06,6.974980351515114e-05
2.5978199118981138e-05,-4.704012462752871e-05,2.891788972192444e-05,6.12301446381025e-05,1.5184525636868784e-06,6.386041786754504e-05
2.3982995116966777e-05,-4.436717426870018e-05,3.158220351906493e-05,3.8391015550587326e-05,-2.616589199533337e-06,6.292095349635929e-05
2.2694803192280233e-05,-4.151903704041615e-05,3.6210807593306527e-05,2.211704668297898e-05,-4.135719336773036e-06,6.396979006240144e-05
2.1524549083551392e-05,-4.118292054045014e-05,3.886037666234188e-05,1.7587055481271818e-05,-6.072054929973092e-06,6.639611819991842e-05
2.211551327491179e-05,-4.1021750803338364e-05,3.8481146475533023e-05,2.006978502322454e-05,-8.507244274369441e-06,6.594309525098652e-05
2.4103490432025865e-05,-3.8471964217023924e-05,3.64995576092042e-05,2.2465805159299634e-05,-1.0376677892054431e-05,6.254467007238418e-05
2.609639341244474e-05,-3.865590042551048e-05,3.482958709355444e-05,2.06507775146747e-05,-1.25398901218432e-05,6.155829032650217e-05
2.8102807846153155e-05,-4.329931107349694e-05,3.369911064510234e-05,1.536468516860623e-05,-1.4260137504606973e-05,6.303502595983446e-05
2.869848503905814e-05,-4.647820969694294e-05,3.3067120966734365e-05,1.1225385605939664e-05,-1.3565510016633198e-05,6.251735612750053e-05
2.8306558306212537e-05,-4.68483631266281e-05,3.3005602745106444e-05,1.3156346540199593e-05,-1.551967579871416e-05,6.26894470769912e-05
2.8267135348869488e-05,-4.848241223953664e-05,3.337068483233452e-05,2.0248211512807757e-05,-2.3251879611052573e-05,7.007958629401401e-05
2.713230969675351e-05,-5.140668508829549e-05,2.9714668926317245e-05,2.314443736395333e-05,-2.8880229365313426e-05,7.812597323209047e-05
2.4704970201128162e-05,-5.302427234710194e-05,2.2940812414162792e-05,1.9774694010266103e-05,-2.7605206923908554e-05,7.465376984328032e-05
2.3086317014531232e-05,-5.22734371770639e-05,2.221792601631023e-05,1.76460398506606e-05,-2.333846532565076e-05,6.56846968922764e-05
2.2121574147604406e-05,-5.183741086511873e-05,3.073405605391599e-05,1.734428406052757e-05,-2.2006217477610335e-05,6.295736966421828e-05
2.1128871594555676e-05,-5.2337421948323026e-05,3.853312227874994e-05,1.8026203179033473e-05,-2.2024183635949157e-05,6.919937004568055e-05
1.9917419194825925e-05,-5.3950010624248534e-05,3.960724643548019e-05,2.0087962184334174e-05,-1.8531176465330645e-05,7.160174573073164e-05
1.8564212950877845e-05,-5.528465044335462e-05,3.7028461520094424e-05,2.104793929902371e-05,-1.1750214071071241e-05,6.387063331203535e-05
1.9206092474632896e-05,-5.492111449711956e-05,3.4013126423815265e-05,2.344777385587804e-05,-6.917112386872759e-06,5.837418939336203e-05
1.886015343188774e-05,-5.29837234353181e-05,3.3905074815265834e-05,2.5924442525138147e-05,-4.3009727050957736e-06,5.370110011426732e-05
2.0245292034815066e-05,-5.413947656052187e-05,3.3403252018615603e-05,2.291631608386524e-05,-4.683784027292859e-06,4.8983347369357944e-05
2.3569946279167198e-05,-5.890807369723916e-05,3.266818021074869e-05,1.6969517673715018e-05,-9.915008376992773e-06,4.260628702468239e-05
2.531260543037206e-05,-6.287149153649807e-05,3.2812593417475e-05,1.5885747416177765e-05,-1.3579665392171592e-05,4.0811471990309656e-05
2.80426065728534e-05,-6.187357939779758e-05,3.312645640107803e-05,1.825678555178456e-05,-1.3413919987215195e-05,4.566475035971962e-05
2.8023398044751957e-05,-5.558842167374678e-05,3.19815480906982e-05,2.048788701358717e-05,-1.2583949683175888e-05,5.0812301196856424e-05
2.384262734267395e-05,-5.125222378410399e-05,3.0278901249403134e-05,1.9375353076611646e-05,-1.5108993466128595e-05,5.6976139603648335e-05
1.626236189622432e-05,-5.114353189128451e-05,2.9169057597755454e-05,1.738298306008801e-05,-1.7856516933534294e-05,6.0084588767495006e-05
9.794542165764142e-06,-5.299331314745359e-05,2.699138167372439e-05,1.8314602129976265e-05,-1.862529643403832e-05,5.605075057246722e-05
7.982547685969621e-06,-5.407332719187252e-05,2.467751437507104e-05,1.8410986740491353e-05,-1.982628418772947e-05,4.8288897232851014e-05
1.1537268619576935e-05,-5.434989361674525e-05,2.2331269065034576e-05,1.8766357243293896e-05,-2.4519022190361284e-05,4.245142554282211e-05
1.4370744793268386e-05,-5.562339356401935e-05,2.1183386706979945e-05,2.1437179384520277e-05,-3.2244301110040396e-05,4.1085368138737977e-05
1.3801601198792923e-05,-5.6302080338355154e-05,2.0012872482766397e-05,2.514196421543602e-05,-3.8833022699691355e-05,4.542885653791018e-05
1.2734545634884853e-05,-5.511355266207829e-05,1.8532560716266744e-05,2.7987878638668917e-05,-3.9530474168714136e-05,4.972622264176607e-05
1.394093760609394e-05,-5.4540698329219595e-05,1.9339047867106274e-05,2.8293918148847297e-05,-3.3052660000976175e-05,4.8780810175230727e-05
1.662535942159593e-05,-5.5635286116739735e-05,2.2487085516331717e-05,2.8307593311183155e-05,-2.3619832063559443e-05,4.299437568988651e-05
1.9667157175717875e-05,-5.6322842283407226e-05,2.688378117454704e-05,3.149840995320119e-05,-1.5921990780043416e-05,3.89347187592648e-05
2.3884367692517117e-05,-5.554870222113095e-05,3.1488194508710876e-05,3.494813427096233e-05,-1.0356303391745314e-05,4.284453461878002e-05
2.7142003091285005e-05,-5.418411092250608e-05,3.34007381752599e-05,3.6565426853485405e-05,-1.3771402791462606e-06,5.46702322026249e-05
2.999685784743633e-05,-5.418399814516306e-05,3.151778582832776e-05,3.824207669822499e-05,1.0457178177603055e-05,6.569342804141343e-05
3.1368970667244866e-05,-5.505860099219717e-05,2.9011527658440173e-05,3.9522408769698814e-05,2.138998024747707e-05,6.774899520678446e-05
3.253426984883845e-05,-5.306823368300684e-05,2.9351129342103377e-05,3.8257781852735206e-05,2.743529694271274e-05,5.939097536611371e-05
3.492098767310381e-05,-4.940726648783311e-05,3.1135718018049374e-05,3.853990710922517e-05,2.603908251330722e-05,5.0730752263916656e-05
3.471734089544043e-05,-4.7372384869959205e-05,3.155031299684197e-05,4.375951539259404e-05,2.105374187522102e-05,5.111302380100824e-05
3.195686076651327e-05,-4.761108721140772e-05,3.062723044422455e-05,4.728490239358507e-05,1.967417665582616e-05,5.31310033693444e-05
3.126469164271839e-05,-4.743253521155566e-05,2.8181828383821994e-05,4.249052653904073e-05,2.1064523025415838e-05,5.18189299327787e-05
3.117932647000998e-05,-4.614268982550129e-05,3.0084098398219794e-05,3.398611443117261e-05,2.3435142793459818e-05,5.076066736364737e-05
3.364873555256054e-05,-4.617745435098186e-05,3.64966326742433e-05,3.1831430533202365e-05,2.1413987269625068e-05,5.6786666391417384e-05
3.6562287277774885e-05,-4.9234040488954633e-05,3.949596793972887e-05,3.204730819561519e-05,1.2278247595531866e-05,7.019089389359578e-05
3.4985951060662046e-05,-5.3214578656479716e-05,3.6112625821260735e-05,2.759613016678486e-05,1.8504479157854803e-06,7.547486166004092e-05
3.0961968150222674e-05,-5.439560845843516e-05,3.220435610273853e-05,2.1385822037700564e-05,-1.123764377553016e-05,7.237514364533126e-05
2.8194654078106396e-05,-5.140923894941807e-05,3.388915865798481e-05,1.4271501640905626e-05,-2.73542755167e-05,6.904941983520985e-05
2.4714960090932436e-05,-4.7249046474462375e-05,3.522384213283658e-05,7.990812264324632e-06,-4.333760807639919e-05,6.863834278192371e-05
2.0948695237166248e-05,-4.595919017447159e-05,3.581524288165383e-05,3.1494510039919987e-06,-5.5126245570136234e-05,6.573492282768711e-05
1.714352583803702e-05,-4.6399683924391866e-05,3.956414002459496e-05,-5.728547421313124e-06,-6.306712748482823e-05,5.497493111761287e-05
1.240357323695207e-05,-4.59400616819039e-05,4.339176302892156e-05,-1.1512867786223069e-05,-6.556841981364414e-05,4.7492223529843614e-05
1.0097655831486918e-05,-4.528626232058741e-05,4.115477713639848e-05,-4.631620413420023e-06,-5.6628014135640115e-05,4.691582944360562e-05
8.424332918366417e-06,-4.566571078612469e-05,3.747796654351987e-05,9.604646038496867e-06,-3.6967856431147084e-05,5.198838698561303e-05
7.216666290332796e-06,-4.6864195610396564e-05,3.612446380429901e-05,2.2672858904115856e-05,-1.0998540346918162e-05,5.800848521175794e-05
9.164596121991053e-06,-4.9114638386527076e-05,3.3537908166181296e-05,3.189040580764413e-05,1.5072842870722525e-05,6.198843038873747e-05
1.3226976989244577e-05,-4.93700681545306e-05,2.741331627476029e-05,3.716679202625528e-05,3.705061681102961e-05,6.430000939872116e-05
1.560354940011166e-05,-4.698976408690214e-05,2.2089834601501934e-05,3.90919522033073e-05,5.349126149667427e-05,6.949734961381182e-05
1.4440571248997003e-05,-4.7421395720448345e-05,2.221780232503079e-05,3.8804791984148324e-05,6.126700463937595e-05,7.61750343372114e-05
1.2280791452212725e-05,-5.023689300287515e-05,2.4813069103402086e-05,3.6410914617590606e-05,5.77733080717735e-05,7.852439739508554e-05
1.2657113984460011e-05,-4.9628473789198324e-05,2.616519486764446e-05,3.1434094125870615e-05,4.8830686864675954e-05,7.638728857273236e-05
1.346578119409969e-05,-4.901709689875133e-05,2.5506544261588715e-05,2.9010267098783515e-05,3.901854870491661e-05,7.572146569145843e-05
1.2523929399321787e-05,-5.0947197451023385e-05,2.4398752429988235e-05,3.150274642393924e-05,2.7469162887427956e-05,7.561154779978096e-05
1.286306360270828e-05,-5.206747664487921e-05,2.3037948267301545e-05,3.203155210940167e-05,1.5282572348951362e-05,7.2202950832434e-05
1.6343657989636995e-05,-5.093072832096368e-05,2.3087723093340173e-05,2.6205052563454956e-05,1.7424124507670058e-06,7.085622200975195e-05
2.1914442186243832e-05,-4.875317245023325e-05,2.6594176233629696e-05,2.0894263798254542e-05,-7.99245299276663e-06,6.892753299325705e-05
2.4760185624472797e-05,-4.856520899920724e-05,3.259284494561143e-05,2.5037372324732132e-05,-1.268063897441607e-05,6.423561717383564e-05
2.616288657009136e-05,-4.814944259123877e-05,3.690469020511955e-05,3.0916922696633264e-05,-1.749145121721085e-05,6.026860137353651e-05
2.9404469387372956e-05,-5.075185254099779e-05,3.526783621055074e-05,2.8026792278978974e-05,-2.0353410945972428e-05,5.8220946812070906e-05
3.215148171875626e-05,-5.574979877565056e-05,3.123169153695926e-05,2.0961691916454583e-05,-2.0299192328820936e-05,5.435259663499892e-05
3.279560405644588e-05,-5.668972517014481e-05,3.424644819460809e-05,1.6577483620494604e-05,-1.9231472833780572e-05,5.040906762587838e-05
2.752322325250134e-05,-5.467486698762514e-05,3.572861533029936e-05,1.6734911696403287e-05,-2.1159814423299395e-05,4.944182364852168e-05
2.3543514544144273e-05,-5.259284080239013e-05,3.268761793151498e-05,2.2757240003556944e-05,-2.576120459707454e-05,4.885885937255807e-05
2.4691700673429295e-05,-5.1015485951211303e-05,2.9895774787291884e-05,2.8613283575396053e-05,-2.6804153094417416e-05,4.9316524382447824e-05
2.3653135940548964e-05,-4.816209911950864e-05,2.9997618185007013e-05,3.3343570976285264e-05,-2.411596324236598e-05,5.2046678320039064e-05
2.030988980550319e-05,-4.516127592069097e-05,3.1365918403025717e-05,3.63826984539628e-05,-2.5639059458626434e-05,5.505412264028564e-05
1.867903301899787e-05,-4.343998443800956e-05,3.084482523263432e-05,3.729855961864814e-05,-2.949817462649662e-05,5.8768793678609654e-05
1.924755451909732e-05,-4.108043867745437e-05,3.136512896162458e-05,3.916609057341702e-05,-2.8918375392095186e-05,5.99709055677522e-05
2.1820371330250055e-05,-3.764553548535332e-05,3.477994687273167e-05,4.108267603442073e-05,-2.6051186068798415e-05,5.8203462685924023e-05
2.3909020455903374e-05,-3.76905154553242e-05,3.841958459815942e-05,4.056205943925306e-05,-2.3406188120134175e-05,5.814230826217681e-05
2.2523547158925794e-05,-4.113270915695466e-05,3.8868030969752e-05,3.8034824683563784e-05,-2.2212234398466535e-05,5.856237839907408e-05
1.9803561372100376e-05,-4.608918243320659e-05,3.793634823523462e-05,3.4733031498035416e-05,-2.0890516680083238e-05,5.917231101193465e-05
1.7894310076371767e-05,-4.8363348469138145e-05,3.604221637942828e-05,3.2395273592555895e-05,-1.7775289961718954e-05,6.076049248804338e-05
1.6901658455026336e-05,-4.7522957174805924e-05,3.384272349649109e-05,3.153489888063632e-05,-1.3411394320428371e-05,6.048096838640049e-05
1.666831667535007e-05,-4.715319664683193e-05,3.143505091429688e-05,3.309060411993414e-05,-1.136659921030514e-05,5.628852522931993e-05
1.753525430103764e-05,-4.898764018435031e-05,3.058449874515645e-05,3.756475052796304e-05,-1.1999558410025202e-05,5.249231617199257e-05
1.802816041163169e-05,-5.2055194828426465e-05,3.0136963687255047e-05,4.322117820265703e-05,-1.2958530533069279e-05,5.4789714340586215e-05
1.690005956334062e-05,-5.411956226453185e-05,2.88772916974267e-05,4.6941888285800815e-05,-1.3384672456595581e-05,6.130686233518645e-05
1.6210484318435192e-05,-5.4917807574383914e-05,2.7780492018791847e-05,4.395226642373018e-05,-1.27915627672337e-05,6.639555067522451e-05
1.8544202248449437e-05,-5.541559585253708e-05,2.8940048650838435e-05,3.5748977097682655e-05,-9.843884981819429e-06,6.499998562503606e-05
2.327579386474099e-05,-5.6790555390762165e-05,3.11363983200863e-05,2.9906010240665637e-05,-6.332544217002578e-06,5.861704994458705e-05
2.8846208806498908e-05,-5.988676639390178e-05,3.1679923267802224e-05,2.8265261789783835e-05,-5.364329354051733e-06,5.50243494217284e-05
2.959489393106196e-05,-5.976888496661559e-05,3.1790339562576264e-05,2.4770999516476877e-05,-7.636062036908697e-06,5.288151078275405e-05
2.688225322344806e-05,-5.4990083299344406e-05,3.205776010872796e-05,2.1750527594122104e-05,-9.74210342974402e-06,5.164086178410798e-05
2.6518577215028927e-05,-5.198768849368207e-05,3.3002761483658105e-05,1.844857251853682e-05,-9.727777978696395e-06,5.67352217331063e-05
2.8821323212468997e-05,-4.829603130929172e-05,3.1414230761583894e-05,1.6419227904407308e-05,-7.158916560001671e-06,6.14206146565266e-05
3.063447729800828e-05,-4.277580592315644e-05,2.7955142286373302e-05,2.006831346079707e-05,-2.4649430088174995e-06,6.36569966445677e-05
3.069853482884355e-05,-4.043566877953708e-05,2.735146881605033e-05,2.739891533565242e-05,-1.5367451169367996e-06,6.57380442135036e-05
3.0499080821755342e-05,-4.4182437704876065e-05,2.7118241632706486e-05,2.7913140002056025e-05,-8.459312994091306e-06,6.649400893365964e-05
2.6384141165181063e-05,-4.788379374076612e-05,2.8218550141900778e-05,2.1346661014831625e-05,-1.5986828657332808e-05,6.841777212684974e-05
2.1843579816049896e-05,-4.926330439047888e-05,3.0256142053985968e-05,1.677552609180566e-05,-1.7336160453851335e-05,7.120792724890634e-05
2.0748115275637247e-05,-4.886105307377875e-05,3.320540417917073e-05,1.544851875223685e-05,-2.039328683167696e-05,7.23718258086592e-05
1.915921711770352e-05,-4.9718986701918766e-05,3.503054904285818e-05,1.5296993296942674e-05,-2.8880249374196865e-05,6.903985922690481e-05
1.3305399079399649e-05,-5.4110587370814756e-05,3.455696059972979e-05,1.5436695321113802e-05,-3.958461820730008e-05,6.027631388860755e-05
7.146934876800515e-06,-5.884546771994792e-05,3.236542397644371e-05,1.5867653928580694e-05,-4.708581036538817e-05,4.6143501094775274e-05
6.112424216553336e-06,-5.863891783519648e-05,3.0187708034645766e-05,1.4800529243075289e-05,-5.0819518946809694e-05,3.5956363717559725e-05
1.0499194104340859e-05,-5.440768654807471e-05,3.23719359585084e-05,1.2927725038025528e-05,-5.072024941910058e-05,3.770094917854294e-05
1.5100773453013971e-05,-5.190597948967479e-05,3.7412275560200214e-05,1.361737940897001e-05,-4.479915151023306e-05,4.458864714251831e-05
1.595725552760996e-05,-5.240209065959789e-05,4.157264265813865e-05,2.0294737623771653e-05,-3.5220044082961977e-05,4.462548895389773e-05
1.5491457816096954e-05,-5.3271669457899407e-05,4.256906686350703e-05,3.266353451181203e-05,-2.563902125984896e-05,3.7469992093974724e-05
1.6799514924059622e-05,-5.2625706302933395e-05,4.166941289440729e-05,4.933787931804545e-05,-1.804195017029997e-05,3.0347591746249236e-05
2.0251882233424112e-05,-5.244485873845406e-05,3.786331944866106e-05,6.186446262290701e-05,-1.1376974725862965e-05,2.9285161872394383e-05
2.305327325302642e-05,-5.32645353814587e-05,3.3252126740990207e-05,6.0115362430224195e-05,-3.930138063878985e-06,3.313247361802496e-05
2.4098679205053486e-05,-5.294004949973896e-05,3.136579107376747e-05,4.4828215322922915e-05,5.3914209274807945e-06,3.3990520023508e-05
2.2492058633361012e-05,-4.89271005790215e-05,3.1805422622710466e-05,2.83708177448716e-05,1.4778190234210342e-05,3.1805513572180644e-05
2.018558734562248e-05,-4.508571873884648e-05,3.1209281587507576e-05,1.8483277017367072e-05,2.2564865503227338e-05,3.291210305178538e-05
1.9793458704953082e-05,-4.426290615811013e-05,2.985072751471307e-05,1.3333605238585733e-05,2.8741207643179223e-05,3.796575401793234e-05
2.0338015019660816e-05,-4.353289114078507e-05,2.9818504117429256e-05,1.4564821867679711e-05,3.102653136011213e-05,4.3143663788214326e-05
2.1192965505179018e-05,-4.29400461143814e-05,3.3718566555762663e-05,1.966413219633978e-05,2.7573585612117313e-05,4.962706589139998e-05
2.2328884369926527e-05,-4.22679258917924e-05,3.949445817852393e-05,2.272581696161069e-05,2.3139416953199543e-05,5.7218614529119805e-05
2.142093944712542e-05,-4.1982602851931006e-05,3.9384831325151026e-05,2.6602388970786706e-05,2.0526498701656237e-05,6.072516043786891e-05
2.2163392713991925e-05,-4.599266321747564e-05,3.482518150121905e-05,3.269379158155061e-05,1.9498507754178718e-05,5.95430210523773e-05
2.3919397790450603e-05,-5.207310096011497e-05,3.2060706871561706e-05,3.426208786549978e-05,1.6863905329955742e-05,5.615578993456438e-05
2.2658541638520546e-05,-5.32331396243535e-05,3.1478364689974114e-05,3.416517938603647e-05,1.3331650734471623e-05,6.0337722970871255e-05
2.3195245375973172e-05,-4.987663487554528e-05,3.3752003218978643e-05,3.8079855585237965e-05,1.2479017641453538e-05,6.780613330192864e-05
2.8532514988910407e-05,-4.946939952787943e-05,3.676428968901746e-05,4.081067891092971e-05,1.063519903254928e-05,7.206502050394192e-05
3.496122735668905e-05,-4.9543486966285855e-05,3.8079040677985176e-05,3.9921971620060503e-05,5.203858108870918e-06,7.414024003082886e-05
3.571704655769281e-05,-4.762881508213468e-05,3.7354806408984587e-05,3.670004298328422e-05,-2.734750523814e-06,7.324929174501449e-05
3.2801930501591414e-05,-4.2620449676178396e-05,3.792073403019458e-05,3.563607970136218e-05,-1.1190629265911411e-05,7.717715197941288e-05
2.8880838726763614e-05,-3.9717146137263626e-05,4.009631084045395e-05,3.4989854611922055e-05,-1.8701437511481345e-05,7.944793469505385e-05
2.3332378987106495e-05,-4.198007445666008e-05,3.609746272559278e-05,2.9825570891262032e-05,-2.6579189579933882e-05,8.074866491369903e-05
2.030535506492015e-05,-4.623572021955624e-05,2.819566725520417e-05,2.47068364842562e-05,-3.41275917890016e-05,7.800095772836357e-05
2.181688614655286e-05,-4.988900036551058e-05,2.422532270429656e-05,2.5014807761181146e-05,-3.6609821108868346e-05,7.334075780818239e-05
2.3735821741865948e-05,-5.238013545749709e-05,2.5237173758796416e-05,2.603405482659582e-05,-3.296889190096408e-05,6.851797661511227e-05
2.25107760343235e-05,-5.3424206271301955e-05,2.6519444872974418e-05,2.262384987261612e-05,-2.6963441996485926e-05,6.40067009953782e-05
2.0728071831399575e-05,-5.42124907951802e-05,2.6971223633154295e-05,1.513124425400747e-05,-2.3099999452824704e-05,6.472766835941002e-05
1.8332118997932412e-05,-5.6823391787474975e-05,2.889639654313214e-05,9.12938321562251e-06,-2.3263613911694847e-05,6.772144115529954e-05
1.41956170409685e-05,-5.940392293268815e-05,3.097308945143595e-05,8.638812687422615e-06,-2.4796585421427153e-05,6.937451689736918e-05
1.134625472332118e-05,-6.128239328972995e-05,3.06578804156743e-05,8.107710527838208e-06,-2.1957595890853554e-05,6.752811896149069e-05
1.1469210221548565e-05,-6.115036376286298e-05,2.9158494726289064e-05,2.108648004650604e-06,-1.4587089026463218e-05,6.389150803443044e-05
1.210488971992163e-05,-5.887243605684489e-05,2.7647514798445627e-05,-1.9009829657079536e-06,-1.000662632577587e-05,5.8362587878946215e-05
1.1916996299987659e-05,-5.6007134844549e-05,2.636315366544295e-05,8.722890015633311e-06,-1.1405065379221924e-05,5.5992019042605534e-05
1.4258631381380837e-05,-5.426664210972376e-05,2.6417046683491208e-05,3.0250888812588528e-05,-1.435459762433311e-05,6.0492533521028236e-05
1.907901059894357e-05,-5.3282990847947076e-05,2.7374109777156264e-05,5.240294194663875e-05,-1.298242568736896e-05,6.860783469164744e-05
2.1110541638336144e-05,-5.064911238150671e-05,3.0343198886839673e-05,6.942768231965601e-05,-7.957325578900054e-06,6.918705912539735e-05
2.3205984689411707e-05,-4.615648867911659e-05,3.203207234037109e-05,8.23849841253832e-05,-4.307690232963068e-06,6.587708048755303e-05
2.4757393475738354e-05,-4.6564142394345254e-05,3.142302011838183e-05,8.892355253919959e-05,-5.072078693046933e-06,6.32217779639177e-05
2.4381180992349982e-05,-5.03172013850417e-05,3.4282220440218225e-05,8.30812132335268e-05,-1.075266300176736e-05,6.217398913577199e-05
2.5853412807919085e-05,-5.474775389302522e-05,3.483483669697307e-05,6.873768870718777e-05,-1.447674094379181e-05,6.391393253579736e-05
2.7575151761993766e-05,-5.359900023904629e-05,3.0620074539911e-05,5.319672709447332e-05,-1.382526352244895e-05,6.199602648848668e-05
2.97579936159309e-05,-4.675582385971211e-05,2.9871829610783607e-05,4.5509867049986497e-05,-1.2052197234879714e-05,5.846878048032522e-05
2.6192079531028867e-05,-4.2943771404679865e-05,3.288695734227076e-05,4.141392128076404e-05,-1.4491573892883025e-05,5.9796318964799866e-05
2.3633148884982802e-05,-4.516462286119349e-05,3.1019433663459495e-05,3.740355168702081e-05,-2.0822863007197157e-05,6.583870708709583e-05
2.611306081234943e-05,-4.926042311126366e-05,2.7897112886421382e-05,3.648650090326555e-05,-2.4171989934984595e-05,6.950758688617498e-05
2.5534518499625847e-05,-4.9600588681641966e-05,2.761313589871861e-05,3.471444870228879e-05,-2.3321452317759395e-05,6.615239544771612e-05
2.5345003450638615e-05,-4.8813071771292016e-05,2.700379081943538e-05,3.55836637027096e-05,-1.9995342881884426e-05,6.213553569978103e-05
2.8558128178701736e-05,-4.593909761752002e-05,2.518018300179392e-05,3.805316373473033e-05,-1.7645679690758698e-05,6.185249367263168e-05
3.303431731183082e-05,-4.143429032410495e-05,2.3396461983793415e-05,4.104878462385386e-05,-1.505381897004554e-05,6.463524186983705e-05
3.268912769271992e-05,-4.264268136466853e-05,2.517564280424267e-05,4.081885708728805e-05,-1.3685040357813705e-05,6.50130386929959e-05
2.9096740036038682e-05,-4.913867451250553e-05,2.8719518013531342e-05,3.732625918928534e-05,-1.1634735528787132e-05,6.733001646352932e-05
3.010366162925493e-05,-5.429370503406972e-05,3.112943522864953e-05,3.199885395588353e-05,-9.62880403676536e-06,6.689311703667045e-05
3.4526223316788673e-05,-5.4610070947092026e-05,3.07144109683577e-05,2.4470433345413767e-05,-9.643395060265902e-06,5.913399945711717e-05
3.448275674600154e-05,-5.142468580743298e-05,3.0203405913198367e-05,1.9120914657833055e-05,-8.765281563682947e-06,5.210705057834275e-05
2.8069334803149104e-05,-4.905694368062541e-05,2.9968830858706497e-05,1.9727340259123594e-05,-8.633591278339736e-06,5.006616993341595e-05
2.0812090951949358e-05,-5.04980816913303e-05,2.8482825655373745e-05,2.3818043700885028e-05,-1.1413254469516687e-05,5.207451613387093e-05
1.8053629901260138e-05,-5.426752250059508e-05,2.7208625397179276e-05,2.6975723812938668e-05,-1.5113018889678642e-05,5.421050082077272e-05
1.8522470782045275e-05,-5.600944859907031e-05,2.7918977139052004e-05,2.6349103791289963e-05,-1.5969812011462636e-05,5.755974416388199e-05
1.9302229702589102e-05,-5.354922541300766e-05,2.93551929644309e-05,2.016383587033488e-05,-1.4068001291889232e-05,6.026748087606393e-05
1.985374001378659e-05,-4.979032019036822e-05,2.887440859922208e-05,1.452568540116772e-05,-1.1291274859104306e-05,6.277218199102208e-05
1.8169954273616895e-05,-4.8969472118187696e-05,2.785748802125454e-05,1.4690860552946106e-05,-1.195297318190569e-05,6.122523336671293e-05
1.6353964383597486e-05,-4.9918580771191046e-05,2.873777884815354e-05,1.9928875190089457e-05,-1.457265989301959e-05,5.379088906920515e-05
1.7669804947217926e-05,-4.98947047162801e-05,2.8400823794072494e-05,2.4941742594819516e-05,-1.58183065650519e-05,4.918771446682513e-05
1.924452226376161e-05,-4.8557150876149535e-05,2.5088240363402292e-05,2.2549957066075876e-05,-1.6261914424831048e-05,5.514225267688744e-05
1.8298960640095174e-05,-4.733633977593854e-05,2.2498204998555593e-05,1.4987105714681093e-05,-1.717458144412376e-05,5.8762387197930366e-05
1.4764272236789111e-05,-4.642151543521322e-05,2.2047550373827107e-05,8.804272511042655e-06,-1.5819232430658303e-05,5.35494000359904e-05
1.0717631994339172e-05,-4.718099080491811e-05,2.4748520445427857e-05,4.92810113428277e-06,-1.200188125949353e-05,4.8859568778425455e-05
8.423174222116359e-06,-4.889851697953418e-05,2.84093421214493e-05,2.5334804831800284e-06,-8.661154424771667e-06,4.7946497943485156e-05
1.2785307262674905e-05,-4.9938356823986396e-05,2.8093336368328892e-05,-3.3921512567758327e-06,-1.203696501761442e-05,4.860652916249819e-05
1.9982420781161636e-05,-4.845560033572838e-05,2.6358429749961942e-05,-7.284889306902187e-06,-2.125396167684812e-05,5.004083504900336e-05
2.3809034246369265e-05,-4.5984499593032524e-05,2.641862192831468e-05,-7.552007900812896e-06,-2.6433572202222422e-05,4.74344014946837e-05
2.4689437850611284e-05,-4.6366309106815606e-05,2.5587511117919348e-05,-4.115132014703704e-06,-2.633146141306497e-05,3.922946416423656e-05
1.990790042327717e-05,-4.512829036684707e-05,2.4797212972771376e-05,2.6598434033076046e-06,-2.1433696019812487e-05,3.4114087611669675e-05
1.4884212760080118e-05,-4.159624222666025e-05,2.6722053007688373e-05,1.0358218787587248e-05,-1.573129338794388e-05,3.836619362118654e-05
1.2711596355075017e-05,-3.975160143454559e-05,2.8048991225659847e-05,1.3666527593159117e-05,-1.0364055924583226e-05,4.867580719292164e-05
1.1783998161263298e-05,-3.982844646088779e-05,2.774456879706122e-05,9.333047273685224e-06,-4.343071395851439e-06,5.641059033223428e-05
1.2582939234562218e-05,-4.247545439284295e-05,2.9075674319756217e-05,7.916569302324206e-06,1.3351008192330482e-06,5.540392521652393e-05
1.416651502950117e-05,-4.620177060132846e-05,3.408105476410128e-05,2.1357767764129676e-05,5.617434908344876e-06,4.627553062164225e-05
1.8224014638690278e-05,-4.924061067868024e-05,3.941512113669887e-05,4.6240907977335155e-05,8.048365089052822e-06,4.261088906787336e-05
2.3580774723086506e-05,-4.8918947868514806e-05,4.188991442788392e-05,6.88994477968663e-05,9.273237083107233e-06,4.708345659309998e-05
2.6171426725341007e-05,-4.493597589316778e-05,4.4460539356805384e-05,8.086890011327341e-05,7.719317181908991e-06,5.448120282380842e-05
2.440031494188588e-05,-4.256346801412292e-05,4.6464345359709114e-05,7.848474342608824e-05,4.522417839325499e-06,6.0428712458815426e-05
2.2132839148980565e-05,-4.4768687075702474e-05,4.459824776859023e-05,6.672615563729778e-05,1.7873109072752413e-06,5.9890589909628034e-05
2.4413528080913238e-05,-4.729211286758073e-05,3.9591232052771375e-05,5.37912237632554e-05,-2.289576968905749e-06,5.7283297792309895e-05
2.9434315365506336e-05,-4.69403930765111e-05,3.4463715564925224e-05,4.320560401538387e-05,-1.0568153811618686e-05,5.814945689053275e-05
3.258568176534027e-05,-4.6506349463015795e-05,3.170135823893361e-05,3.57697244908195e-05,-1.8305107005289756e-05,6.328851304715499e-05
3.158109757350758e-05,-4.70301165478304e-05,3.267997453804128e-05,3.362515053595416e-05,-1.9800821974058636e-05,7.04366757418029e-05
2.7022977519663982e-05,-4.53043139714282e-05,3.5528668377082795e-05,3.261118399677798e-05,-1.8667606127564795e-05,7.693187944823876e-05
2.3972304916242138e-05,-4.3088864913443103e-05,3.6741592339240015e-05,2.955354102596175e-05,-1.651230559218675e-05,7.776152779115364e-05
2.4757198843872175e-05,-4.4335021812003106e-05,3.439118881942704e-05,2.1868614567210898e-05,-1.0429672329337336e-05,7.662884308956563e-05
2.6515606805332936e-05,-4.8191173846134916e-05,3.1941774068400264e-05,1.6665831935824826e-05,-2.2877920855535194e-06,7.475091842934489e-05
2.7755553674069233e-05,-5.016760769649409e-05,3.2039832149166614e-05,2.358375786570832e-05,6.62307729726308e-06,7.047176768537611e-05
2.9903081667725928e-05,-4.710513530881144e-05,3.3795105991885066e-05,3.844894308713265e-05,1.2048263670294546e-05,6.672169547528028e-05
3.421789006097242e-05,-4.440781776793301e-05,3.5247143387096e-05,5.370460348785855e-05,1.3049969311396126e-05,6.750932516297325e-05
3.488589936750941e-05,-4.36592054029461e-05,3.352733256178908e-05,5.8171626733383164e-05,1.2556468391267117e-05,7.097480556694791e-05
3.431376171647571e-05,-4.113352770218626e-05,3.298537922091782e-05,4.990887100575492e-05,1.1474248822196387e-05,7.072606240399182e-05
3.240564183215611e-05,-3.843744707410224e-05,3.7962370697641745e-05,4.264478775439784e-05,9.805326953937765e-06,6.745073915226385e-05
2.6212359443889e-05,-4.033516961499117e-05,4.063078813487664e-05,4.238389738020487e-05,8.947623427957296e-06,6.418669363483787e-05
2.1570021999650635e-05,-4.388164961710572e-05,3.920296876458451e-05,4.2284056689823046e-05,8.708721907169092e-06,6.307455623755231e-05
2.1653291696566157e-05,-4.685607927967794e-05,3.6623518099077046e-05,3.523741543176584e-05,7.992160135472659e-06,5.585531471297145e-05
2.4608394596725702e-05,-4.8478617827640846e-05,3.353623105795123e-05,2.1525540432776324e-05,1.0624927199387457e-05,4.800195893039927e-05
2.42308833549032e-05,-4.7767643991392106e-05,3.4858123399317265e-05,7.946318874019198e-06,1.2319173038122244e-05,4.699650889961049e-05
2.463826422172133e-05,-4.751615779241547e-05,3.6451809137361124e-05,3.046952087970567e-06,9.502497960056644e-06,5.324205631040968e-05
2.7167099688085727e-05,-4.712210284196772e-05,3.459455547272228e-05,5.874393082194729e-06,7.5958159868605435e-06,5.857964788447134e-05
2.8570695576490834e-05,-4.660957711166702e-05,3.2471052691107616e-05,8.458209777018055e-06,8.182681085600052e-06,5.796207915409468e-05
2.749652230704669e-05,-4.551028541754931e-05,3.410106000956148e-05,9.763400157680735e-06,4.587151579471538e-06,5.854905612068251e-05
2.649334419402294e-05,-4.3135809391969815e-05,3.6160898162052035e-05,1.3281908650242258e-05,-5.907698778173653e-06,6.127331289462745e-05
2.581031367299147e-05,-4.422996789799072e-05,3.4523443900980055e-05,1.9147790226270445e-05,-1.9090426576440223e-05,6.305155693553388e-05
2.3290898752748035e-05,-4.9293943447992206e-05,3.282565376139246e-05,2.659107485669665e-05,-3.1228846637532115e-05,5.992908700136468e-05
1.9583883840823546e-05,-5.3294126701075584e-05,3.3915970561793074e-05,3.4610606235219166e-05,-4.2291252611903474e-05,5.3564795962302014e-05
1.4351410754898097e-05,-5.4855274356668815e-05,3.631899016909301e-05,3.788077083299868e-05,-5.182239692658186e-05,4.704238745034672e-05
8.911714758141898e-06,-5.5669333960395306e-05,3.481945532257669e-05,3.5201119317207485e-05,-6.146023224573582e-05,4.27514169132337e-05
7.275740244949702e-06,-5.424777918960899e-05,2.9389377232291736e-05,2.8888231099699624e-05,-7.051322609186172e-05,4.156650174991228e-05
1.122122830565786e-05,-5.051894186181016e-05,2.4558965378673747e-05,2.279619911860209e-05,-7.300253491848707e-05,4.3395331886131316e-05
1.5728386642877012e-05,-5.072489511803724e-05,2.374382529524155e-05,2.028179369517602e-05,-6.77161879139021e-05,4.310794247430749e-05
1.537048228783533e-05,-5.4217765864450485e-05,2.5788705897866748e-05,2.4226972527685575e-05,-5.733703073929064e-05,3.9017842937028036e-05
1.2094725207134616e-05,-5.5608667025808245e-05,2.7045934984926134e-05,2.9745977371931076e-05,-4.048698247061111e-05,3.435359394643456e-05
1.2067332136211917e-05,-5.499585677171126e-05,2.920862243627198e-05,2.956614480353892e-05,-1.6818452422739938e-05,3.7018940929556265e-05
1.423669255018467e-05,-5.4226471547735855e-05,3.1795567338122055e-05,2.6678177164285444e-05,8.900398825062439e-06,4.457599425222725e-05
1.53778546518879e-05,-5.5294302001129836e-05,3.102837217738852e-05,2.5521272618789226e-05,3.354439468239434e-05,5.067523670732044e-05
1.675118437560741e-05,-5.70341398997698e-05,3.1067065719980747e-05,2.7061725631938316e-05,5.230071474215947e-05,5.69403673580382e-05
2.0586512619047426e-05,-5.6809381931088865e-05,3.0780847737332806e-05,2.73059013125021e-05,5.831567250424996e-05,5.980993955745362e-05
2.2949663616600446e-05,-5.362842057365924e-05,2.896524893003516e-05,2.7921076252823696e-05,5.261977275949903e-05,5.1690371037693694e-05
2.351644798181951e-05,-4.9751786718843505e-05,2.9916576750110835e-05,2.8398830181686208e-05,4.529925718088634e-05,4.0185983380069956e-05
2.295732883794699e-05,-5.0550457672216e-05,3.1128573027672246e-05,2.7518828574102372e-05,3.9932125218911096e-05,4.098848148714751e-05
2.2048858227208257e-05,-5.2957584557589144e-05,3.070101956836879e-05,2.5405093765584752e-05,2.866391332645435e-05,4.930755676468834e-05
2.0379555280669592e-05,-5.478999810293317e-05,2.864255293388851e-05,2.3255450287251733e-05,1.1845232620544266e-05,5.2891296945745125e-05
1.8788177840178832e-05,-5.552843140321784e-05,2.680595571291633e-05,2.243142262159381e-05,-2.817460540427419e-07,4.8843343392945826e-05
1.955500010808464e-05,-5.33611309947446e-05,2.699381730053574e-05,2.0756413505296223e-05,-5.932761268923059e-06,4.7186036681523547e-05
2.2624702978646383e-05,-5.109002813696861e-05,2.800020229187794e-05,2.097981450788211e-05,-1.1296708180452697e-05,5.255401993053965e-05
2.487837446096819e-05,-5.166497430764139e-05,2.7438511096988805e-05,2.0340770788607188e-05,-1.99466976482654e-05,5.8779663959285244e-05
2.5634970370447263e-05,-5.407168282545172e-05,2.5510513296467252e-05,1.9062725186813623e-05,-2.7356580176274292e-05,5.954898369964212e-05
2.7475622118799947e-05,-5.4007276048650965e-05,2.3862630769144744e-05,1.9650618924060836e-05,-3.164386362186633e-05,5.4876389185665175e-05
2.8478871172410436e-05,-5.2075010898988694e-05,2.3569707991555333e-05,2.2911222913535312e-05,-3.2727399229770526e-05,5.365736797102727e-05
2.8287062377785333e-05,-5.1325019740033895e-05,2.6932184482575394e-05,2.712136301852297e-05,-3.196635589119978e-05,5.9250476624583825e-05
2.740691888902802e-05,-5.238093217485584e-05,3.0370225431397557e-05,2.7285959731671028e-05,-2.9164224542910233e-05,6.407453474821523e-05
2.6525727662374265e-05,-5.2593157306546345e-05,3.07318041450344e-05,2.2901520424056798e-05,-2.4070919607765973e-05,6.326750008156523e-05
2.582875094958581e-05,-5.142694499227218e-05,3.107084921794012e-05,2.2082504074205644e-05,-2.0350578779471107e-05,6.249063153518364e-05
2.6504085326450877e-05,-5.2158171456540003e-05,3.499939339235425e-05,2.6748826712719165e-05,-1.9304698071209714e-05,6.454730464611202e-05
2.890498399210628e-05,-5.3969662985764444e-05,4.0093167626764625e-05,3.0309998692246154e-05,-1.8023003576672636e-05,6.71818561386317e-05
3.1077201128937304e-05,-5.4456300858873874e-05,4.256112515577115e-05,3.0192846679710783e-05,-1.592990884091705e-05,6.91379900672473e-05
2.9050597731838934e-05,-5.5540218454552814e-05,4.1809002141235396e-05,3.0342867830768228e-05,-1.3686321835848503e-05,6.895489059388638e-05
2.722194039961323e-05,-5.5737458751536906e-05,3.78240438294597e-05,3.418002597754821e-05,-9.753105587151367e-06,6.676721386611462e-05
2.8046804800396785e-05,-5.062918353360146e-05,3.3546377380844206e-05,3.838138945866376e-05,-5.896140010008821e-06,6.590651901206002e-05
2.8967964681214653e-05,-4.4137217628303915e-05,3.4290125768166035e-05,4.1576673538656905e-05,-3.8480397961393464e-06,6.717887299600989e-05
3.0499764761771075e-05,-4.271477882866748e-05,4.0829760109772906e-05,4.039711711811833e-05,-4.604264177032746e-06,6.95615162840113e-05
3.0746461561648175e-05,-4.5152788516134024e-05,4.274359525879845e-05,3.545165236573666e-05,-5.1456386245263275e-06,6.747808947693557e-05
2.8504930014605634e-05,-4.951889059157111e-05,3.9116363041102886e-05,3.6631063267122954e-05,-5.568296273850137e-06,6.279964873101562e-05
2.6217703634756617e-05,-5.5323649576166645e-05,3.620010465965606e-05,4.1533679905114695e-05,-9.267124369216617e-06,5.9303976740920916e-05
2.3664146283408627e-05,-5.524149310076609e-05,3.679481233120896e-05,4.474909292184748e-05,-1.5388552128570154e-05,5.524013613467105e-05
2.0992332792957313e-05,-5.059044269728474e-05,3.7068788515171036e-05,4.247389733791351e-05,-2.0481975298025645e-05,5.3161205869400874e-05
1.9551462173694745e-05,-4.834566789213568e-05,3.165391171933152e-05,3.650820144684985e-05,-2.1857462343177758e-05,5.096970562590286e-05
1.8484272004570812e-05,-4.9407237384002656e-05,3.0263185180956498e-05,3.526447471813299e-05,-1.8779785023070872e-05,5.139690256328322e-05
1.8068059944198467e-05,-5.023870471632108e-05,3.5246153856860474e-05,3.3140135201392695e-05,-1.8014334273175336e-05,5.368807615013793e-05
1.8137121514882892e-05,-4.805184289580211e-05,3.895764530170709e-05,2.9138293029973283e-05,-1.8941300368169323e-05,5.4914540669415146e-05
1.9645214706542902e-05,-4.730978253064677e-05,3.8097979995654896e-05,2.0482355466810986e-05,-1.8822591300704516e-05,5.546286774915643e-05
2.1556725187110715e-05,-4.8975976824294776e-05,3.533010749379173e-05,1.073784824257018e-05,-2.2134890969027765e-05,5.596604023594409e-05
2.066850174742285e-05,-4.9916241550818086e-05,3.249196379329078e-05,8.276913831650745e-06,-2.658155426615849e-05,5.280235200189054e-05
1.6788517314125784e-05,-4.833940329262987e-05,3.149394615320489e-05,1.5848003386054188e-05,-2.6821238861884922e-05,5.051789048593491e-05
1.4124842891760636e-05,-4.733600144390948e-05,3.317843220429495e-05,2.8520867999759503e-05,-2.247465636173729e-05,5.274809154798277e-05
1.2087821232853457e-05,-4.749807339976542e-05,3.307116639916785e-05,3.8082656828919426e-05,-1.9231531041441485e-05,5.1051898481091484e-05
1.1691313375195023e-05,-4.765917037730105e-05,3.133690188406035e-05,3.930311504518613e-05,-1.8536409697844647e-05,4.526297198026441e-05
1.3793294783681631e-05,-4.768458165926859e-05,3.0102031814749353e-05,3.152753197355196e-05,-1.7352826034766622e-05,4.186179648968391e-05
1.6741456420277245e-05,-4.8032459744717926e-05,2.894992212532088e-05,2.1353467673179694e-05,-1.2924915608891752e-05,4.4238015107112005e-05
1.857266943261493e-05,-4.843884380534291e-05,2.692799171200022e-05,1.306091326114256e-05,-8.85850840859348e-06,4.858438114752062e-05
1.8463830201653764e-05,-4.834590799873695e-05,2.5380701117683202e-05,8.48950458021136e-06,-6.8928584369132295e-06,5.2200324716977775e-05
1.8340750102652237e-05,-4.981312304153107e-05,2.5508967155474238e-05,7.722800546616782e-06,-5.010591848986223e-06,5.527624307433143e-05
2.0158515326329507e-05,-5.2678082283819094e-05,2.566059811215382e-05,1.1178604836459272e-05,-2.3985467123566195e-06,5.960065755061805e-05
2.3275806597666815e-05,-5.518757097888738e-05,2.492561179678887e-05,1.3547693015425466e-05,-5.219973900238983e-06,6.310359458439052e-05
2.54386686719954e-05,-5.5548887758050114e-05,2.5908153475029394e-05,1.1947149687330239e-05,-1.4202497368387412e-05,6.556716107297689e-05
2.728890103753656e-05,-5.3185322030913085e-05,2.9744422135991044e-05,1.0829917300725356e-05,-1.9259367036283948e-05,6.909431976964697e-05
2.8321186618995853e-05,-5.125398456584662e-05,3.4371510992059484e-05,1.585079007782042e-05,-1.706842340354342e-05,7.0521367888432e-05
2.9413353331619874e-05,-5.4570620704907924e-05,3.496475983411074e-05,2.4600243705208413e-05,-1.124573373090243e-05,6.74171606078744e-05
2.9109787647030316e-05,-5.776581019745208e-05,3.346278390381485e-05,3.168731927871704e-05,-6.694081093883142e-06,6.459609721787274e-05
2.617275094962679e-05,-5.366640107240528e-05,3.2102900149766356e-05,3.393842052901164e-05,-6.108330580900656e-06,6.839477282483131e-05
2.2411755708162673e-05,-4.7624118451494724e-05,3.171072603436187e-05,3.5312561522005126e-05,-5.170306849322515e-06,7.754401303827763e-05
2.111112371494528e-05,-4.708668711828068e-05,3.204398672096431e-05,4.715140676125884e-05,-1.5401966493300279e-06,8.045877621043473e-05
2.5203367840731516e-05,-5.1794693717965856e-05,3.2295716664521024e-05,6.824952288297936e-05,-2.620032546474249e-06,7.35795110813342e-05
2.8434575142455287e-05,-5.538106051972136e-05,3.29915746988263e-05,8.591810910729691e-05,-4.266403720976086e-06,6.902877794345841e-05
2.8363345336401835e-05,-5.5442011216655374e-05,3.352148269186728e-05,8.912308112485334e-05,-5.271802365314215e-06,6.94884656695649e-05
2.9375858503044583e-05,-5.422431422630325e-05,3.5012482840102166e-05,7.55254368414171e-05,-6.3510228756058495e-06,6.916966958669946e-05
2.9280510716489516e-05,-5.448113734018989e-05,3.5209624911658466e-05,5.754055382567458e-05,-6.275002760958159e-06,6.673311145277694e-05
2.984704406117089e-05,-5.6303742894669995e-05,3.3996879210462794e-05,4.0243325202027336e-05,-9.445754585613031e-06,6.903916073497385e-05
2.885694266296923e-05,-5.4651001846650615e-05,3.190201459801756e-05,2.4826258595567197e-05,-1.7716429283609614e-05,7.363699842244387e-05
2.770496575976722e-05,-5.0596205255715176e-05,3.103251219727099e-05,1.6023854186641984e-05,-2.9036009436822496e-05,6.891563680255786e-05
2.8724003641400486e-05,-4.770404120790772e-05,2.961330937978346e-05,1.4808724699832965e-05,-3.711112731252797e-05,6.28637062618509e-05
2.87775674223667e-05,-4.7859575715847313e-05,2.7113290343550034e-05,1.6547795894439332e-05,-3.8788552046753466e-05,6.191877764649689e-05
2.8602275051525794e-05,-5.013201734982431e-05,2.6827015972230583e-05,1.7057098375516944e-05,-3.740870306501165e-05,6.394631054718047e-05
2.8176738851470873e-05,-5.272877751849592e-05,2.8737649699905887e-05,1.8669432392925955e-05,-3.6813169572269544e-05,6.687332643195987e-05
2.6813508156919852e-05,-5.460243846755475e-05,2.961319114547223e-05,2.1783329430036247e-05,-3.60106241714675e-05,6.88854925101623e-05
2.4405364456470124e-05,-5.561689249589108e-05,2.7156787837157026e-05,2.3341937776422128e-05,-3.2101925171446055e-05,6.530150130856782e-05
2.240130015707109e-05,-5.584046812145971e-05,2.3401529688271694e-05,1.9700384655152448e-05,-2.2708414689986967e-05,5.9940750361420214e-05
1.8934642866952345e-05,-5.454753045341931e-05,2.38866159634199e-05,1.2160221558588091e-05,-1.1637597708613612e-05,6.16122706560418e-05
1.3101349395583384e-05,-5.2346629672683775e-05,2.8248046874068677e-05,6.601187578780809e-06,-2.5069773528230144e-06,6.958448648219928e-05
7.6257279033598024e-06,-5.118204353493638e-05,3.009290412592236e-05,1.0586021744529717e-05,4.505729975790018e-06,7.582719263155013e-05
6.685953849228099e-06,-5.1669241656782106e-05,3.0768489523325115e-05,2.6626868930179626e-05,7.572883987450041e-06,7.502504013245925e-05
1.0243796168651897e-05,-5.1080492994515225e-05,3.2106701837619767e-05,4.796287612407468e-05,5.910509571549483e-06,6.764224235666916e-05
1.3291951290739235e-05,-4.813357372768223e-05,3.31054579874035e-05,6.357652455335483e-05,3.919751634384738e-06,5.8743426052387804e-05
1.5445821190951392e-05,-4.575611092150211e-05,3.26923982356675e-05,6.466608465416357e-05,1.781679884516052e-06,5.6048720580292866e-05
1.5799974789842963e-05,-4.83925650769379e-05,3.091369944741018e-05,5.236099968897179e-05,4.986595740774646e-07,5.9310557844582945e-05
1.2917716958327219e-05,-5.238215089775622e-05,3.25192158925347e-05,3.938228473998606e-05,3.0238272756832885e-06,6.403064617188647e-05
9.489028343523387e-06,-5.1110691856592894e-05,3.7591602449538186e-05,2.9834924134775065e-05,6.450654836953618e-06,6.388319889083505e-05
8.425343366980087e-06,-4.975869524059817e-05,3.8798687455710024e-05,2.4070386643870734e-05,5.501561190612847e-06,6.139791366877034e-05
1.146073282143334e-05,-5.134320963406935e-05,3.678469511214644e-05,1.921407601912506e-05,3.5370744626561645e-06,5.1167491619708017e-05
1.083417737390846e-05,-4.973794784746133e-05,3.463670873316005e-05,1.1639174772426486e-05,2.8038468826707685e-06,4.132039612159133e-05
8.088680260698311e-06,-4.864959919359535e-05,3.152879799017683e-05,1.1742034985218197e-05,1.562026227475144e-06,4.295811595511623e-05
7.715258107054979e-06,-5.073268403066322e-05,2.7524862161953934e-05,2.460166251694318e-05,3.0626031275460264e-06,4.7559682570863515e-05
9.11985171114793e-06,-5.2901541494065896e-05,2.6311667170375586e-05,4.138885560678318e-05,5.4783522500656545e-06,5.285837687551975e-05
1.2129342394473497e-05,-5.162585148354992e-05,2.7139221856486984e-05,5.26489457115531e-05,5.233030151430285e-06,5.596998744294979e-05
1.5713188986410387e-05,-4.921053914586082e-05,2.560486609581858e-05,5.255495852907188e-05,6.844306881248485e-07,5.652929030475207e-05
1.7891532479552552e-05,-4.934829848934896e-05,2.4187098460970446e-05,4.42922864749562e-05,-3.704261871462222e-06,5.4796768381493166e-05
1.7644197214394808e-05,-5.005344792152755e-05,2.3836526452214457e-05,3.966737858718261e-05,-7.399073638225673e-06,4.66542987851426e-05
1.788456029316876e-05,-5.165454786038026e-05,2.4189792384277098e-05,4.067967165610753e-05,-8.581896508985665e-06,3.795753218582831e-05
1.75734512595227e-05,-5.2730567404069006e-05,2.6233163225697353e-05,3.9163500332506374e-05,-8.679532584210392e-06,3.985752846347168e-05
1.6349098586943e-05,-5.268472887109965e-05,3.139293039566837e-05,3.503385596559383e-05,-8.335380698554218e-06,4.891497883363627e-05
1.4220006050891243e-05,-5.2272651373641565e-05,3.7050653190817684e-05,3.2104951969813555e-05,-6.860690064058872e-06,5.510585106094368e-05
1.0588235454633832e-05,-5.044949284638278e-05,3.7855981645407155e-05,3.059022128582001e-05,-7.429048309859354e-06,5.797396806883626e-05
6.028828011039877e-06,-4.770396844833158e-05,3.383895818842575e-05,2.823288923536893e-05,-8.865298696036916e-06,5.744554437114857e-05
3.980444944318151e-06,-4.683935912908055e-05,2.9697115678573027e-05,2.4898194169509225e-05,-8.439343218924478e-06,5.408587458077818e-05
7.484723482775735e-06,-4.875967715634033e-05,2.9067256036796607e-05,2.1241845388431102e-05,-6.612972811126383e-06,5.121701906318776e-05
1.6138857972691767e-05,-5.0041693612001836e-05,2.9751448892056942e-05,2.086052336380817e-05,-7.48366937841638e-06,5.113182487548329e-05
2.184068398491945e-05,-4.906194590148516e-05,2.909772956627421e-05,2.478449277987238e-05,-8.668499503983185e-06,5.2997074817540124e-05
2.1668536646757275e-05,-4.6141500206431374e-05,2.9285414711921476e-05,2.613152355479542e-05,-8.70869007485453e-06,5.655270433635451e-05
1.995527964027133e-05,-4.430348053574562e-05,3.083241972490214e-05,2.5255530999857e-05,-8.176531082426663e-06,6.271230085985735e-05
1.989124939427711e-05,-4.5318429329199716e-05,3.368474426679313e-05,2.704766666283831e-05,-7.706788892392069e-06,6.649482384091243e-05
2.1469802959472872e-05,-4.8776983021525666e-05,3.75205599993933e-05,2.4155000573955476e-05,-8.379148312087636e-06,6.737546937074512e-05
2.4080414732452482e-05,-5.2531726396409795e-05,3.612891669035889e-05,1.2615688319783658e-05,-7.791226380504668e-06,6.390604539774358e-05
2.9152222850825638e-05,-5.1735063607338816e-05,3.1220151868183166e-05,5.8130008255830035e-06,-5.565225364989601e-06,5.8630754210753366e-05
3.424281385377981e-05,-4.9478676373837516e-05,2.7167161533725448e-05,6.236104582058033e-06,-7.69566759117879e-06,6.00802268309053e-05
3.3424916182411835e-05,-5.0675353122642264e-05,2.572759876784403e-05,9.94770471152151e-06,-1.2101060747227166e-05,6.81990131852217e-05
2.9966497095301747e-05,-5.3807492804480717e-05,2.9270004233694635e-05,1.8535491108195856e-05,-1.6006524674594402e-05,7.188573363237083e-05
3.070327147725038e-05,-5.361515286494978e-05,3.157287210342474e-05,2.5327450202894397e-05,-1.9606741261668503e-05,6.606267561437562e-05
2.9183664082665928e-05,-4.9133228458231315e-05,3.065599230467342e-05,2.3552984202979133e-05,-2.1340936655178666e-05,6.350102194119245e-05
2.4324410333065316e-05,-4.495508983382024e-05,3.00742522085784e-05,1.86292363650864e-05,-1.9752642401726916e-05,6.36044642305933e-05
2.0865281840087846e-05,-4.5237073209136724e-05,3.0515919206663966e-05,1.3509014024748467e-05,-1.9652394257718697e-05,6.048986688256264e-05
1.806907675927505e-05,-4.778022048412822e-05,2.899525861721486e-05,1.208520643558586e-05,-2.3502019757870585e-05,5.591543231275864e-05
1.6561374650336802e-05,-5.21661204402335e-05,2.5450657631154172e-05,7.95188589108875e-06,-2.3024831534712575e-05,5.481726839207113e-05
1.8339522284804843e-05,-5.4671854741172865e-05,2.718420910241548e-05,-7.868025022617076e-07,-1.6125843103509396e-05,5.8254598116036505e-05
2.0503839550656267e-05,-5.187817077967338e-05,3.1131727155297995e-05,-4.174285095359664e-06,-9.495707672613207e-06,5.858592703589238e-05
2.1679150449926965e-05,-4.7468867705902085e-05,3.1100917112780735e-05,-6.6121497184212785e-06,-7.917634320619982e-06,5.5709700973238796e-05
2.4406503143836744e-05,-4.419992183102295e-05,2.7623531423159875e-05,-1.1119062037323602e-05,-1.0291875696566422e-05,5.4326919780578464e-05
2.702242818486411e-05,-4.447788160177879e-05,2.5797831767704338e-05,-1.6408419469371438e-05,-1.3233930985734332e-05,5.3987685532774776e-05
2.6772597266244702e-05,-4.516884291660972e-05,2.726494312810246e-05,-1.6083693481050432e-05,-1.1882896615134086e-05,5.3122916142456234e-05
2.669206696737092e-05,-4.3306732550263405e-05,3.014093090314418e-05,-3.829393790510949e-06,-8.370417162950616e-06,5.522862556972541e-05
2.9354318030527793e-05,-4.105281914235093e-05,3.3569805964361876e-05,1.896876528917346e-05,-1.0999595360772219e-05,5.9027355746366084e-05
3.181810461683199e-05,-3.9802645915187895e-05,3.612319414969534e-05,4.321898450143635e-05,-2.023955312324688e-05,5.921413321630098e-05
3.089490928687155e-05,-3.814003866864368e-05,3.895711779478006e-05,6.18931808276102e-05,-2.9525939680752344e-05,5.4325453675119206e-05
2.709568798309192e-05,-3.8896607293281704e-05,4.116944546694867e-05,7.347473001573235e-05,-3.3084095775848255e-05,5.369460632209666e-05
2.2449288735515438e-05,-4.334896584623493e-05,4.037640610476956e-05,8.00929483375512e-05,-2.9712478863075376e-05,5.9071524447062984e-05
1.974344195332378e-05,-4.71209132228978e-05,3.639206261141226e-05,8.269382669823244e-05,-2.3071086616255343e-05,6.413445953512564e-05
2.1062392988824286e-05,-4.6632438170490786e-05,3.162257780786604e-05,7.781036401866004e-05,-1.5723033357062377e-05,6.849010969744995e-05
2.4804470740491524e-05,-4.457616887520999e-05,2.7548459911486134e-05,6.581737397937104e-05,-8.730268746148795e-06,7.071875006658956e-05
2.9683975299121812e-05,-4.56453490187414e-05,3.1075123843038455e-05,5.281077392282896e-05,-2.4837909222696908e-06,6.661275256192312e-05
3.324996214359999e-05,-4.917545447824523e-05,3.7723697460023686e-05,4.186853766441345e-05,3.826106876658741e-06,6.154269794933498e-05
3.4477237932151183e-05,-5.031998807680793e-05,3.738608575076796e-05,3.337542511872016e-05,9.843226507655345e-06,6.108274101279676e-05
3.403655864531174e-05,-4.820115282200277e-05,3.590490450733341e-05,2.968240005429834e-05,1.5880334103712812e-05,6.203996599651873e-05
3.35090298904106e-05,-4.956105112796649e-05,3.536161602823995e-05,2.9134260330465622e-05,1.6358704669983126e-05,6.216413021320477e-05
3.223627572879195e-05,-5.372340092435479e-05,3.349029066157527e-05,2.8159442081232555e-05,9.759338354342617e-06,5.928349128225818e-05
2.7410065740696155e-05,-5.4976946557872e-05,3.2029711292125285e-05,2.9524273486458696e-05,8.181409612006973e-06,6.02822401560843e-05
2.6156158128287643e-05,-4.917198384646326e-05,3.0338162105181254e-05,3.240533624193631e-05,1.2708701433439273e-05,6.568968092324212e-05
3.0742306989850476e-05,-4.320743028074503e-05,2.995609065692406e-05,3.1468145607504994e-05,1.2105775567761157e-05,6.679445505142212e-05
3.348200334585272e-05,-4.4228945625945926e-05,2.9908323995186947e-05,2.8623055186471902e-05,3.5904001833841903e-06,6.207131082192063e-05
3.076782377320342e-05,-4.598675513989292e-05,3.092382030445151e-05,2.684098217287101e-05,-3.363398263900308e-06,5.854041955899447e-05
2.551622674218379e-05,-4.5075132220517844e-05,3.218439087504521e-05,2.8491360353655182e-05,-3.837794338323874e-06,5.993010199745186e-05
2.2169497242430225e-05,-4.2741648940136656e-05,2.8422467948985286e-05,2.982805744977668e-05,-2.452570015520905e-06,5.6912605941761285e-05
2.0119623513892293e-05,-4.3928215745836496e-05,2.723873512877617e-05,3.118584572803229e-05,-5.128581506141927e-06,5.1646926294779405e-05
1.85667031473713e-05,-4.699699638877064e-05,3.0851435440126806e-05,3.231020673410967e-05,-8.400744263781235e-06,4.8795485781738535e-05
1.8437262042425573e-05,-5.008668085793033e-05,3.412099613342434e-05,3.081547765759751e-05,-9.713985491544008e-06,4.65741177322343e-05
1.9655999494716525e-05,-5.201391104492359e-05,3.523622217471711e-05,2.602105087134987e-05,-1.1068760613852646e-05,4.376064316602424e-05
1.9818731743725948e-05,-5.11922080477234e-05,3.631637082435191e-05,2.0512030459940434e-05,-1.234738556377124e-05,4.086167609784752e-05
1.8660146452020854e-05,-4.8161076847463846e-05,3.616707181208767e-05,1.916892870212905e-05,-1.2100568710593507e-05,3.9549602661281824e-05
1.7989133993978612e-05,-4.694590825238265e-05,3.307086444692686e-05,2.3684602638240904e-05,-1.0173627742915414e-05,4.329027797211893e-05
1.979069202207029e-05,-4.962987077306025e-05,3.0170362151693553e-05,3.23600834235549e-05,-7.518194252043031e-06,5.22662558068987e-05
2.2622605683864094e-05,-5.359729038900696e-05,3.0020117264939472e-05,3.879152791341767e-05,-3.393952965780045e-06,5.454488200484775e-05
2.4993021725094877e-05,-5.66419075767044e-05,3.2954452763078734e-05,3.9333757740678266e-05,-5.485850351760746e-08,4.785983401234262e-05
2.6233747121295892e-05,-5.87135182286147e-05,3.644416938186623e-05,3.591570566641167e-05,-2.5050471776921768e-06,4.374281706986949e-05
2.507927274564281e-05,-6.079503509681672e-05,3.8567945011891425e-05,3.149043186567724e-05,-1.1239994819334242e-05,4.8944493755698204e-05
2.314366793143563e-05,-5.9523048548726365e-05,3.7612582673318684e-05,2.887430673581548e-05,-1.842594429035671e-05,5.7190205552615225e-05
2.255789513583295e-05,-5.62332097615581e-05,3.2820982596604154e-05,3.1370735086966306e-05,-1.94131371245021e-05,6.0262467741267756e-05
2.3222990421345457e-05,-5.417143984232098e-05,2.8254631615709513e-05,3.591834320104681e-05,-1.669197081355378e-05,5.8515397540759295e-05
2.3590260752825998e-05,-5.474841600516811e-05,2.951697024400346e-05,3.5064833355136216e-05,-1.6866957594174892e-05,5.859235898242332e-05
2.2015472495695576e-05,-5.602789678960107e-05,2.996490366058424e-05,3.050997474929318e-05,-1.9695171431521885e-05,5.8276538766222075e-05
2.0404953829711303e-05,-5.671896360581741e-05,3.074398046010174e-05,2.9636446924996562e-05,-2.083848994516302e-05,5.852595131727867e-05
2.226218748546671e-05,-5.6741257139947265e-05,3.420263601583429e-05,3.205479879397899e-05,-2.280104126839433e-05,5.8649955462897196e-05
2.3516256987932138e-05,-5.479367609950714e-05,3.3452724892413244e-05,3.29819304170087e-05,-2.457600385241676e-05,5.406127093010582e-05
2.052385752904229e-05,-4.9865593609865755e-05,3.201512299710885e-05,2.5842666218522936e-05,-2.4666625904501416e-05,4.553580947685987e-05
1.4363873560796492e-05,-4.817237640963867e-05,3.291161556262523e-05,2.0884097466478124e-05,-2.8023370759910904e-05,4.334301775088534e-05
1.2263310054549947e-05,-5.124484596308321e-05,3.433229721849784e-05,2.2301837816485204e-05,-3.1839812436373904e-05,5.331437932909466e-05
1.6862311895238236e-05,-5.263051934889518e-05,3.5997192753711715e-05,2.759464223345276e-05,-2.958818367915228e-05,6.106691580498591e-05
2.2733329387847334e-05,-5.174940815777518e-05,3.8505026168422773e-05,3.3766962587833405e-05,-2.403153121122159e-05,5.9974587202304974e-05
2.467622107360512e-05,-5.15428364451509e-05,3.892037057084963e-05,3.374962034286e-05,-2.5413337425561622e-05,5.682189657818526e-05
2.1738180294050835e-05,-5.4166102927410975e-05,3.7697616789955646e-05,3.178008773829788e-05,-3.456851845839992e-05,5.812363451696001e-05
1.7579470295459032e-05,-5.6247114116558805e-05,3.710083547048271e-05,3.084543641307391e-05,-4.569775774143636e-05,6.049035073374398e-05
1.5153705135162454e-05,-5.467829396366142e-05,3.761001426028088e-05,3.052867032238282e-05,-5.306719322106801e-05,6.358596147038043e-05
1.566264108987525e-05,-5.2017920097569004e-05,3.8507838326040655e-05,3.089583697146736e-05,-5.4838888900121674e-05,6.713564653182402e-05
1.8036560504697263e-05,-5.081314156996086e-05,3.7913385313004255e-05,3.0913794034859166e-05,-5.4119343985803425e-05,6.55044786981307e-05
1.892905311251525e-05,-5.105389209347777e-05,3.700550223584287e-05,2.918645623140037e-05,-5.4822961828904226e-05,6.387139001162723e-05
1.5998810340533964e-05,-4.948741479893215e-05,3.600744821596891e-05,2.549854434619192e-05,-5.827141285408288e-05,6.796858360758051e-05
1.3870901057089213e-05,-4.61260206066072e-05,3.427417323109694e-05,2.0994159058318473e-05,-5.7543886214261875e-05,7.377318979706615e-05
1.705215618130751e-05,-4.377531513455324e-05,3.1774463423062116e-05,1.8193393771070987e-05,-4.627802991308272e-05,7.776821439620107e-05
2.374609721300658e-05,-4.4571192120201886e-05,3.0800300010014325e-05,1.7204161849804223e-05,-2.4464681700919755e-05,7.972231833264232e-05
2.702845449675806e-05,-4.8024918214650825e-05,3.1768748158356175e-05,1.8481450752005912e-05,2.7678015612764284e-06,7.749378710286692e-05
2.47867083089659e-05,-4.998653821530752e-05,3.131330231553875e-05,2.4407940145465545e-05,3.059523078263737e-05,7.276254473254085e-05
2.2735663151252083e-05,-4.8832323955139145e-05,2.929740549006965e-05,3.181129795848392e-05,5.664847049047239e-05,6.939312152098864e-05
2.2463465938926674e-05,-4.830193574889563e-05,2.9123670174158178e-05,3.2678239222150296e-05,7.925642421469092e-05,6.617078179260716e-05
2.2371765226125717e-05,-5.09619785589166e-05,2.8959968403796665e-05,2.623543332447298e-05,9.168800170300528e-05,5.983965820632875e-05
2.3831971702747978e-05,-5.213131589698605e-05,2.6807816539076157e-05,1.6999145373119973e-05,9.088027582038194e-05,5.57898820261471e-05
2.72731213044608e-05,-4.975760748493485e-05,2.3289805540116504e-05,8.415385309490375e-06,7.838520832592621e-05,6.08192385698203e-05
3.0898008844815195e-05,-4.8358982894569635e-05,2.1192709027673118e-05,4.941597580909729e-06,6.102740007918328e-05,6.767057493561879e-05
3.3995489502558485e-05,-4.8953988880384713e-05,2.235974170616828e-05,6.6682323449640535e-06,4.4935291953152046e-05,7.011591515038162e-05
3.588221443351358e-05,-4.876903403783217e-05,2.375201802351512e-05,8.770519343670458e-06,3.019554787897505e-05,6.818859401391819e-05
3.595615635276772e-05,-4.694389645010233e-05,2.5011744583025575e-05,1.1239902960369363e-05,1.9511264326865785e-05,6.389804184436798e-05
3.482137981336564e-05,-4.40990443166811e-05,2.207733632531017e-05,1.1751045349228662e-05,1.1323856597300619e-05,6.05624882155098e-05
3.5493081668391824e-05,-4.2712566937552765e-05,2.2447384253609926e-05,9.671709449321497e-06,2.219474481535144e-06,5.7896340877050534e-05
3.6862154956907034e-05,-4.316172999097034e-05,2.730235064518638e-05,9.099473572860006e-06,-7.035778708086582e-06,5.825873085996136e-05
3.4032989788101986e-05,-4.426902160048485e-05,2.9115111829014495e-05,1.1697354239004198e-05,-1.4554216249962337e-05,6.130477413535118e-05
2.8203667170600966e-05,-4.6727534936508164e-05,2.835057421179954e-05,1.1153405466757249e-05,-1.9376788259251043e-05,5.9262521972414106e-05
2.425611273793038e-05,-4.6317236410686746e-05,2.596996091597248e-05,7.014811217231909e-06,-2.307995418959763e-05,5.80514533794485e-05
2.3944136046338826e-05,-4.386364889796823e-05,2.6876048650592566e-05,4.0715844988881145e-06,-2.7301188310957514e-05,5.987997064949013e-05
2.4745955670368858e-05,-4.150809400016442e-05,2.823792237904854e-05,6.393589956132928e-06,-3.1028877856442705e-05,5.7585864851716906e-05
2.5926452508429065e-05,-3.9196598663693294e-05,2.933427458629012e-05,1.544956467114389e-05,-3.263701364630833e-05,5.30179422639776e-05
2.7557822249946184e-05,-4.044912930112332e-05,2.9634791644639336e-05,2.584548929007724e-05,-3.0464667361229658e-05,5.020466051064432e-05
2.997749106725678e-05,-4.1227580368286e-05,3.074633423238993e-05,3.539784302120097e-05,-2.820103691192344e-05,5.3179741371423006e-05
3.290746462880634e-05,-3.9971044316189364e-05,3.135450242552906e-05,5.191186210140586e-05,-2.817450149450451e-05,5.8533161791274324e-05
3.399087654543109e-05,-3.885477053700015e-05,3.319758616271429e-05,7.955607725307345e-05,-2.920557562902104e-05,6.260172085603699e-05
3.252398892072961e-05,-4.1193346987711266e-05,3.6198311136104167e-05,0.0001055048851412721,-3.0079574571573175e-05,6.363511056406423e-05
3.051719795621466e-05,-4.5359709474723786e-05,3.6046665627509356e-05,0.00011530308256624267,-2.8250096875126474e-05,6.240601214813069e-05
2.9176453608670272e-05,-4.74321968795266e-05,3.408753400435671e-05,0.00010515623580431566,-2.342500738450326e-05,5.809128197142854e-05
2.7954030883847736e-05,-4.725077815237455e-05,3.439872307353653e-05,8.217104914365336e-05,-1.8120896129403263e-05,5.160904038348235e-05
2.462029988237191e-05,-4.825011274078861e-05,3.654941247077659e-05,5.861899990122765e-05,-1.504654937889427e-05,4.823879135074094e-05
1.9210872778785415e-05,-5.079404581920244e-05,3.774339711526409e-05,4.722096127807163e-05,-1.468063874199288e-05,4.960777368978597e-05
1.5073301256052218e-05,-5.303576108417474e-05,3.972966078436002e-05,4.6867786295479164e-05,-1.6360123481717892e-05,5.350997162167914e-05
1.3155995475244708e-05,-5.464170317281969e-05,3.892088352586143e-05,4.6195113100111485e-05,-1.889548912004102e-05,5.441020039143041e-05
1.0194650712946896e-05,-5.300686461851001e-05,3.5854463931173086e-05,3.8906011468498036e-05,-1.8828273823601194e-05,4.922151128994301e-05
5.717143721994944e-06,-5.075261287856847e-05,3.1650139135308564e-05,3.119396205875091e-05,-1.5102971701708157e-05,4.662455467041582e-05
4.4341495595290326e-06,-5.1271566917421296e-05,2.927837886090856e-05,2.782705269055441e-05,-1.2597840395756066e-05,5.4439038649434224e-05
8.98880807653768e-06,-5.550405694521032e-05,3.0070026696193963e-05,2.5399394871783443e-05,-1.3519457752408925e-05,6.30603390163742e-05
1.553175570734311e-05,-5.595181937678717e-05,3.1203639082377777e-05,1.8671018551685847e-05,-1.0809554623847362e-05,6.206069519976154e-05
1.5443625670741312e-05,-5.050309846410528e-05,3.0121671443339437e-05,4.328151135268854e-06,-3.090936388616683e-06,6.089648013585247e-05
1.5635017916793004e-05,-4.739701034850441e-05,2.9990611437824555e-05,-7.803761945979204e-06,-9.313308737546322e-07,6.454397225752473e-05
1.87470704986481e-05,-4.868200630880892e-05,3.368836405570619e-05,-3.4283261811651755e-06,-2.197856019847677e-06,6.884208414703608e-05
1.9617766156443395e-05,-5.232813418842852e-05,3.730117532541044e-05,1.3516773833543994e-05,-3.5482048588164616e-06,7.287962944246829e-05
1.8933420506073162e-05,-5.265084109851159e-05,3.8676324038533494e-05,2.726586717471946e-05,-4.895648544334108e-06,7.043572259135544e-05
1.6524149032193236e-05,-5.268472887109965e-05,3.853607995552011e-05,3.0655908631160855e-05,-6.752446097380016e-06,6.577717431355268e-05
1.2333718586887699e-05,-5.448302545119077e-05,3.9679896872257814e-05,2.6130575861316174e-05,-1.050436549121514e-05,6.263516843318939e-05
7.730534889560658e-06,-5.622235403279774e-05,4.161831384408288e-05,2.0179299099254422e-05,-1.298141523875529e-05,6.0941718402318656e-05
7.5607895269058645e-06,-5.7395493058720604e-05,4.224664007779211e-05,2.1701174773625098e-05,-1.5366498701041564e-05,5.959600457572378e-05
1.0241870768368244e-05,-5.512421557796188e-05,4.291456571081653e-05,2.9473163522197865e-05,-1.647933095227927e-05,5.730036355089396e-05
1.2642424735531677e-05,-5.2359941037138924e-05,4.051813084515743e-05,3.321985059301369e-05,-1.744541441439651e-05,5.2039933507330716e-05
1.4216669114830438e-05,-5.291823254083283e-05,3.522449333104305e-05,3.164977897540666e-05,-2.2498914404422976e-05,4.6926612412789837e-05
1.5414880181197077e-05,-5.6555847550043836e-05,3.054578701267019e-05,2.9559041649918072e-05,-3.220937287551351e-05,4.510792132350616e-05
1.728979987092316e-05,-5.923123171669431e-05,3.0126877391012385e-05,2.825562478392385e-05,-4.3575611925916746e-05,4.879494008491747e-05
1.9542232621461153e-05,-5.783288361271843e-05,3.2862120860954747e-05,2.4712573576834984e-05,-5.2401657740119845e-05,5.573266025749035e-05
1.8915307009592652e-05,-5.2531737310346216e-05,3.395746898604557e-05,2.0568264517351054e-05,-5.5903255997691303e-05,5.9279183915350586e-05
1.65352103067562e-05,-5.111102291266434e-05,3.2040119549492374e-05,1.9743705706787296e-05,-5.332840737537481e-05,5.6781347666401416e-05
1.4774754163227044e-05,-5.556973337661475e-05,2.877328915928956e-05,2.107838008669205e-05,-4.611459735315293e-05,5.027141378377564e-05
1.3875151125830598e-05,-5.758514816989191e-05,2.5021585315698758e-05,1.8915934560936876e-05,-3.85751663998235e-05,4.481093128561042e-05
1.4282080883276649e-05,-5.3590163588523865e-05,2.1464300516527146e-05,1.0834742170118261e-05,-3.093367558903992e-05,4.1889772546710446e-05
1.5061065823829267e-05,-5.082208008388989e-05,2.0015004338347353e-05,5.138608230481623e-06,-2.0560171833494678e-05,4.0724509744904935e-05
1.5415012967423536e-05,-5.162299203220755e-05,2.098254299198743e-05,9.667800441093277e-06,-8.593190614192281e-06,4.037129110656679e-05
1.7053191186278127e-05,-5.3826010116608813e-05,2.5177394491038285e-05,1.7082409613067284e-05,2.3496813810197636e-06,4.195347719360143e-05
2.05811138584977e-05,-5.764546585851349e-05,3.1590381695423275e-05,2.398231481492985e-05,1.1237688340770546e-05,4.4864867959404364e-05
2.384284198342357e-05,-5.751319622504525e-05,3.4831267839763314e-05,3.659519643406384e-05,1.85421304195188e-05,5.282981874188408e-05
2.6948533559334464e-05,-5.326488462742418e-05,3.560734694474377e-05,4.531420927378349e-05,2.5260791517212056e-05,6.132363341748714e-05
2.7396446967031807e-05,-4.795935092261061e-05,3.7332352803787217e-05,3.843937156489119e-05,2.921720988524612e-05,6.502446194645017e-05
2.6191581127932295e-05,-4.5429074816638604e-05,3.6100893339607865e-05,2.9070813980069943e-05,2.781936746032443e-05,6.216624024091288e-05
2.4349752493435517e-05,-4.9084745114669204e-05,3.3684391382848844e-05,2.5471979824942537e-05,2.3347893147729337e-05,5.2975021390011534e-05
1.8471129806130193e-05,-5.271780537441373e-05,2.9735649150097743e-05,2.458177914377302e-05,1.7291038602706976e-05,5.072802377981134e-05
1.3040451449342072e-05,-5.5959495512070134e-05,2.7144562409375794e-05,2.799101457640063e-05,1.0430342626932543e-05,5.6789445807226e-05
1.576120666868519e-05,-5.574001625063829e-05,2.7143838451593183e-05,3.230633956263773e-05,4.8657711886335164e-06,6.122761260485277e-05
2.2368181817000732e-05,-5.410040830611251e-05,2.6274356059730053e-05,3.600426862249151e-05,-1.2980326573597267e-06,6.0426475101849064e-05
2.486472476448398e-05,-5.210570088820532e-05,2.6212459488306195e-05,3.697760257637128e-05,-1.0254669177811593e-05,5.848201544722542e-05
2.4368368030991405e-05,-4.7924284444889054e-05,2.862467590603046e-05,3.70783636753913e-05,-1.584791789355222e-05,6.227545236470178e-05
2.0721141481772065e-05,-4.773469845531508e-05,3.225390537409112e-05,3.8666803447995335e-05,-1.72981817740947e-05,6.794847286073491e-05
1.8319235095987096e-05,-4.974411058356054e-05,3.270403612987138e-05,3.999193722847849e-05,-1.8029675629804842e-05,7.320787699427456e-05
2.0970717741874978e-05,-4.976536365575157e-05,2.9410359275061637e-05,3.739917519851588e-05,-1.8453576558385976e-05,7.548452413175255e-05
2.519355075492058e-05,-4.742334931506775e-05,2.834911174431909e-05,2.922149360529147e-05,-1.640543996472843e-05,7.273917435668409e-05
2.7137266442878172e-05,-4.7049590648384765e-05,3.068658406846225e-05,1.9219343812437728e-05,-1.1085016922152136e-05,6.430871144402772e-05
2.578741987235844e-05,-4.615280340658501e-05,3.226716216886416e-05,1.516488646302605e-05,-4.97256223752629e-06,5.757329927291721e-05
2.502970710338559e-05,-4.37272792623844e-05,3.00114625133574e-05,2.547543954278808e-05,-2.2008124744843371e-07,5.918187162023969e-05
2.4182927518268116e-05,-4.3005213228752837e-05,2.46103427343769e-05,4.636315497918986e-05,2.0876063899777364e-06,6.686219421681017e-05
2.252951708214823e-05,-4.6577351895393804e-05,1.9562650777515955e-05,6.119108729762957e-05,4.0902932596509345e-06,7.034719601506367e-05
2.348635644011665e-05,-5.030573083786294e-05,1.870848791440949e-05,5.9312747907824814e-05,6.983464118093252e-06,6.660788494627923e-05
2.8699436370516196e-05,-4.959701982443221e-05,2.2278307369560935e-05,4.877317769569345e-05,8.883611371857114e-06,6.233937165234238e-05
3.42311650456395e-05,-4.510704457061365e-05,2.6273171897628345e-05,4.0762301068753004e-05,8.22117453935789e-06,5.898017843719572e-05
3.572187415556982e-05,-4.09998137911316e-05,2.6843697924050502e-05,3.7364865420386195e-05,6.332530119834701e-06,5.744795998907648e-05
3.153277066303417e-05,-4.0308161260327324e-05,2.339701313758269e-05,3.3633692510193214e-05,1.0743129905677051e-06,5.8068464568350464e-05
2.764590499282349e-05,-4.1165254515362903e-05,2.1400828700279817e-05,2.6936764697893523e-05,-5.041889380663633e-06,5.7509347243467346e-05
2.9819724659319036e-05,-4.253227962180972e-05,2.307759496034123e-05,2.1061377992737107e-05,-6.98864914738806e-06,5.4013693443266675e-05
3.301508695585653e-05,-4.3359344999771565e-05,2.4494040189892985e-05,1.7941792975761928e-05,-6.537221906910418e-06,5.469681491376832e-05
3.124374779872596e-05,-4.326898488216102e-05,2.3890424927230924e-05,1.2985624380235095e-05,-7.491494216083083e-06,5.4413543693954125e-05
2.6553956558927894e-05,-4.389994137454778e-05,2.6085986974067055e-05,9.642738405091222e-06,-1.2508619875006843e-05,4.6282013499876484e-05
2.33860919252038e-05,-4.349829032435082e-05,2.9927325158496387e-05,1.2023620911350008e-05,-1.635390071896836e-05,4.006839662906714e-05
2.2547652406501584e-05,-4.262558650225401e-05,3.351493796799332e-05,1.7446714991820045e-05,-1.9599956431193277e-05,4.217273817630485e-05
2.2498714315588586e-05,-4.5504479203373194e-05,3.276957431808114e-05,2.194324042648077e-05,-2.4239341655629687e-05,4.6909750381018966e-05
2.1747348000644706e-05,-5.125659299665131e-05,2.8968581318622455e-05,2.2517375327879563e-05,-2.6591882487991825e-05,4.5407130528474227e-05
2.0712954210466705e-05,-5.674665590049699e-05,3.005051075888332e-05,2.0360652342787944e-05,-2.5942519641830586e-05,3.610772546380758e-05
2.0904515622532926e-05,-5.955054075457156e-05,3.195360841345973e-05,1.7935128198587336e-05,-2.3346347006736323e-05,2.952346039819531e-05
2.1212770661804825e-05,-5.819587022415362e-05,3.2410349376732484e-05,1.7275644495384768e-05,-2.076519922411535e-05,2.942288301710505e-05
2.1091444068588316e-05,-5.547090040636249e-05,3.196883699274622e-05,1.7889778973767534e-05,-1.8240674762637354e-05,3.3629014069447294e-05
2.1966194253764115e-05,-5.362597948987968e-05,3.15283723466564e-05,1.7591171854292043e-05,-2.018491068156436e-05,3.448853749432601e-05
2.2129452190711163e-05,-5.0599348469404504e-05,3.0108794817351736e-05,1.250655077456031e-05,-2.243369999632705e-05,3.203414598829113e-05
2.010620664805174e-05,-4.732188972411677e-05,2.8997621484450065e-05,8.293879545817617e-06,-1.920338036143221e-05,3.0876428354531527e-05
1.651137790759094e-05,-4.575798084260896e-05,2.970626883325167e-05,1.2887159755337052e-05,-1.3984510587761179e-05,3.393644146854058e-05
1.5643219740013592e-05,-4.574004196911119e-05,3.274511618656106e-05,2.797606612148229e-05,-1.253185655514244e-05,3.8597579987253994e-05
1.9160870579071343e-05,-4.514837564784102e-05,3.6838860978605226e-05,4.758213253808208e-05,-1.462272757635219e-05,4.014251317130402e-05
2.4532208044547588e-05,-4.488477497943677e-05,3.7265494029270485e-05,5.9561662055784836e-05,-1.606455771252513e-05,4.224728400004096e-05
2.946257882285863e-05,-4.545570845948532e-05,3.3408054150640965e-05,5.768599294242449e-05,-1.2896311091026291e-05,4.887631075689569e-05
3.0812519980827346e-05,-4.8831923777470365e-05,3.014407957380172e-05,4.777968570124358e-05,-7.656943125766702e-06,5.666839933837764e-05
2.7875323212356307e-05,-5.3987059800419956e-05,3.213914533262141e-05,3.95379975088872e-05,-6.7953492361993995e-06,6.35730757494457e-05
2.410592423984781e-05,-5.624653203994967e-05,3.507316796458326e-05,3.242737511754967e-05,-1.0258027032250538e-05,7.045720849419013e-05
2.3064920242177323e-05,-5.2662380767287686e-05,3.504522464936599e-05,2.433058944006916e-05,-1.258296106243506e-05,7.504790846724063e-05
2.30553159781266e-05,-4.6359582484001294e-05,3.1665924325352535e-05,2.0051827959832735e-05,-8.516303751093801e-06,7.612277840962633e-05
2.254424362035934e-05,-4.384199928608723e-05,2.9141308914404362e-05,2.207889519922901e-05,-5.036852599005215e-06,7.233308133436367e-05
2.4692268198123202e-05,-4.679929043049924e-05,2.912053605541587e-05,2.3064541892381385e-05,-4.155627266300144e-06,6.935613055247813e-05
2.7715008400264196e-05,-5.0030696002068e-05,3.0471122954622842e-05,1.9175582565367222e-05,-6.254158961382927e-06,6.888834468554705e-05
2.788206620607525e-05,-4.810147947864607e-05,3.197140904376283e-05,1.5983652701834217e-05,-1.529170731373597e-05,7.468737749150023e-05
2.628918082336895e-05,-4.4185904698679224e-05,3.2763477065600455e-05,1.7473650586907752e-05,-2.524882620491553e-05,8.497936505591497e-05
2.523181501601357e-05,-4.4366046495269984e-05,2.9849943530280143e-05,2.0933128325850703e-05,-3.266845305915922e-05,8.786704711383209e-05
2.7068645067629404e-05,-4.820986941922456e-05,2.7559750378713943e-05,2.188709368056152e-05,-3.676414780784398e-05,8.435746713075787e-05
2.9953707780805416e-05,-4.998393342248164e-05,3.1348656193586066e-05,1.9080369384028018e-05,-3.400059722480364e-05,7.784882473060861e-05
2.896467412938364e-05,-5.0210866902489215e-05,3.5896831832360476e-05,1.7421358279534616e-05,-2.6734343919088133e-05,6.933086115168408e-05
2.6393021471449174e-05,-5.361365765566006e-05,3.7477908335858956e-05,2.1507830751943402e-05,-1.5444931705133058e-05,6.47940905764699e-05
2.5317511244793423e-05,-5.6657605455257e-05,3.7747489841422066e-05,3.719743835972622e-05,-3.7801185044372687e-06,6.923276669112965e-05
2.4954413675004616e-05,-5.676021100953221e-05,3.784014188568108e-05,6.247190322028473e-05,5.731924375140807e-06,7.430504047079012e-05
2.5036964871105738e-05,-5.402033275458962e-05,3.595109228626825e-05,7.826235378161073e-05,1.5284564142348245e-05,7.247226312756538e-05
2.6215964680886827e-05,-5.108168625156395e-05,3.6087083572056144e-05,7.526823901571333e-05,2.2098074623499997e-05,6.789998587919399e-05
2.7866401069331914e-05,-5.1230690587544814e-05,3.794520307565108e-05,5.946326200501062e-05,2.4052966182352975e-05,6.364910950651392e-05
2.818038956320379e-05,-5.270300243864767e-05,4.101157173863612e-05,4.380386235425249e-05,2.376754673605319e-05,6.345065776258707e-05
2.699409560591448e-05,-5.555422103498131e-05,4.366234497865662e-05,3.6191759136272594e-05,2.150185900973156e-05,6.098710946389474e-05
2.489621147105936e-05,-5.665635035256855e-05,4.515618638833985e-05,3.3601794712012634e-05,1.4888792065903544e-05,5.391780359786935e-05
2.201354618591722e-05,-5.7086519518634304e-05,4.384260319056921e-05,2.929920083261095e-05,8.06452317192452e-06,4.84168813272845e-05
1.9325238099554554e-05,-5.653353946399875e-05,4.001635534223169e-05,2.0092313206987455e-05,5.5925556807778776e-06,4.9178936023963615e-05
1.87897003343096e-05,-5.442680048872717e-05,3.557766831363551e-05,1.0250452760374174e-05,5.834482180944178e-06,5.081914787297137e-05
2.04407078854274e-05,-5.08629200339783e-05,3.222842497052625e-05,6.436855983338319e-06,5.341054475138662e-06,4.913035445497371e-05
2.2234753487282433e-05,-4.621364496415481e-05,3.2549323805142194e-05,1.0923668924078811e-05,5.188340310269268e-06,4.857388557866216e-05
2.3300319298869e-05,-4.365175846032798e-05,3.477654900052585e-05,2.232486440334469e-05,2.4062271677394165e-06,5.2600451454054564e-05
2.2995154722593725e-05,-4.5811575546395034e-05,3.592918801587075e-05,3.6750036088051274e-05,-4.95436643177527e-06,5.8293499023420736e-05
1.971847450477071e-05,-5.1424180128378794e-05,3.558967728167772e-05,4.63800533907488e-05,-1.3049641893303487e-05,6.1418664699886e-05
1.5947183783282526e-05,-5.522655919776298e-05,3.545091749401763e-05,4.687676118919626e-05,-1.8743008695309982e-05,6.15025419392623e-05
1.4605213436880149e-05,-5.501879786606878e-05,3.267659485572949e-05,4.0620383515488356e-05,-1.853051253419835e-05,5.762090586358681e-05
1.5636225725756958e-05,-5.381648588809185e-05,2.887101800297387e-05,3.406476753298193e-05,-1.7014535842463374e-05,5.203709224588238e-05
1.769574373611249e-05,-5.2408926421776414e-05,2.8802533051930368e-05,3.065462442464195e-05,-1.688604061200749e-05,4.849553442909382e-05
1.8353593986830674e-05,-5.04945928696543e-05,3.1071420380612835e-05,2.987937295984011e-05,-1.397764208377339e-05,4.77034664072562e-05
1.6061811038525775e-05,-4.774329863721505e-05,2.9475702831405215e-05,2.6752657504403032e-05,-1.2017027074762154e-05,5.3566673159366474e-05
1.151690594269894e-05,-4.152615656494163e-05,2.667875014594756e-05,2.3695012714597397e-05,-1.4155863027554005e-05,6.775659130653366e-05
8.76943795447005e-06,-3.853735324810259e-05,2.6385752789792605e-05,2.173429493268486e-05,-1.715771395538468e-05,7.525473483838141e-05
1.1169842764502391e-05,-4.033865116070956e-05,2.610029150673654e-05,1.650587364565581e-05,-1.7868243958218955e-05,7.498986087739468e-05
1.5083939615578856e-05,-4.479976632865146e-05,2.4157579900929704e-05,1.4268115592130926e-05,-1.897691618069075e-05,7.37795780878514e-05
1.8367665688856505e-05,-5.031563705415465e-05,2.27985128731234e-05,1.87971381819807e-05,-1.7502799892099574e-05,7.735713734291494e-05
1.9761275325436145e-05,-5.427640280686319e-05,2.4072809537756257e-05,2.352888259338215e-05,-1.2260140465514269e-05,8.220488234655932e-05
1.927462471940089e-05,-5.513957512448542e-05,2.684069113456644e-05,2.2040003386791795e-05,-9.715147825772874e-06,7.943751552375033e-05
1.9376138880033977e-05,-5.196862548473291e-05,2.7740050427382812e-05,2.019501698669046e-05,-8.75024215929443e-06,7.447823008988053e-05
2.007122566283215e-05,-4.8812911700224504e-05,2.9083315894240513e-05,2.0036282876390032e-05,-9.797308848646935e-06,7.21547330613248e-05
2.071646486001555e-05,-4.587516377796419e-05,3.1499239412369207e-05,2.107786713168025e-05,-1.2927423995279241e-05,7.109856233000755e-05
1.8797361917677335e-05,-4.296879706089385e-05,3.1844003387959674e-05,2.1544325136346743e-05,-1.578469164087437e-05,7.169998571043834e-05
1.7735830624587834e-05,-4.1097940993495286e-05,3.1705225410405546e-05,2.1051517251180485e-05,-1.708815216261428e-05,7.294979150174186e-05
1.965248884516768e-05,-4.14085625379812e-05,3.272947287769057e-05,2.315326128154993e-05,-1.9429329768172465e-05,7.101127994246781e-05
2.0763647626154125e-05,-4.485162571654655e-05,3.1740866688778624e-05,2.719449912547134e-05,-2.203187978011556e-05,6.741435208823532e-05
2.0853462046943605e-05,-4.9602389481151477e-05,2.906085501308553e-05,3.115704748779535e-05,-2.2043152057449333e-05,6.525379285449162e-05
1.9760720533668064e-05,-5.177564162295312e-05,2.7127209250465967e-05,3.2944033591775224e-05,-1.9268092728452757e-05,6.6349733970128e-05
1.8221524442196824e-05,-5.1140807045158e-05,2.6801777494256385e-05,3.657482739072293e-05,-1.6436601072200574e-05,6.647504051215947e-05
1.9219569367123768e-05,-5.156000406714156e-05,2.9282371542649344e-05,4.798134250449948e-05,-1.602421616553329e-05,6.184058293001726e-05
2.181091440434102e-05,-5.323182631400414e-05,3.136916711810045e-05,6.477203714894131e-05,-1.9898852769983932e-05,5.66122071177233e-05
2.2486421585199423e-05,-5.265339859761298e-05,3.291886969236657e-05,7.769680087221786e-05,-2.6423302188050002e-05,5.76529600948561e-05
2.377455348323565e-05,-4.9382008000975475e-05,3.594090594560839e-05,8.073407661868259e-05,-2.809771649481263e-05,6.308924639597535e-05
2.5999921490438282e-05,-4.6442717575700954e-05,3.6765344702871516e-05,6.972800474613905e-05,-2.391326052020304e-05,6.756161747034639e-05
2.362353916396387e-05,-4.483811790123582e-05,3.268554792157374e-05,4.913278462481685e-05,-2.007613511523232e-05,6.862825102871284e-05
1.7539305190439336e-05,-4.583114423439838e-05,2.5362163796671666e-05,3.132222263957374e-05,-1.656800668570213e-05,6.516458961414173e-05
1.6328585843439214e-05,-4.779720984515734e-05,2.1298104911693372e-05,2.5628665753174573e-05,-1.35886984935496e-05,6.0811587900388986e-05
1.6114849131554365e-05,-4.725689723272808e-05,2.445255813654512e-05,2.7705767934094183e-05,-1.3199266504670959e-05,5.8472654927754775e-05
1.424771107849665e-05,-4.334580808063038e-05,2.7362320906831883e-05,2.8308317268965766e-05,-1.2068157047906425e-05,5.4615789849776775e-05
1.4587255463993642e-05,-3.834060044027865e-05,2.7663903892971575e-05,2.6097266527358443e-05,-9.798473001865204e-06,4.782231917488389e-05
1.7632375602261163e-05,-3.869594365824014e-05,2.824600051098969e-05,2.0382394723128527e-05,-7.68400241213385e-06,4.304475078242831e-05
2.1136193026904948e-05,-4.237341636326164e-05,2.9266773708513938e-05,1.4945389011700172e-05,-7.007872227404732e-06,4.352165342424996e-05
1.7915685020852834e-05,-4.4148251618025824e-05,2.8603337341337465e-05,1.6407864677603357e-05,-6.2937028815213125e-06,4.859959153691307e-05
1.4917251064616721e-05,-4.7285633627325296e-05,2.487078199919779e-05,2.0368835976114497e-05,-5.007203981222119e-06,5.1690007239812985e-05
1.724271169223357e-05,-4.6962777560111135e-05,2.2385656848200597e-05,2.425760612823069e-05,-4.596743110596435e-06,5.197714199312031e-05
2.209269405284431e-05,-4.42994169134181e-05,2.5430199457332492e-05,2.734146073635202e-05,-5.93701952311676e-06,5.118914123158902e-05
2.2109630663180724e-05,-4.559586159302853e-05,2.9126642402843572e-05,2.7362122636986896e-05,-6.142184247437399e-06,5.0137499783886597e-05
1.7691432731226087e-05,-5.021595279686153e-05,2.9285634809639305e-05,2.6410829377709888e-05,-7.683900548727252e-06,4.807021832675673e-05
1.498146139056189e-05,-5.309934203978628e-05,2.7031797799281776e-05,2.3853848688304424e-05,-1.0144917723664548e-05,4.7222791181411594e-05
1.6933063307078555e-05,-5.1464408898027614e-05,2.78837833320722e-05,1.864916157501284e-05,-1.2735084965243004e-05,5.1111113862134516e-05
2.0817285985685885e-05,-4.918174454360269e-05,3.0397070077015087e-05,1.174218505184399e-05,-1.617577436263673e-05,5.4179989092517644e-05
2.062576822936535e-05,-4.877878018305637e-05,3.2392974389949813e-05,7.760204425721895e-06,-2.2948657715460286e-05,5.38357999175787e-05
1.8467580957803875e-05,-5.043223063694313e-05,3.245956759201363e-05,1.046523448167136e-05,-3.207364716217853e-05,5.201932799536735e-05
1.7807033145800233e-05,-5.178237915970385e-05,3.2145220757229254e-05,1.680212517385371e-05,-4.074832395417616e-05,5.049227183917537e-05
1.863565921667032e-05,-5.0545706471893936e-05,3.2847063266672194e-05,1.925817377923522e-05,-4.851538687944412e-05,4.933884702040814e-05
1.827991582104005e-05,-4.8303318180842325e-05,3.375782034709118e-05,1.899419294204563e-05,-5.254054121905938e-05,5.273615170153789e-05
1.712645280349534e-05,-4.987379361409694e-05,3.566714076441713e-05,1.938913374033291e-05,-5.179662912269123e-05,5.743949441239238e-05
1.637758941797074e-05,-5.316128590493463e-05,3.7321959098335356e-05,1.8063641618937254e-05,-4.562270987662487e-05,5.818879799335264e-05
1.785141103027854e-05,-5.5049040383892134e-05,3.717354411492124e-05,1.609799983270932e-05,-3.137219391646795e-05,5.773334123659879e-05
1.9898623577319086e-05,-5.5014315876178443e-05,3.3813572372309864e-05,1.6955953469732776e-05,-9.780098480405286e-06,5.652953404933214e-05
1.959296059794724e-05,-5.113739462103695e-05,3.062515679630451e-05,1.871344466053415e-05,1.202978819492273e-05,5.4748034017393366e-05
1.7820833818404935e-05,-4.65420562250074e-05,2.943067556770984e-05,2.1462803488248028e-05,3.234484029235318e-05,5.727809184463695e-05
1.7849637515610084e-05,-4.578976222546771e-05,2.8171372832730412e-05,2.493656393198762e-05,4.9906659114640206e-05,6.082298932597041e-05
1.8674521925277077e-05,-4.8543955927016214e-05,2.765871977317147e-05,2.5932255084626377e-05,6.134810246294364e-05,6.124910578364506e-05
2.1044583263574168e-05,-5.125009920448065e-05,2.8772356017725542e-05,2.172776839870494e-05,5.831627277075313e-05,6.0063273849664256e-05
2.373578718106728e-05,-4.959316356689669e-05,2.9580325644928962e-05,1.909853017423302e-05,4.165087011642754e-05,5.6678512919461355e-05
2.3916521968203597e-05,-4.827075463254005e-05,3.184880915796384e-05,2.293902616656851e-05,1.667809920036234e-05,5.415138366515748e-05
2.3215068722493015e-05,-4.840521069127135e-05,3.276273491792381e-05,2.6955725843436085e-05,-6.5513449953868985e-06,5.284938742988743e-05
2.3671937015024014e-05,-5.147145566297695e-05,3.4033640986308455e-05,3.1832507374929264e-05,-2.1162919438211247e-05,5.3165982535574585e-05
2.3160864657256752e-05,-5.666548531735316e-05,3.075271888519637e-05,3.7415378756122664e-05,-2.890324503823649e-05,5.350126957637258e-05
2.2409018129110336e-05,-5.894427886232734e-05,2.7559239242691547e-05,4.016320235677995e-05,-3.339232716825791e-05,5.474209683598019e-05
2.261182089569047e-05,-6.0226542700547725e-05,3.0370720196515322e-05,3.8045294786570594e-05,-3.8161753764143214e-05,5.470196992973797e-05
2.1050705981906503e-05,-5.84008485020604e-05,3.349511825945228e-05,3.0665414669783786e-05,-4.5394986955216154e-05,5.0621438276721165e-05
1.745692134136334e-05,-5.360947398003191e-05,3.64558509318158e-05,1.7241743989870884e-05,-4.86200769955758e-05,4.695363895734772e-05
1.6372889149351977e-05,-4.851313860854134e-05,3.9681646740064025e-05,3.587118499126518e-06,-4.0106977394316345e-05,4.329086368670687e-05
2.2331674699671566e-05,-4.59975162812043e-05,3.993820064351894e-05,-4.435460141394287e-06,-2.753788976406213e-05,3.808215478784405e-05
2.848087933671195e-05,-4.732392335426994e-05,3.6922083381796256e-05,-5.110109668748919e-06,-1.7921118342201225e-05,3.363051655469462e-05
3.091183680226095e-05,-4.9053047405323014e-05,3.5879271308658645e-05,1.993769046748639e-06,-1.1256383004365489e-05,3.586383900255896e-05
3.073597690672614e-05,-4.9965379730565473e-05,3.59556324838195e-05,1.1163068847963586e-05,-1.0201875966231455e-06,4.2651823605410755e-05
2.946481436083559e-05,-5.08604061906226e-05,3.816576281678863e-05,1.682289075688459e-05,1.2056842024321668e-05,4.9327569286106154e-05
2.9380980777204968e-05,-4.838185850530863e-05,4.2076746467500925e-05,2.277228304592427e-05,2.3541177142760716e-05,5.407459320849739e-05
3.215608376194723e-05,-4.34867397416383e-05,4.6061177272349596e-05,3.0108967621345073e-05,2.9235116016934626e-05,5.7669749367050827e-05
3.543347702361643e-05,-4.151313623879105e-05,4.707931657321751e-05,3.5284469049656764e-05,3.088719313382171e-05,6.0949725593673065e-05
3.658272180473432e-05,-4.130859088036232e-05,4.541693488135934e-05,3.7697103834943846e-05,3.218405618099496e-05,6.272799510043114e-05
3.717633808264509e-05,-3.976831430918537e-05,4.0312763303518295e-05,3.990024924860336e-05,3.3949945645872504e-05,6.404495798051357e-05
3.779981125262566e-05,-3.9158669096650556e-05,3.304681376903318e-05,4.21163349528797e-05,3.448734059929848e-05,6.340996333165094e-05
3.471670424914919e-05,-3.976637890446e-05,2.953587863885332e-05,4.214699220028706e-05,3.0249899282353e-05,6.073057738831267e-05
2.8700642360490747e-05,-3.948219818994403e-05,3.0218403480830602e-05,4.055942554259673e-05,2.104057239193935e-05,5.802177111036144e-05
2.4980299713206477e-05,-4.0782728319754824e-05,2.938235229521524e-05,3.815377931459807e-05,1.0556478628132027e-05,5.4127925977809355e-05
2.3206974219647236e-05,-4.624116627383046e-05,2.726915954553988e-05,3.215210381313227e-05,1.36590676902415e-06,4.907323091174476e-05
2.3396385586238466e-05,-5.1246250222902745e-05,2.753149783529807e-05,2.3838172637624666e-05,-5.627910468319897e-06,4.785206328961067e-05
2.89919971692143e-05,-4.9126923840958625e-05,2.8230553652974777e-05,2.0779416445293464e-05,-7.2855636972235516e-06,5.3364412451628596e-05
3.655978798633441e-05,-4.361408718978055e-05,2.9112381525919773e-05,2.3028043869999237e-05,-5.914875146117993e-06,6.274227052927017e-05
3.6955345422029495e-05,-4.533631363301538e-05,3.129024844383821e-05,2.4757522623986006e-05,-6.10173037784989e-06,6.519616727018729e-05
2.9645052563864738e-05,-5.235250500845723e-05,3.2338157325284556e-05,2.7893862352357246e-05,-1.3249210496724118e-05,5.9470759879332036e-05
2.2305530364974402e-05,-5.4963438742561266e-05,3.263811595388688e-05,4.042764339828864e-05,-2.2589425498154014e-05,5.3565858252113685e-05
2.053572825388983e-05,-5.421749665401876e-05,3.3835523936431855e-05,5.167452400201e-05,-3.0329247238114476e-05,5.216454155743122e-05
2.2010312022757716e-05,-5.4503758292412385e-05,3.214366370229982e-05,5.289321416057646e-05,-3.232645758544095e-05,5.428724398370832e-05
2.2600599550059997e-05,-5.4567655752180144e-05,3.0230587071855552e-05,5.1382434321567416e-05,-3.0358738513314165e-05,5.427694850368425e-05
1.8607748643262312e-05,-5.13870945724193e-05,2.8323480364633724e-05,5.151450386620127e-05,-2.9495196940843016e-05,5.374847023631446e-05
1.35157515614992e-05,-4.854335929849185e-05,2.6731529942480847e-05,4.997286305297166e-05,-2.7157799195265397e-05,5.588494605035521e-05
1.430500742571894e-05,-4.826789518119767e-05,2.7811469408334233e-05,4.4873035221826285e-05,-2.4753355319262482e-05,5.639706432702951e-05
1.9574727048166096e-05,-4.849562901654281e-05,3.0470180718111806e-05,3.47927852999419e-05,-1.969886216102168e-05,5.402626993600279e-05
2.386668165854644e-05,-4.799418820766732e-05,3.3431697374908254e-05,2.390083136560861e-05,-1.5223378795781173e-05,5.543578663491644e-05
2.517625216569286e-05,-4.8970323405228555e-05,3.575398295652121e-05,1.803765189833939e-05,-1.4790856766921934e-05,6.01977008045651e-05
2.5500547053525224e-05,-5.270208930596709e-05,3.760793333640322e-05,2.0964949726476334e-05,-1.7543690773891285e-05,6.438110722228885e-05
2.6142524802708067e-05,-5.465767753776163e-05,3.6900870327372104e-05,2.997815317939967e-05,-2.0677767679444514e-05,6.941806350369006e-05
2.5969799025915563e-05,-5.186318594496697e-05,3.280094460933469e-05,3.7606328987749293e-05,-2.2808446374256164e-05,7.359861774602905e-05
2.3662600142415613e-05,-4.532208913587965e-05,2.888514609367121e-05,3.95615425077267e-05,-2.4743603717070073e-05,7.454334263456985e-05
2.053934986179229e-05,-4.2083265725523233e-05,2.6881316443905234e-05,3.791886774706654e-05,-2.563456291682087e-05,7.660759729333222e-05
1.859313852037303e-05,-4.5713528379565105e-05,2.4879649572540075e-05,3.965116775361821e-05,-2.411676359770354e-05,7.970676233526319e-05
1.706494003883563e-05,-5.2259216317906976e-05,2.5389050279045478e-05,4.6170080167939886e-05,-2.2356185581884347e-05,8.109278132906184e-05
1.5454563254024833e-05,-5.4622520110569894e-05,2.6593268557917327e-05,5.073966531199403e-05,-2.304267582076136e-05,7.971545710461214e-05
1.4583894881070592e-05,-5.196788697503507e-05,2.735105408646632e-05,4.821305992663838e-05,-2.431975372019224e-05,7.690851634833962e-05
1.5255354810506105e-05,-5.004424383514561e-05,3.099929017480463e-05,4.515938780969009e-05,-2.604174369480461e-05,7.389820530079305e-05
1.83020511030918e-05,-5.096426684758626e-05,3.355611261213198e-05,4.56929046777077e-05,-2.561157089076005e-05,7.067781552905217e-05
2.2107906261226162e-05,-5.013936970499344e-05,3.034783912880812e-05,4.388296656543389e-05,-2.192626561736688e-05,7.173055928433314e-05
2.4071758161881007e-05,-4.882236316916533e-05,2.573510937509127e-05,3.696954081533477e-05,-2.0075738575542346e-05,7.123979594325647e-05
2.5579995053703897e-05,-5.131688521942124e-05,2.6288247681804933e-05,3.081246904912405e-05,-2.031047915806994e-05,6.492977263405919e-05
2.607445276225917e-05,-5.389449870563112e-05,3.0776234780205414e-05,2.7207397579331882e-05,-1.750143746903632e-05,5.998698907205835e-05
2.3077922378433868e-05,-5.417851934907958e-05,3.159491825499572e-05,2.3152933863457292e-05,-1.1628572792687919e-05,6.0134476370876655e-05
2.1779625967610627e-05,-5.1724520744755864e-05,3.1460349418921396e-05,2.0279145246604457e-05,-5.356815563573036e-06,6.14970558672212e-05
2.3491253159590997e-05,-4.902519140159711e-05,3.302089680801146e-05,2.602447239041794e-05,-3.5767382087215083e-06,5.8689834986580536e-05
2.601569394755643e-05,-4.755640111397952e-05,3.069085505558178e-05,3.459296567598358e-05,-5.396040251071099e-06,5.422176036518067e-05
2.567820956755895e-05,-5.071636405773461e-05,2.837838292180095e-05,3.738867962965742e-05,-5.749707270297222e-06,4.975742194801569e-05
2.2841772079118527e-05,-5.760513886343688e-05,2.965516978292726e-05,3.491797542665154e-05,-3.096483851550147e-06,4.3063493649242446e-05
2.2354033717419952e-05,-6.228333222679794e-05,3.213874879293144e-05,2.8621354431379586e-05,1.1274166809016606e-06,3.9474136428907514e-05
2.5085269953706302e-05,-6.22674633632414e-05,3.377055691089481e-05,1.3882312487112358e-05,4.979160621587653e-06,4.5851378672523424e-05
2.9732496841461398e-05,-6.0439135268097743e-05,3.371535785845481e-05,-9.026116458699107e-06,3.6975627608626382e-06,5.5386783060384914e-05
3.1621653761249036e-05,-5.788561611552723e-05,3.252697206335142e-05,-2.323790977243334e-05,-8.983242878457531e-06,5.768117989646271e-05
2.9693288524867967e-05,-5.422799222287722e-05,3.412938167457469e-05,-1.4006741366756614e-05,-2.9082943001412787e-05,5.1540311687858775e-05
2.833414328051731e-05,-5.4154508688952774e-05,3.591186396079138e-05,7.276910764630884e-06,-4.4803873606724665e-05,4.568314761854708e-05
3.000350079673808e-05,-5.644845077767968e-05,3.5168370231986046e-05,2.2260379409999587e-05,-4.818784145754762e-05,4.836139487451874e-05
3.109302633674815e-05,-5.7220404414692894e-05,3.1781342840986326e-05,2.5218334485543892e-05,-4.2824445699807256e-05,5.5808097386034206e-05
2.8080501579097472e-05,-5.4117492254590616e-05,2.899311039072927e-05,2.4653976652189158e-05,-3.588994513847865e-05,5.711141420761123e-05
2.2797927158535458e-05,-5.1177114073652774e-05,2.759642302407883e-05,2.7789836167357862e-05,-2.9753500712104142e-05,5.3362226026365533e-05
2.0092806153115816e-05,-5.07742770423647e-05,2.6749217795440927e-05,3.688822471303865e-05,-1.9427627194090746e-05,5.5758511734893546e-05
2.23227143578697e-05,-5.156427141628228e-05,2.8889164241263643e-05,4.70099548692815e-05,-6.050214778952068e-06,6.131020927568898e-05
2.7259775379206985e-05,-5.2632221922976896e-05,3.307157021481544e-05,4.911369978799485e-05,4.136515599384438e-06,6.141359335742891e-05
2.902695268858224e-05,-5.250220783636905e-05,3.516236029099673e-05,4.406180960359052e-05,9.717073226056527e-06,5.912668348173611e-05
2.599542676762212e-05,-5.187650094740093e-05,3.3942513255169615e-05,3.7990517739672214e-05,1.1514707694004755e-05,6.147195381345227e-05
2.2463300410890952e-05,-5.2347593737067655e-05,3.2136398658622056e-05,3.383153671165928e-05,1.1963953511440195e-05,6.40589787508361e-05
1.8942466340376996e-05,-5.217174475546926e-05,3.1355801183963194e-05,3.0174462153809145e-05,1.332438023382565e-05,6.0666923673124984e-05
1.6116413462441415e-05,-4.841901682084426e-05,2.987517109431792e-05,2.7788852094090544e-05,1.508052991994191e-05,6.109735113568604e-05
1.602651900611818e-05,-4.219905531499535e-05,2.662433143996168e-05,2.5112902221735567e-05,1.538083415653091e-05,6.93841720931232e-05
1.8439577615936287e-05,-3.950063182855956e-05,2.4845398002071306e-05,2.0598608898581006e-05,1.1672894288494717e-05,7.414678839268163e-05
2.2534248273586854e-05,-4.407915912452154e-05,2.5156237825285643e-05,1.038723439705791e-05,7.758158972137608e-06,7.453349098796025e-05
2.3368345864582807e-05,-4.9721966206561774e-05,2.868111914722249e-05,-7.228505637613125e-06,1.084971609088825e-05,7.193801866378635e-05
1.9668737877509557e-05,-5.0829625251935795e-05,3.1527735700365156e-05,-2.5556313630659133e-05,1.5484030882362276e-05,6.753736670361832e-05
1.5641302525182255e-05,-4.575948332785629e-05,3.3941174478968605e-05,-2.7919693820877e-05,1.746788439049851e-05,6.510268576676026e-05
1.4945170732971746e-05,-4.21099757659249e-05,3.305735663161613e-05,-1.3556781595980283e-05,1.5106029422895517e-05,6.239781941985711e-05
1.5734134649392217e-05,-4.11478613386862e-05,2.9872973755118437e-05,4.6954405661381315e-06,8.034365237108432e-06,6.0346952523104846e-05
1.688561496848706e-05,-4.037729377159849e-05,2.9609427656396292e-05,1.9218885427108034e-05,3.2915045267145615e-06,6.151884008431807e-05
1.651443017181009e-05,-4.215412991470657e-05,3.041784293600358e-05,3.2449952414026484e-05,2.5217177608283237e-06,6.245709664653987e-05
1.6164885892067105e-05,-4.4096977944718674e-05,2.924597356468439e-05,4.090359288966283e-05,-4.476506205719488e-07,5.915926885791123e-05
1.9671570044010878e-05,-4.6331249905051664e-05,2.9448923669406213e-05,3.607856706366874e-05,-5.688907094736351e-06,5.600156873697415e-05
2.1127369109308347e-05,-4.6600940549978986e-05,3.133290374535136e-05,2.403934377070982e-05,-7.164176167862024e-06,5.6416523875668645e-05
1.9894097931683064e-05,-4.5761324145132676e-05,3.1079627660801634e-05,1.777248144207988e-05,-6.329787993308855e-06,5.797485209768638e-05
1.7891950847115368e-05,-4.4985605200054124e-05,3.1279221730073914e-05,2.773960295598954e-05,-4.151324901613407e-06,5.7590092183090746e-05
1.681668436503969e-05,-4.526013435679488e-05,3.313665365567431e-05,5.936935485806316e-05,-1.2184019624328357e-06,5.458680243464187e-05
1.4507231753668748e-05,-4.8707446694606915e-05,3.402467700652778e-05,0.00010342757013859227,-1.1767766636694432e-06,5.15402207383886e-05
1.1002325663866941e-05,-5.3615705837728456e-05,3.3062893635360524e-05,0.00013441257760860026,-5.874277576367604e-06,4.8635043640388176e-05
1.0705362910812255e-05,-5.543492443393916e-05,3.255203046137467e-05,0.00013415038120001554,-1.2436066754162312e-05,4.760433512274176e-05
1.322142270510085e-05,-5.382481685956009e-05,3.071408355026506e-05,0.00010926246613962576,-1.6562438759137876e-05,5.0434278819011524e-05
1.5442792573594488e-05,-5.285438601276837e-05,2.7918171326746233e-05,7.626652222825214e-05,-1.784618325473275e-05,5.244935164228082e-05
1.8321203242521733e-05,-5.307777246343903e-05,2.6563282517599873e-05,4.968619759893045e-05,-1.8865621314034797e-05,5.0117661885451525e-05
2.1790838218294084e-05,-5.290165063343011e-05,2.8392281819833443e-05,3.801824641413987e-05,-1.8971521058119833e-05,4.9601439968682826e-05
2.413420043012593e-05,-5.0863636715803295e-05,3.1782856240170076e-05,3.730276876012795e-05,-1.8871643987949938e-05,5.562271689996123e-05
2.6209139832644723e-05,-4.899038322037086e-05,3.435112739680335e-05,3.791074414039031e-05,-2.05625419766875e-05,6.0974245570832863e-05
2.7601248802966438e-05,-5.018115189159289e-05,3.293096960987896e-05,3.513555566314608e-05,-2.3562679416500032e-05,5.712321581086144e-05
2.7134774427395314e-05,-5.396829510573298e-05,2.6427134798723273e-05,2.9978698876220733e-05,-2.5980178179452196e-05,4.5325235987547785e-05
2.5028288291650824e-05,-5.5269556469284e-05,1.9479562979540788e-05,2.511745333322324e-05,-2.39279124798486e-05,3.692601967486553e-05
2.3166438040789217e-05,-5.342141957953572e-05,1.94759777514264e-05,2.5751856810529716e-05,-1.9880577383446507e-05,4.049044582643546e-05
2.0355164451757446e-05,-5.146524199517444e-05,2.820166810124647e-05,2.8422815375961363e-05,-1.569333835504949e-05,4.946283661411144e-05
1.8235576135339215e-05,-5.0699720304692164e-05,3.5799461329588667e-05,2.7484717065817676e-05,-1.5509633158217184e-05,5.537459219340235e-05
1.6102236259030178e-05,-5.178846186026931e-05,3.630611900007352e-05,2.472843880241271e-05,-1.8221766367787495e-05,5.8513182011665776e-05
1.5587069356115535e-05,-5.1659160817507654e-05,3.539554381859489e-05,2.0428220523172058e-05,-1.9896002413588576e-05,5.963407602394e-05
2.0023499018861912e-05,-5.014098496758379e-05,3.188617483829148e-05,1.3413851775112562e-05,-1.8954746337840334e-05,5.901533586438745e-05
2.444629353703931e-05,-5.030348620493896e-05,2.879755265894346e-05,4.186254500382347e-06,-1.8963179172715172e-05,5.643157419399358e-05
2.474072971381247e-05,-5.479956234921701e-05,3.0062788937357254e-05,-2.1906816982664168e-06,-1.998625521082431e-05,5.3697342082159594e-05
2.3087717636371963e-05,-6.16598772467114e-05,3.282176476204768e-05,-1.9172473741946305e-07,-1.71385381690925e-05,5.4764921515015885e-05
2.158219831471797e-05,-6.349342584144324e-05,3.4511398553149775e-05,5.398909706855193e-06,-1.3076469258521684e-05,5.9560989029705524e-05
2.0113695427426137e-05,-6.137733726063743e-05,3.466262205620296e-05,9.772003977559507e-06,-1.0813074368343223e-05,6.317327643046156e-05
1.961313137144316e-05,-5.7315635785926133e-05,3.330111940158531e-05,8.392618838115595e-06,-1.1446776625234634e-05,6.259581277845427e-05
1.9131493900204077e-05,-5.3855041187489405e-05,3.097628723480739e-05,6.069074515835382e-06,-1.276586772291921e-05,5.8989338867831975e-05
1.805537976906635e-05,-5.2725215937243775e-05,3.135316364932805e-05,7.310806267923908e-06,-1.334994249191368e-05,5.686858276021667e-05
1.7993357687373646e-05,-5.4751399147789925e-05,3.2450290746055543e-05,8.539112059224863e-06,-9.959581802831963e-06,5.75549784116447e-05
1.824884930101689e-05,-5.964809315628372e-05,3.0916373361833394e-05,8.575911124353297e-06,-5.4507995628227945e-06,5.973373117740266e-05
1.7925391148310155e-05,-6.283228140091524e-05,2.61918394244276e-05,8.686244655109476e-06,-5.428970325738192e-06,6.253957690205425e-05
1.764678927429486e-05,-6.16521792835556e-05,2.3385766326100565e-05,1.0688161637517624e-05,-1.0982101230183616e-05,6.471069355029613e-05
2.0045410565217026e-05,-5.853414404555224e-05,2.318709266546648e-05,1.3116656191414222e-05,-1.5466323020518757e-05,6.427491462090984e-05
2.3156275346991606e-05,-5.75443082198035e-05,2.6979894755641e-05,1.1994228771072812e-05,-1.5304114640457556e-05,6.009938078932464e-05
2.3287466319743544e-05,-5.71173477510456e-05,3.361322887940332e-05,1.0692210707929917e-05,-1.4806142644374631e-05,5.7773264416027814e-05
2.2829832232673652e-05,-5.477730883285403e-05,3.774881406570785e-05,1.2955302736372687e-05,-1.7383268641424365e-05,6.178652256494388e-05
2.3593007426825352e-05,-5.091479397378862e-05,3.954952262574807e-05,1.791020440577995e-05,-2.0980982299079187e-05,6.849697820143774e-05
2.3043925466481596e-05,-4.824350253329612e-05,4.0902050386648625e-05,2.711564229684882e-05,-2.209450030932203e-05,7.036349416011944e-05
2.170760308217723e-05,-4.60981646028813e-05,4.085245018359274e-05,4.1351973777636886e-05,-2.1854988517588936e-05,6.130318070063367e-05
2.1222362192929722e-05,-4.572203761199489e-05,3.955975262215361e-05,5.514968870556913e-05,-2.1443345758598298e-05,4.566931238514371e-05
2.1210784325376153e-05,-4.69737387902569e-05,3.6985955375712365e-05,5.746202077716589e-05,-1.8976230421685614e-05,3.524179555824958e-05
2.2544769308296964e-05,-4.7345194616355e-05,3.685267802211456e-05,4.948720015818253e-05,-1.4145947716315277e-05,3.9019705582177266e-05
2.4627766833873466e-05,-4.7321522288257256e-05,3.6992296372773126e-05,3.925075361621566e-05,-1.0320793990103994e-05,5.071601481176913e-05
2.4737993953749537e-05,-4.6770954213570803e-05,3.567475505406037e-05,3.0012355637154542e-05,-7.844636456866283e-06,5.4218264267547056e-05
2.4586041035945527e-05,-4.7674802772235125e-05,3.916704736184329e-05,2.271798803121783e-05,-7.89521618571598e-06,5.057803355157375e-05
2.743623190326616e-05,-4.82347713841591e-05,3.799686237471178e-05,2.1132780602783896e-05,-9.507562026556116e-06,5.129444252816029e-05
2.90280095214257e-05,-4.8323847295250744e-05,3.425959948799573e-05,1.920111390063539e-05,-8.02194517746102e-06,5.964814772596583e-05
2.7248453989159316e-05,-5.2319621318019927e-05,3.103721610386856e-05,1.5194040315691382e-05,-2.9447303404595004e-06,6.118860619608313e-05
2.2558251657756045e-05,-5.4290067055262625e-05,2.8553993615787476e-05,1.649151454330422e-05,6.622672685807629e-07,5.3135787311475724e-05
1.7808741176850162e-05,-5.248562592896633e-05,2.9203009034972638e-05,2.620161831146106e-05,-1.0901928817474982e-06,4.906909089186229e-05
1.548588443256449e-05,-4.9924597988137975e-05,2.6092040570802055e-05,4.271628495189361e-05,-6.006566309224581e-06,5.494838114827871e-05
1.6336671251337975e-05,-4.750927473651245e-05,2.2138112399261445e-05,5.47673407709226e-05,-8.806013283901848e-06,6.430421490222216e-05
1.8729784642346203e-05,-4.778763104695827e-05,2.288870200573001e-05,5.5022683227434754e-05,-9.408088772033807e-06,6.520211900351569e-05
1.9464469005470164e-05,-4.857681778958067e-05,2.7177626179764047e-05,4.5496934035327286e-05,-9.032823982124683e-06,6.040257358108647e-05
1.8427290342515334e-05,-4.810107566299848e-05,2.9719138183281757e-05,3.4982462238986045e-05,-9.224869245372247e-06,5.773137309006415e-05
1.938539935508743e-05,-4.9326881708111614e-05,3.0694362067151815e-05,3.095724605373107e-05,-1.135782713390654e-05,5.851853347849101e-05
2.3252854589372873e-05,-5.111684731673449e-05,3.152758290525526e-05,3.0059387427172624e-05,-1.322917432844406e-05,6.273965118452907e-05
2.5938708859030157e-05,-5.22547161381226e-05,3.159496918669902e-05,3.012820343428757e-05,-1.1227546565351076e-05,6.628689880017191e-05
2.5715273295645602e-05,-5.3150371968513355e-05,3.0999617592897266e-05,3.211827061022632e-05,-6.2156350395525806e-06,6.323934212559834e-05
2.4953680622274987e-05,-5.2907871577190235e-05,3.0295472242869437e-05,3.453354656812735e-05,-3.207007011951646e-06,5.588582644122653e-05
2.5173158064717427e-05,-5.1450086175464094e-05,3.1093073630472645e-05,3.473937249509618e-05,-4.772074134962168e-06,4.944063402945176e-05
2.4794930141069926e-05,-5.072775820735842e-05,3.412210935493931e-05,3.342808849993162e-05,-7.620200904057128e-06,4.708243068307638e-05
2.442246477585286e-05,-5.204051558393985e-05,3.6548288335325196e-05,3.2985335565172136e-05,-6.806582860008348e-06,5.068293830845505e-05
2.669010245881509e-05,-5.0829075917135924e-05,3.71619280485902e-05,3.290596214355901e-05,-6.444670361815952e-06,5.849701847182587e-05
2.9665472538908944e-05,-4.708272899733856e-05,3.715861021191813e-05,3.157832543365657e-05,-1.1336152965668589e-05,6.38872297713533e-05
2.6633342713466845e-05,-4.678074401454069e-05,3.6000419640913606e-05,2.9143873689463362e-05,-1.8016544345300645e-05,6.337017839541659e-05
2.2510661437991075e-05,-5.020886237616651e-05,3.438674320932478e-05,2.6743384296423756e-05,-2.4459814085275866e-05,5.986982068861835e-05
2.2598233044845983e-05,-5.321963180904277e-05,3.1791678338777274e-05,2.6772802812047303e-05,-2.8105132514610887e-05,5.722909190808423e-05
2.361787119298242e-05,-5.351388608687557e-05,2.927399327745661e-05,3.1271876650862396e-05,-3.013501009263564e-05,5.991562647977844e-05
2.2766642359783873e-05,-5.325578968040645e-05,2.7590218451223336e-05,3.74117043975275e-05,-3.745255162357353e-05,6.553674029419199e-05
2.0541483536362648e-05,-5.233126648818143e-05,2.660949576238636e-05,4.096363772987388e-05,-4.729229840449989e-05,6.286513234954327e-05
2.0416209736140445e-05,-4.956853808835149e-05,2.6447361960890703e-05,3.790811388171278e-05,-5.4417607316281646e-05,6.035013939253986e-05
2.106777719745878e-05,-4.712985537480563e-05,2.6578019969747402e-05,3.3127664210041985e-05,-5.799695645691827e-05,6.540985486935824e-05
1.9886650989064947e-05,-4.672034629038535e-05,2.5965366148739122e-05,3.191677751601674e-05,-5.545305975829251e-05,7.171682955231518e-05
1.6129002688103355e-05,-4.743571116705425e-05,2.728642721194774e-05,3.169929186697118e-05,-4.1937571950256824e-05,7.486524555133656e-05
1.2066770068486221e-05,-4.5566859625978395e-05,2.993177986354567e-05,2.8442424081731588e-05,-1.987389987334609e-05,6.783566641388461e-05
9.197563485940918e-06,-4.6029443183215335e-05,2.990532993862871e-05,2.4475604732288048e-05,4.956688371748896e-06,6.125640356913209e-05
8.297008207591716e-06,-4.8111167416209355e-05,2.9884222385589965e-05,2.3270615201909095e-05,3.083007686655037e-05,6.191699503688142e-05
9.486809176451061e-06,-4.7621913836337626e-05,3.1323990697273985e-05,2.0734314603032544e-05,5.664897616952658e-05,6.482900062110275e-05
1.0261821444146335e-05,-4.715914110420272e-05,3.3033396903192624e-05,1.7814982129493728e-05,7.733976235613227e-05,6.816956010879949e-05
9.697727364255115e-06,-4.70021041110158e-05,3.3611260732868686e-05,1.737565253279172e-05,8.584030729252845e-05,7.07612416590564e-05
1.0379586456110701e-05,-4.560680827125907e-05,3.350894621689804e-05,1.723461718938779e-05,8.176264964276925e-05,6.883042078698054e-05
1.373912800772814e-05,-4.4641830754699185e-05,3.348331301822327e-05,1.6836727809277363e-05,6.949188536964357e-05,6.13605443504639e-05
1.7518024833407253e-05,-4.406381776789203e-05,3.0622908525401726e-05,1.7165632016258314e-05,5.349394996301271e-05,5.620943920803256e-05
2.0926236175000668e-05,-4.191505286144093e-05,2.791967744997237e-05,1.924199932545889e-05,3.689272853080183e-05,5.658042573486455e-05
2.1674883100786246e-05,-4.026861279271543e-05,2.9863685995223932e-05,1.9365843400009908e-05,2.134880742232781e-05,5.981230060569942e-05
2.0336879970273003e-05,-4.14759197155945e-05,3.429230855545029e-05,1.4908977391314693e-05,8.757720024732407e-06,6.002500231261365e-05
2.0391315047163516e-05,-4.306971459300257e-05,3.668186764116399e-05,1.0861121154448483e-05,-1.937405158969341e-06,5.295564915286377e-05
2.2248455934459344e-05,-4.2296844185329974e-05,3.701335663208738e-05,1.4595311768061947e-05,-1.2204942322568968e-05,4.3415246182121336e-05
2.3453025278286077e-05,-4.064962922711857e-05,3.708844815264456e-05,2.521120222809259e-05,-2.089028203045018e-05,3.982616544817574e-05
2.3012960809865035e-05,-3.948814992327243e-05,3.633433152572252e-05,3.404320887057111e-05,-2.762685289781075e-05,4.276569961803034e-05
2.1045330868219025e-05,-4.1977513319579884e-05,3.519303572829813e-05,3.8359507016139105e-05,-3.4772685467032716e-05,4.876606180914678e-05
1.9149190848111175e-05,-4.4272790546528995e-05,3.424785245442763e-05,4.044656816404313e-05,-4.2859497625613585e-05,5.15475585416425e-05
1.605313445907086e-05,-4.477822221815586e-05,3.3193235140061006e-05,3.775993172894232e-05,-4.995691415388137e-05,5.15950596309267e-05
1.536100171506405e-05,-4.492709558689967e-05,3.564385770005174e-05,2.897016383940354e-05,-5.297581083141267e-05,5.288623651722446e-05
2.322969703527633e-05,-4.264364542905241e-05,3.864269456244074e-05,1.985785820579622e-05,-5.1693070417968556e-05,5.953811705694534e-05
3.152441786369309e-05,-4.074458411196247e-05,3.70174202544149e-05,1.6952391888480633e-05,-5.0140766688855365e-05,6.710304296575487e-05
3.5652345104608685e-05,-4.281903602532111e-05,3.340005787322298e-05,1.95625707419822e-05,-4.417401214595884e-05,6.632047006860375e-05
3.725061833392829e-05,-4.619590981747024e-05,3.275450580986217e-05,2.2500216800835915e-05,-3.427285992074758e-05,5.822072853334248e-05
3.882233795593493e-05,-4.447789615369402e-05,3.601161006372422e-05,2.618667895148974e-05,-2.4476836188114248e-05,5.0510770961409435e-05
4.0019789594225585e-05,-4.013902071164921e-05,3.9316244510700926e-05,3.172023571096361e-05,-1.3772716556559317e-05,5.211834286455996e-05
3.761889456654899e-05,-3.9317998016485944e-05,3.966725853388198e-05,3.7391997466329485e-05,-5.378888999985065e-06,5.781622530776076e-05
3.4203199902549386e-05,-4.2842271795962006e-05,3.5266341001261026e-05,4.160316166235134e-05,-4.072754222761432e-07,6.304837006609887e-05
3.0417233574553393e-05,-4.660537888412364e-05,3.220320286345668e-05,3.9195121644297615e-05,6.818048859713599e-06,6.261949602048844e-05
2.7358211809769273e-05,-4.9660869990475476e-05,2.9798424293403514e-05,2.9579248803202063e-05,1.5310546586988494e-05,5.984533709124662e-05
2.4080914954538457e-05,-5.221131141297519e-05,3.081422983086668e-05,1.79378293978516e-05,1.8842729332391173e-05,5.914307257626206e-05
2.04097741516307e-05,-5.476640217239037e-05,3.2037205528467894e-05,1.1206783710804302e-05,1.7971067791222595e-05,5.9590922319330275e-05
1.9889726900146343e-05,-5.725356822949834e-05,3.0663450161227956e-05,1.53061373566743e-05,1.107114258047659e-05,5.965156015008688e-05
2.1500187358469702e-05,-5.7005749113159254e-05,3.081959584960714e-05,2.3777680326020345e-05,2.6092089910889626e-07,5.998028791509569e-05
2.1564266717177816e-05,-5.305079685058445e-05,3.22809828503523e-05,3.16243022098206e-05,-9.220629181072582e-06,6.618379848077893e-05
2.0294462956371717e-05,-4.814748535864055e-05,3.197887053829618e-05,3.8499056245200336e-05,-1.4193923561833799e-05,7.394757267320529e-05
2.2108242774265818e-05,-4.7217359679052606e-05,3.055999331991188e-05,4.398308738018386e-05,-1.5074508155521471e-05,7.574028131784871e-05
2.729301377257798e-05,-4.927488771500066e-05,3.2548148737987503e-05,4.5212691475171596e-05,-1.564790181873832e-05,7.352832471951842e-05
3.275553899584338e-05,-5.208504808251746e-05,3.3033044019248337e-05,4.33263776358217e-05,-1.638472531340085e-05,7.397998706437647e-05
3.519269375829026e-05,-5.446618524729274e-05,2.9757708034594543e-05,4.168126542936079e-05,-1.4805841601628345e-05,7.375184213742614e-05
3.414628736209124e-05,-5.4501200793311e-05,2.7487620172905736e-05,3.9905433368403465e-05,-9.64468108577421e-06,6.997540185693651e-05
3.0895531381247565e-05,-5.090912964078598e-05,2.938860961876344e-05,3.560331606422551e-05,-5.524010703084059e-06,6.307740113697946e-05
3.0218929168768227e-05,-4.8134235839825124e-05,3.211258808732964e-05,2.912815398303792e-05,-4.494091626838781e-06,5.44167123734951e-05
3.4151187719544396e-05,-4.62035350210499e-05,3.3564592740731314e-05,2.5289400582551025e-05,-1.5517236988671357e-06,4.9509286327520385e-05
3.673500395962037e-05,-4.4569755118573084e-05,3.160276901326142e-05,2.555161336204037e-05,2.448987743264297e-06,5.384155883803032e-05
3.5102162655675784e-05,-4.432285641087219e-05,2.9854078093194403e-05,2.82200999208726e-05,3.103157951045432e-06,6.177640898386016e-05
3.092693805228919e-05,-4.4094187614973634e-05,3.2886389817576855e-05,2.9314327548490837e-05,1.6633437098789727e-06,6.165868398966268e-05
2.7030037017539144e-05,-4.534332765615545e-05,3.517332879710011e-05,2.431954999337904e-05,-5.528544306798722e-07,5.429515294963494e-05
2.3580558263347484e-05,-4.779339724336751e-05,3.0954597605159506e-05,1.624192009330727e-05,-4.655508405448927e-07,4.3841479055117816e-05
2.0518053133855574e-05,-4.962107777828351e-05,2.5025887225638144e-05,1.1939543583139312e-05,3.5330000969224784e-07,3.817393007921055e-05
2.2093508960097097e-05,-4.890681157121435e-05,2.379682700848207e-05,7.160611858125776e-06,-1.894955858006142e-06,4.1163253627019e-05
2.5422008548048325e-05,-4.6657558414153755e-05,2.7410840630182065e-05,4.851674475503387e-06,-7.418330369546311e-06,4.3982181523460895e-05
2.4426788513665088e-05,-4.7492470912402496e-05,2.9011534934397787e-05,9.877092452370562e-06,-1.1332447684253566e-05,4.4431606511352584e-05
2.1360676328185946e-05,-4.82546238345094e-05,2.7740186851588078e-05,2.195568595197983e-05,-1.515517033112701e-05,4.418089156388305e-05
2.148550447600428e-05,-4.498797716223635e-05,2.820779445755761e-05,3.2717791327741e-05,-1.8026434190687723e-05,5.099813643028028e-05
2.3044498448143713e-05,-4.2515588575042784e-05,3.379527333891019e-05,3.65132000297308e-05,-1.7908740119310096e-05,5.694557330571115e-05
2.159230825782288e-05,-4.2152012611040846e-05,3.937576911994256e-05,3.6773577448911965e-05,-2.0222018065396696e-05,5.733475700253621e-05
1.5670790162403136e-05,-4.3949221435468644e-05,3.916487912647426e-05,3.0998318834463134e-05,-2.237690205220133e-05,5.6924902310129255e-05
9.675535693531856e-06,-4.7753423132235184e-05,3.5116285289404914e-05,2.309882256668061e-05,-2.2465595975518227e-05,5.5688313295831904e-05
7.373049811576493e-06,-5.0848197133746e-05,3.136628583888523e-05,1.821346268116031e-05,-2.2087146135163493e-05,5.762577711720951e-05
8.20704190118704e-06,-5.168116695131175e-05,2.952486465801485e-05,1.7874030163511634e-05,-2.393972681602463e-05,6.1000086134299636e-05
9.944013982021715e-06,-5.154892278369516e-05,3.030562584172003e-05,1.7612990632187575e-05,-2.6427382181282155e-05,5.7966601161751896e-05
9.45844567468157e-06,-5.046115256845951e-05,3.21908482874278e-05,1.846793202275876e-05,-2.8779257263522595e-05,5.122912989463657e-05
7.486230060749222e-06,-4.908658593194559e-05,3.228947753086686e-05,2.055003096756991e-05,-2.9856442779419012e-05,5.209031587583013e-05
4.876555522059789e-06,-4.944160900777206e-05,3.151091004838236e-05,1.9464070646790788e-05,-2.835355553543195e-05,6.059055885998532e-05
4.285081104171695e-06,-5.133804370416328e-05,3.1379029678646475e-05,1.5414503650390543e-05,-2.4318658688571304e-05,6.693855539197102e-05
7.771582204441074e-06,-5.2681833039969206e-05,3.258045035181567e-05,1.2433585652615875e-05,-2.1001984350732528e-05,6.410318019334227e-05
1.2601159141922835e-05,-5.262655031401664e-05,3.433470192248933e-05,1.5867550246184692e-05,-2.084346670017112e-05,6.0033740737708285e-05
1.6265785234281793e-05,-5.2799958211835474e-05,3.5259348805993795e-05,2.9947437724331394e-05,-2.2432272089645267e-05,6.0479487729026005e-05
1.8897280824603513e-05,-5.393071478465572e-05,3.249324072385207e-05,5.349334969650954e-05,-2.566251714597456e-05,6.05613058723975e-05
2.02118626475567e-05,-5.414873157860711e-05,2.798120658553671e-05,7.614944479428232e-05,-2.9995644581504166e-05,5.8558653108775616e-05
1.9977984266006388e-05,-5.417316424427554e-05,2.1654292140738107e-05,8.633630204712972e-05,-2.990496068377979e-05,5.765318564954214e-05
2.0260080418665893e-05,-5.559149576583877e-05,1.8373517377767712e-05,7.839099271222949e-05,-2.2410475139622577e-05,5.413898907136172e-05
2.4605129510746337e-05,-5.682469054590911e-05,2.2354326574713923e-05,5.898480594623834e-05,-1.3070376553514507e-05,4.8654259444447234e-05
2.927001150965225e-05,-5.3277399274520576e-05,2.630749804666266e-05,3.955955253331922e-05,-6.557851975230733e-06,4.688141416409053e-05
2.9455788535415195e-05,-4.6917244617361575e-05,2.795011823764071e-05,3.1862313335295767e-05,-5.291064553603064e-06,5.270534893497825e-05
2.670301910256967e-05,-5.017123476136476e-05,3.242945604142733e-05,3.449836003710516e-05,-7.159776032494847e-06,6.2567662098445e-05
2.8016302167088725e-05,-5.6455515732523054e-05,3.7998233892722055e-05,4.0241713577415794e-05,-7.3020937634282745e-06,6.916382699273527e-05
3.0234596124500968e-05,-5.782444713986479e-05,3.997443491243757e-05,4.426470695761964e-05,-5.785037046734942e-06,6.716355710523203e-05
2.9048085707472637e-05,-5.589097418123856e-05,3.549110624589957e-05,4.4446929678088054e-05,-4.715669547294965e-06,6.047427450539544e-05
2.837890679074917e-05,-5.1258331950521097e-05,3.282917168689892e-05,3.88543849112466e-05,-7.886629646236543e-06,5.774857709184289e-05
2.790973667288199e-05,-4.910238567390479e-05,3.7364654417615384e-05,2.9593167710117996e-05,-1.0169140296056867e-05,6.095791468396783e-05
2.788518395391293e-05,-5.0416241720085964e-05,4.2295741877751425e-05,2.2920248738955706e-05,-1.0659249710442964e-05,6.184232188388705e-05
2.6568050088826567e-05,-5.475427315104753e-05,4.1406077798455954e-05,2.05549513339065e-05,-1.5188727957138326e-05,5.78186045459006e-05
2.3130442059482448e-05,-5.812056042486802e-05,3.683504110085778e-05,2.4824692445690744e-05,-1.5523652109550312e-05,5.2529612730722874e-05
1.907483601826243e-05,-5.814504038426094e-05,3.336602821946144e-05,2.985391256515868e-05,-1.3976214177091606e-05,5.0368216761853546e-05
1.9223234630771913e-05,-5.607460479950532e-05,3.320171163068153e-05,2.935057091235649e-05,-1.3755084182776045e-05,5.194543700781651e-05
2.2287562387646176e-05,-5.5895096011227e-05,3.713115438586101e-05,2.681397381820716e-05,-1.602498559805099e-05,5.5664568208158016e-05
2.232677798019722e-05,-5.8048510254593566e-05,3.936390930903144e-05,2.6163392249145545e-05,-1.779217018338386e-05,6.354863580781966e-05
2.148255953215994e-05,-5.8793673815671355e-05,3.78813456336502e-05,2.5781218937481754e-05,-1.7944257706403732e-05,7.06036007613875e-05
2.2340076611726545e-05,-5.673395935446024e-05,3.266609928687103e-05,2.2636872017756104e-05,-1.7569371266290545e-05,7.15132337063551e-05
2.3296577637665905e-05,-5.422016329248436e-05,2.6352525310358033e-05,1.9420300304773264e-05,-1.4767018001293764e-05,6.569703691639006e-05
2.243436210846994e-05,-5.270398469292559e-05,2.2439875465352088e-05,1.9545388568076305e-05,-8.963056643551681e-06,5.7171953812940046e-05
2.0168790797470137e-05,-4.9701786338118836e-05,2.3485625206376426e-05,1.983945185202174e-05,-3.5417945127846906e-06,4.739199357572943e-05
