1.9850798707921058e-05,-5.1813345635309815e-05,3.340014154673554e-05,4.412113776197657e-05,-3.0026845706743188e-05,2.222267721663229e-05
2.005443639063742e-05,-4.5656037400476635e-05,3.28156711475458e-05,3.7433313991641626e-05,-3.3760530641302466e-05,4.0203958633355796e-05
1.9927807443309575e-05,-4.2315630707889795e-05,2.9790022381348535e-05,3.001228833454661e-05,-3.762668347917497e-05,6.911347736604512e-05
1.7696698705549352e-05,-3.978545646532439e-05,2.4305105398525484e-05,2.3880549633759074e-05,-4.5725235395366326e-05,8.75479745445773e-05
1.447138038201956e-05,-3.943725459976122e-05,2.437890725559555e-05,1.843378231569659e-05,-5.40982473467011e-05,9.485665214015171e-05
1.6006008081603795e-05,-4.013217767351307e-05,2.574382597231306e-05,1.544946280773729e-05,-5.784618770121597e-05,9.854028758127242e-05
1.9000475731445476e-05,-4.390518006402999e-05,2.6195988539257087e-05,1.3388845218287315e-05,-5.7236251450376585e-05,0.00010163890692638233
1.7026161003741436e-05,-4.80422968394123e-05,2.7713007511920296e-05,1.0927253242698498e-05,-5.1398936193436384e-05,9.954052075045183e-05
1.4038459084986243e-05,-5.062458149041049e-05,2.93894609058043e-05,1.2894762221549172e-05,-3.514307536534034e-05,8.57345512486063e-05
1.3092158951621968e-05,-5.063605567556806e-05,3.012875640706625e-05,1.667461583565455e-05,-9.083671102416702e-06,6.609557021874934e-05
1.3802325156575534e-05,-4.921157960779965e-05,2.7967336791334674e-05,1.1981062016275246e-05,2.2596981580136344e-05,4.377173900138587e-05
1.5000829080236144e-05,-4.854983853874728e-05,2.6526260626269504e-05,-1.790313035598956e-07,5.043434794060886e-05,2.6437221094965935e-05
1.603611235623248e-05,-4.74974476674106e-05,2.635485725477338e-05,-1.5737848571006907e-06,6.897695129737258e-05,1.4655094673798885e-05
1.758242433425039e-05,-4.4910750148119405e-05,2.6933241315418854e-05,1.742375025060028e-05,7.563237159047276e-05,3.6857816212432226e-06
1.9505328964442015e-05,-4.317821731092408e-05,2.8401045710779727e-05,4.4169290049467236e-05,7.18841256457381e-05,-6.239684807951562e-06
2.1169022147660144e-05,-4.6387001930270344e-05,2.8943633878952824e-05,6.130518158897758e-05,5.990032514091581e-05,-7.349174211412901e-06
2.0073151972610503e-05,-5.2190931455697864e-05,2.972641959786415e-05,6.39388308627531e-05,4.4139807869214565e-05,7.515996458096197e-06
1.783545121725183e-05,-5.662683543050662e-05,3.334812936373055e-05,5.570432040258311e-05,2.9750246540061198e-05,3.252478927606717e-05
1.7301799744018354e-05,-5.747317845816724e-05,3.6814508348470554e-05,4.456120586837642e-05,1.7717613445711322e-05,5.2787047025049105e-05
1.9164755940437317e-05,-5.5091095418902114e-05,3.6259043554309756e-05,3.679297151393257e-05,7.702964467171114e-06,5.8003479352919385e-05
2.0267509171389975e-05,-5.1124625315424055e-05,3.349777034600265e-05,3.1273415515897796e-05,-4.020530468551442e-07,5.5631931900279596e-05
1.9847309886245057e-05,-4.857299063587561e-05,3.1572857551509514e-05,2.9122456908226013e-05,-4.706112576968735e-06,5.165247421246022e-05
1.9674609575304203e-05,-4.929209899273701e-05,3.117855521850288e-05,2.938603029178921e-05,-7.092167834343854e-06,4.6274446503957734e-05
2.155205947929062e-05,-5.17334156029392e-05,3.1170518923318014e-05,3.149418989778496e-05,-9.906200830300804e-06,4.5680953917326406e-05
2.4941966330516152e-05,-5.311225322657265e-05,3.052497413591482e-05,3.084653872065246e-05,-1.2979468920093495e-05,5.054391294834204e-05
2.634891279740259e-05,-5.392833918449469e-05,3.0217779567465186e-05,2.4073762688203715e-05,-1.6126046830322593e-05,5.499066173797473e-05
2.6048897780128755e-05,-5.383907773648389e-05,3.395375097170472e-05,1.8632101273396984e-05,-1.6730602510506287e-05,5.479752508108504e-05
2.428381958452519e-05,-5.044371573603712e-05,3.510430542519316e-05,1.2583024727064185e-05,-1.591977161297109e-05,5.317023169482127e-05
2.2631928004557267e-05,-4.7724875912535936e-05,3.413649756112136e-05,6.3375491663464345e-06,-1.8766986613627523e-05,4.912264193990268e-05
2.275273800478317e-05,-4.743786485050805e-05,3.547069718479179e-05,6.265971933316905e-06,-2.0400064386194572e-05,4.353995245764963e-05
2.1288304196787067e-05,-4.6764158469159156e-05,3.451512020546943e-05,1.768113361322321e-05,-2.095552918035537e-05,5.2114563004579395e-05
2.0429353753570467e-05,-4.7133351472439244e-05,3.566453597159125e-05,3.223930616513826e-05,-2.3195545509224758e-05,6.546593795064837e-05
2.2869968233862892e-05,-4.7877347242319956e-05,3.6892499338136986e-05,3.624087185016833e-05,-2.3279842935153283e-05,7.218372047645971e-05
2.8757689506164752e-05,-4.6422188461292535e-05,3.6195349821355194e-05,3.504981941659935e-05,-2.575827056716662e-05,7.076851761667058e-05
3.238298813812435e-05,-4.4038373744115233e-05,3.4390886867186055e-05,3.298329102108255e-05,-3.7981058994773775e-05,7.108093268470839e-05
3.324641875224188e-05,-4.409040411701426e-05,3.2289772207150236e-05,3.3668278774712235e-05,-4.882057328359224e-05,7.884898514021188e-05
3.324286444694735e-05,-4.683590304921381e-05,2.920768929470796e-05,3.0964067263994366e-05,-5.1858740334864706e-05,8.395173790631816e-05
3.2846488466020674e-05,-4.911420546704903e-05,2.600518928375095e-05,2.457793198118452e-05,-5.026681537856348e-05,8.830938895698637e-05
3.1906471122056246e-05,-5.018816955271177e-05,2.482766649336554e-05,2.1612477212329395e-05,-4.53250904683955e-05,9.09520240384154e-05
2.8770537028321996e-05,-5.102340583107434e-05,2.5820698283496313e-05,2.2343210730468854e-05,-3.864352038362995e-05,8.722001075511798e-05
2.414503433101345e-05,-5.135782339493744e-05,2.6838106350624003e-05,2.0709592718048953e-05,-2.9170802008593455e-05,7.950195140438154e-05
2.2701791749568656e-05,-5.05311691085808e-05,2.7014299121219665e-05,1.9564731701393612e-05,-1.735156365612056e-05,7.559148070868105e-05
2.551507714088075e-05,-4.8874979256652296e-05,2.678390774235595e-05,2.3684435291215777e-05,-5.880735898244893e-06,7.257953257067129e-05
2.688720269361511e-05,-4.835333311348222e-05,2.681658588699065e-05,2.6162497306359e-05,2.9455218282237183e-06,6.636087346123531e-05
2.7466192477731965e-05,-5.0364491471555084e-05,2.82962791970931e-05,2.0746236259583384e-05,1.007414630294079e-05,5.7013541663764045e-05
2.975760435219854e-05,-5.339009658200666e-05,3.0980630981503054e-05,1.3331663467397448e-05,1.679480010352563e-05,4.89064805151429e-05
3.1592597224516794e-05,-5.331468128133565e-05,3.4555469028418884e-05,1.269067342946073e-05,2.174884320993442e-05,4.9116828449768946e-05
2.955318814201746e-05,-4.954200267093256e-05,3.5448847484076396e-05,1.6297402908094227e-05,2.313205368409399e-05,6.155139999464154e-05
2.546594805608038e-05,-4.5187662180978805e-05,3.35765398631338e-05,2.0717057850561105e-05,2.080508966173511e-05,7.721733709331602e-05
2.2248839741223492e-05,-4.48301580036059e-05,3.1499628676101565e-05,2.200595372414682e-05,1.697774132480845e-05,8.515752415405586e-05
2.289496478624642e-05,-4.888338298769668e-05,3.238346835132688e-05,2.0081282855244353e-05,1.2217817129567266e-05,8.66038171807304e-05
2.572338235040661e-05,-5.026154758525081e-05,3.251837188145146e-05,1.9514383893692866e-05,6.349835985020036e-06,8.017411164473742e-05
2.4981307433336042e-05,-5.115130261401646e-05,3.0661201890325174e-05,2.284518996020779e-05,-1.732368673401652e-06,7.082855881890282e-05
2.036138357652817e-05,-5.216441786615178e-05,3.0446957680396736e-05,2.9361634005908854e-05,-1.129016891354695e-05,6.520970782730728e-05
1.8799881218001246e-05,-5.0200847908854485e-05,2.9490429369616322e-05,3.8114641938591376e-05,-1.7894095435622148e-05,5.152256926521659e-05
2.074023723253049e-05,-4.543874820228666e-05,2.896217119996436e-05,3.9026188460411504e-05,-2.0595196474459954e-05,3.2906740671023726e-05
2.3528920792159624e-05,-4.0986022213473916e-05,2.994300848513376e-05,2.9473529139067978e-05,-2.1381811166065745e-05,2.6477484425413422e-05
2.416136339888908e-05,-4.110960799152963e-05,2.773379674181342e-05,1.9545856048353016e-05,-2.3098153178580105e-05,2.808863064274192e-05
2.3397809854941443e-05,-4.479992276174016e-05,2.580031105026137e-05,1.403893929818878e-05,-2.1132211259100586e-05,3.036948328372091e-05
2.2419821107177995e-05,-4.911202267976478e-05,2.902930646087043e-05,1.2701018931693397e-05,-2.0532865164568648e-05,3.4482069168007e-05
1.9204300770070404e-05,-5.027907172916457e-05,3.3585893106646836e-05,1.848608735599555e-05,-2.5471870685578324e-05,4.4255666580284014e-05
1.4164256754156668e-05,-5.1827206334564835e-05,3.283699697931297e-05,2.4288499844260514e-05,-3.45806656696368e-05,5.14956445840653e-05
1.0291216312907636e-05,-5.567868356592953e-05,2.914487231464591e-05,2.7279709684080444e-05,-4.7338686272269115e-05,5.010361928725615e-05
9.59535736910766e-06,-6.0352747823344544e-05,2.4575632778578438e-05,3.2893440220505e-05,-5.9314836107660085e-05,4.9792102799983695e-05
1.1755664672818966e-05,-6.381487764883786e-05,2.11156493605813e-05,4.130976594751701e-05,-6.121160549810156e-05,5.368312122300267e-05
1.5169655853242148e-05,-6.338876846712083e-05,2.3420068828272633e-05,4.914644523523748e-05,-4.8119083658093587e-05,5.950375634711236e-05
1.8410499251331203e-05,-5.939258699072525e-05,2.9432298106257804e-05,5.001128010917455e-05,-2.8316217139945365e-05,6.507302896352485e-05
2.0264753402443603e-05,-5.473364217323251e-05,3.3456362871220335e-05,3.789487891481258e-05,-1.190542934637051e-05,6.818253314122558e-05
1.995624916162342e-05,-5.219653758103959e-05,3.386484968359582e-05,2.1252424630802125e-05,-2.1090438622195506e-06,6.98693620506674e-05
1.8355734937358648e-05,-5.185377813177183e-05,3.1803861929802224e-05,1.2263070857443381e-05,5.018801402911777e-06,7.32084663468413e-05
1.800738027668558e-05,-5.245218562777154e-05,2.8964055672986433e-05,1.1101730706286617e-05,1.0508916602702811e-05,7.860869664000347e-05
1.9325976609252393e-05,-5.079735637991689e-05,2.748879705904983e-05,1.4503058082482312e-05,1.290466207137797e-05,8.386457193410024e-05
1.8828344764187932e-05,-4.757990245707333e-05,2.8326174287940376e-05,1.9835188140859827e-05,1.2044386494380888e-05,9.230196883436292e-05
1.5470639482373372e-05,-4.7081201046239585e-05,3.054777334909886e-05,2.9057760912110098e-05,1.0979068065353204e-05,0.00010253676009597257
1.1496471415739506e-05,-5.015517308493145e-05,3.261281381128356e-05,4.031007119920105e-05,1.0760708391899243e-05,0.00010562124225543812
1.029257236950798e-05,-4.987927604815923e-05,3.3519419957883656e-05,4.096644261153415e-05,1.2548654922284186e-05,0.00010065241804113612
1.1120519047835842e-05,-4.480175630305894e-05,3.304576239315793e-05,3.1230887543642893e-05,1.4571017345588189e-05,9.521673928247765e-05
1.2306035387155134e-05,-4.0310773329110816e-05,3.382287104614079e-05,2.8316420866758563e-05,1.231068108609179e-05,9.068495273822919e-05
1.402386260451749e-05,-3.908822327503003e-05,3.4037195291602984e-05,3.2122501579578966e-05,6.168453182908706e-06,8.140926365740597e-05
1.838138086895924e-05,-4.3529904360184446e-05,3.4487380617065355e-05,3.1866118661127985e-05,4.6104673856461886e-07,6.510536331916228e-05
2.2897824237588793e-05,-4.6538971218978986e-05,3.5273635148769245e-05,2.5676663426565938e-05,-3.509778025545529e-06,4.5803779357811436e-05
2.3678199795540422e-05,-4.701163197751157e-05,3.5804765502689406e-05,2.36020605370868e-05,-5.002121724828612e-06,2.3232099920278415e-05
2.224077979917638e-05,-4.7323574108304456e-05,3.711963290697895e-05,2.4031485736486502e-05,-3.676489541248884e-06,-2.189304950661608e-06
2.1866124370717444e-05,-4.6211447624955326e-05,3.521127291605808e-05,2.4998935259645805e-05,-2.089969029839267e-06,-2.51045566983521e-05
2.129769382008817e-05,-4.569561133394018e-05,3.11716903524939e-05,2.9905710107414052e-05,-4.082774012204027e-06,-3.278110671089962e-05
2.0850127839366905e-05,-4.561398600344546e-05,3.14416283799801e-05,3.332849883008748e-05,-7.624826139362995e-06,-2.2404241462936625e-05
2.1535350242629647e-05,-4.713142698165029e-05,3.581849887268618e-05,3.628779813880101e-05,-1.2472261914808769e-05,-6.728512744302861e-06
2.5447905500186607e-05,-4.7722376621095464e-05,4.0180570067605004e-05,4.350427843746729e-05,-1.5552735931123607e-05,9.039193173521198e-06
3.0040053388802335e-05,-4.8929145123111084e-05,3.985729563282803e-05,4.948428613715805e-05,-1.6873114873305894e-05,2.886230322474148e-05
3.138710599159822e-05,-4.998163058189675e-05,3.61415914085228e-05,5.180894004297443e-05,-2.371023947489448e-05,5.844356564921327e-05
3.1408264476340264e-05,-4.9974558351095766e-05,3.280973032815382e-05,5.229151065577753e-05,-3.484682383714244e-05,8.661321044201031e-05
3.117197775281966e-05,-5.003791011404246e-05,3.094887506449595e-05,4.918519334751181e-05,-4.3817624828079715e-05,0.00010038510663434863
3.0749077268410474e-05,-4.9848407797981054e-05,3.296065187896602e-05,4.463575533009134e-05,-4.470731073524803e-05,9.375184890814126e-05
2.9209830245235935e-05,-4.934810567647219e-05,3.6882654967484996e-05,3.820659912889823e-05,-3.8867096009198576e-05,7.445360097335652e-05
2.7781092285295017e-05,-4.798960071639158e-05,3.829003617283888e-05,3.248800567234866e-05,-2.819171641021967e-05,5.7273791753686965e-05
2.4685718017281033e-05,-4.5271321141626686e-05,3.712224861374125e-05,2.924772707046941e-05,-1.8361926777288318e-05,4.72433639515657e-05
1.92170209629694e-05,-4.349517621449195e-05,3.4406573831802234e-05,2.623083673825022e-05,-1.118090767704416e-05,4.1930830775527284e-05
1.6056321328505874e-05,-4.334406185080297e-05,3.057419235119596e-05,2.266027149744332e-05,-3.39865209753043e-06,4.271969010005705e-05
1.702341432974208e-05,-4.3045281927334145e-05,2.7934178433497436e-05,2.1243651644908823e-05,5.380812126531964e-06,4.93265652039554e-05
1.8810185792972334e-05,-4.300433283788152e-05,2.7799600502476096e-05,2.2479574909084477e-05,1.3215776561992243e-05,5.873697227798402e-05
1.9166174752172083e-05,-4.477843322092667e-05,2.7408628739067353e-05,2.3128935936256312e-05,1.801032885850873e-05,6.918948201928288e-05
1.712798075459432e-05,-4.966527922078967e-05,2.488912286935374e-05,2.2423935661208816e-05,1.8860066120396368e-05,7.889219705248252e-05
1.5757079381728545e-05,-5.380691072787158e-05,2.1242816728772596e-05,2.4393386411247775e-05,1.786783650459256e-05,8.707633969606832e-05
1.912244078994263e-05,-5.340947973309085e-05,2.0568379113683477e-05,3.316957372589968e-05,1.7413949535693973e-05,8.829397847875953e-05
2.4099936126731336e-05,-4.832073682337068e-05,2.3914946723380126e-05,4.4044987589586526e-05,1.550339766254183e-05,8.194334805011749e-05
2.3764116122038104e-05,-4.3405114411143586e-05,2.6123825591639616e-05,4.9373247748008e-05,1.1723332136170939e-05,7.278226257767528e-05
1.9660474208649248e-05,-4.144076956436038e-05,2.6235939003527164e-05,4.984547558706254e-05,9.042916644830257e-06,6.677074998151511e-05
1.899340350064449e-05,-4.365986751508899e-05,2.6141386115341447e-05,4.829649697057903e-05,7.216398444143124e-06,6.246120028663427e-05
2.385132756899111e-05,-4.768972212332301e-05,2.5645724235801026e-05,5.034181958762929e-05,1.7336610653728712e-06,5.663601405103691e-05
2.7270600185147487e-05,-4.772112151840702e-05,2.6231737138004974e-05,5.187922579352744e-05,-5.133134891366353e-06,4.5893069909652695e-05
2.7033553124056198e-05,-4.437242751009762e-05,2.831989331752993e-05,4.8793957830639556e-05,-9.413310181116685e-06,2.9313547202036716e-05
2.7826788937090896e-05,-4.362772961030714e-05,3.112530248472467e-05,4.2889158066827804e-05,-9.023207894642837e-06,1.9838485968648456e-05
2.685157596715726e-05,-4.442667341209017e-05,3.265485793235712e-05,3.357975947437808e-05,-7.564856332464842e-06,2.0569910702761263e-05
2.619243969093077e-05,-4.515115506364964e-05,3.1926247174851596e-05,2.7556723580346443e-05,-9.5753202913329e-06,2.0078143279533833e-05
2.7141695682075806e-05,-4.646012530429289e-05,3.108210876234807e-05,2.4640754418214783e-05,-1.0968632523145061e-05,1.841323137341533e-05
2.840037632267922e-05,-4.6014643885428086e-05,3.210463546565734e-05,2.402256359346211e-05,-1.14796421257779e-05,2.154571848222986e-05
3.0143750336719677e-05,-4.4562748371390626e-05,3.571038905647583e-05,1.8291026208316907e-05,-1.0565640877757687e-05,3.229231515433639e-05
3.148642281303182e-05,-4.687496766564436e-05,3.746240327018313e-05,9.868545930658001e-06,-9.073548426385969e-06,4.366778739495203e-05
3.118659515166655e-05,-5.2384959417395294e-05,3.653932435554452e-05,4.522582003119169e-06,-8.746479579713196e-06,5.498982864082791e-05
2.9302969778655097e-05,-5.580282595474273e-05,3.5837667383020744e-05,6.266404994903496e-08,-8.901032742869575e-06,6.778427632525563e-05
2.8059030228178017e-05,-5.4426065617008135e-05,3.8104473787825555e-05,-4.437789357325528e-06,-7.4559820859576575e-06,7.530083530582488e-05
2.8135988031863235e-05,-5.18213419127278e-05,3.9130525692598894e-05,-3.5925409065384883e-06,-6.163775196910137e-06,7.016325980657712e-05
2.7174501155968755e-05,-5.042740303906612e-05,3.5306118661537766e-05,1.264813590751146e-06,-6.687680979666766e-06,4.9717487854650244e-05
2.469695573381614e-05,-4.9114427383756265e-05,2.978502379846759e-05,3.575809614630998e-06,-7.51120660424931e-06,2.5949553673854098e-05
2.3378101104754023e-05,-4.763274046126753e-05,2.941579259641003e-05,7.084842309268424e-06,-9.929433872457594e-06,1.912769948830828e-05
2.2102187358541414e-05,-4.769184670294635e-05,3.289895175839774e-05,1.5479494322789833e-05,-1.374855128233321e-05,3.107831071247347e-05
2.060735278064385e-05,-4.8872640036279336e-05,3.570220360415988e-05,2.7302932721795514e-05,-1.701412838883698e-05,4.434149741427973e-05
1.8706685295910574e-05,-4.904293018626049e-05,3.67573848052416e-05,3.448602365097031e-05,-1.886489371827338e-05,5.384879477787763e-05
1.6736843463149853e-05,-4.7562960389768705e-05,3.4023170883301646e-05,3.7270670873112977e-05,-2.0889627194264904e-05,6.759677489753813e-05
1.4948095667932648e-05,-4.457460454432294e-05,2.9128654205123894e-05,3.9387257857015356e-05,-2.2302783690975048e-05,8.583013550378382e-05
1.422180503141135e-05,-4.4881042413180694e-05,2.7208967367187142e-05,4.444268051884137e-05,-2.2453155906987377e-05,9.627225517760962e-05
1.6675099686835892e-05,-4.73198524559848e-05,2.98316081170924e-05,5.2476461860351264e-05,-2.3034777768771164e-05,9.079779556486756e-05
2.0264436898287386e-05,-4.8185058403760195e-05,3.0504650567309e-05,5.7623154134489596e-05,-2.3657159545109607e-05,7.209990872070193e-05
2.0272478650440462e-05,-4.967945642420091e-05,2.665841930138413e-05,5.414318002294749e-05,-2.085819505737163e-05,5.590121145360172e-05
1.9095106836175546e-05,-5.281016638036817e-05,2.1408121028798632e-05,4.7731195081723854e-05,-1.7652597307460383e-05,5.307639730744995e-05
2.2039132090867497e-05,-5.4955071391304955e-05,2.4089265934890136e-05,4.12493318435736e-05,-1.4995802303019445e-05,5.8802455896511674e-05
2.4534652766305953e-05,-5.237820005277172e-05,3.128226308035664e-05,3.5386379749979824e-05,-1.125737890106393e-05,6.519239104818553e-05
2.068918001896236e-05,-5.017827788833529e-05,3.322039992781356e-05,2.9664313842658885e-05,-1.0191653927904554e-05,6.342207780107856e-05
1.7102314814110287e-05,-5.340774077922106e-05,3.084515265072696e-05,2.1412477508420125e-05,-1.0095936886500567e-05,5.317464456311427e-05
1.8560949683887884e-05,-5.4432253818959e-05,2.732337270572316e-05,1.5242238987411838e-05,-8.534813787264284e-06,5.094953303341754e-05
2.184936238336377e-05,-5.428868462331593e-05,2.6377012545708567e-05,1.3502973160939291e-05,-5.415543455455918e-06,5.901360054849647e-05
2.3649463400943205e-05,-5.46894698345568e-05,2.7090563889942132e-05,1.5047911801957525e-05,-3.667996907097404e-06,6.34891985100694e-05
2.5471856133663096e-05,-5.5092747061280534e-05,2.8404734621290118e-05,1.7369797205901705e-05,-7.29312432667939e-06,6.235504406504333e-05
2.8130689315730706e-05,-5.385528493206948e-05,3.158851177431643e-05,1.6346444681403227e-05,-9.362434866488911e-06,6.255757762119174e-05
2.8235826903255656e-05,-4.9455324187874794e-05,3.4649008739506826e-05,1.379688001179602e-05,-9.353379027743358e-06,6.130653491709381e-05
2.606838825158775e-05,-4.6406337787630036e-05,3.59952864528168e-05,1.3880428923584986e-05,-1.213326868310105e-05,5.626598795061e-05
2.1696714611607604e-05,-4.648446338251233e-05,3.381858186912723e-05,1.7817903426475823e-05,-1.863227953435853e-05,5.3448973631020635e-05
1.7533780919620767e-05,-4.737480776384473e-05,3.0923940357752144e-05,2.5083711079787463e-05,-2.265881084895227e-05,5.230700844549574e-05
1.4730723705724813e-05,-4.5810560550307855e-05,3.062613177462481e-05,3.0344215701916255e-05,-2.2830454327049665e-05,5.357560803531669e-05
1.3026911801716778e-05,-4.29189094575122e-05,3.319555617053993e-05,3.3023388823494315e-05,-2.268189928145148e-05,5.72701173950918e-05
1.2301024980843067e-05,-4.065404209541157e-05,3.681784437503666e-05,4.051371797686443e-05,-2.237787157355342e-05,6.158494215924293e-05
1.2902284652227536e-05,-4.152562178205699e-05,3.9003134588710964e-05,6.099124948377721e-05,-2.2153455574880354e-05,6.288596341619268e-05
1.4781081517867278e-05,-4.730824366561137e-05,3.9529826608486474e-05,8.896487997844815e-05,-2.1836567611899227e-05,5.901262193219736e-05
1.5111540960788261e-05,-5.401564703788608e-05,3.911214662366547e-05,0.00010478328476892784,-1.9477300156722777e-05,5.390429942053743e-05
1.287816576223122e-05,-5.707969103241339e-05,3.645576362032443e-05,9.47434818954207e-05,-1.4626859410782345e-05,5.286417581373826e-05
1.117566989705665e-05,-5.759413033956662e-05,3.3013344364007935e-05,6.734292401233688e-05,-1.1822740816569421e-05,6.022757224855013e-05
1.3201421097619459e-05,-5.799136488349177e-05,3.167440081597306e-05,4.171088949078694e-05,-1.200649330712622e-05,7.429117249557748e-05
1.738727769406978e-05,-5.835923002450727e-05,3.07338559650816e-05,2.8945798476343043e-05,-1.5156722838582937e-05,8.291829726658762e-05
1.8871638530981727e-05,-5.94451958022546e-05,3.1814768590265885e-05,2.5425779313081875e-05,-1.6420575775555335e-05,7.888054824434221e-05
1.8846612874767743e-05,-6.0885005950694904e-05,3.65286432497669e-05,2.1849726181244478e-05,-1.3879720427212305e-05,6.683303217869252e-05
2.2889324100106023e-05,-5.8974226703867316e-05,3.824094892479479e-05,1.8341099348617718e-05,-1.1842882486234885e-05,6.208437116583809e-05
2.6513984266784973e-05,-5.3870891861151904e-05,3.76741481886711e-05,1.5446452380274422e-05,-1.3542691704060417e-05,7.272186485351995e-05
2.2795982658863068e-05,-5.180967491469346e-05,3.7576442991849035e-05,1.6830086678965017e-05,-1.5098758012754843e-05,7.912745786597952e-05
1.608143975317944e-05,-5.277008312987164e-05,3.534345523803495e-05,2.04703592316946e-05,-1.48381368489936e-05,7.205242582131177e-05
1.4612944141845219e-05,-5.369549398892559e-05,3.416973413550295e-05,2.3573309590574354e-05,-1.3927435247751419e-05,5.6799301091814414e-05
1.6229070752160624e-05,-5.551482900045812e-05,3.072615436394699e-05,2.9582990464405157e-05,-1.3698803741135634e-05,4.835084837395698e-05
1.645313750486821e-05,-5.6953023886308074e-05,2.788015808619093e-05,3.805472078965977e-05,-1.4307602214103099e-05,5.0326299970038235e-05
1.7145837773568928e-05,-5.729625991079956e-05,2.9217562769190408e-05,4.8317051550839096e-05,-1.5146364603424445e-05,4.874322985415347e-05
1.7089390894398093e-05,-5.426927236840129e-05,3.200790524715558e-05,5.221371247898787e-05,-1.6848187442519702e-05,3.915244451491162e-05
1.4547635146300308e-05,-5.0960581575054675e-05,3.4058408346027136e-05,4.9468471843283623e-05,-1.688926749920938e-05,2.9749209716101177e-05
1.1119161172246095e-05,-5.2028364734724164e-05,3.518469020491466e-05,4.038563565700315e-05,-1.6337544366251677e-05,3.331149127916433e-05
8.115730452118441e-06,-5.6774781114654616e-05,3.352724525029771e-05,2.6571666239760816e-05,-1.6539737771381624e-05,4.6776945964666083e-05
7.756186278129462e-06,-5.826040796819143e-05,3.063645272050053e-05,1.3596417375083547e-05,-1.6016374502214603e-05,6.400403071893379e-05
1.2011455510219093e-05,-5.5245229305000976e-05,3.0315748517750762e-05,6.577261046913918e-06,-1.5475648979190737e-05,7.383695628959686e-05
1.821230944187846e-05,-5.199125735089183e-05,2.9515847927541472e-05,7.013598406047095e-06,-1.7624081010580994e-05,7.131564780138433e-05
2.2911568521521986e-05,-4.9845803005155176e-05,2.829410004778765e-05,9.903853424475528e-06,-2.3645801775273867e-05,6.77372154314071e-05
2.641667379066348e-05,-5.024100755690597e-05,2.712556488404516e-05,9.605773811927065e-06,-2.9672610253328457e-05,7.12414548615925e-05
3.0582556064473465e-05,-5.203666660236195e-05,2.5357659978908487e-05,5.348670583771309e-06,-3.5668592317961156e-05,7.471058779628947e-05
3.725196438608691e-05,-5.363941818359308e-05,2.430631866445765e-05,5.210079621065233e-07,-4.294287646189332e-05,6.997643504291773e-05
4.395153155201115e-05,-5.3570824093185365e-05,2.5550205464242026e-05,-2.332267058591242e-06,-4.8064321163110435e-05,5.594849062617868e-05
4.7646033635828644e-05,-5.22371192346327e-05,2.65052767645102e-05,-1.554944105919276e-06,-4.5974877139087766e-05,3.8768212107243016e-05
4.8409732698928565e-05,-5.0455255404813215e-05,2.6021303710876964e-05,-5.678442107637238e-07,-3.6559049476636574e-05,2.6893330868915655e-05
4.69232581963297e-05,-5.002965554012917e-05,2.4629429390188307e-05,1.226049221259018e-06,-2.0772358766407706e-05,2.3555621737614274e-05
4.381266626296565e-05,-5.075656372355297e-05,2.4463097361149266e-05,4.769709903484909e-06,-2.177460913799223e-07,2.723966281337198e-05
4.1625658923294395e-05,-4.989344233763404e-05,2.4744995243963785e-05,1.0445415682625026e-05,2.3571812562295236e-05,3.7612495361827314e-05
3.968822420574725e-05,-4.660494232666679e-05,2.4302531528519467e-05,1.557803807372693e-05,4.976153650204651e-05,5.862187026650645e-05
3.605107849580236e-05,-4.654977237805724e-05,2.7057447368861176e-05,2.0126170056755655e-05,6.879612192278728e-05,8.335835445905104e-05
3.1852407119004056e-05,-4.8014011554187164e-05,2.9898597858846188e-05,2.6959014576277696e-05,7.43130367482081e-05,0.00010345917689846829
2.6622719815350138e-05,-4.7372785047627985e-05,2.9862316296203062e-05,3.1761515856487677e-05,6.971403490751982e-05,0.00011581368744373322
2.4375758584938012e-05,-4.6439276047749445e-05,2.816336927935481e-05,3.429605203564279e-05,5.8342811826150864e-05,0.00012223102385178208
2.2955378881306387e-05,-4.512388113653287e-05,2.871851575036999e-05,4.1453622543485835e-05,4.409633402246982e-05,0.00011808398267021403
1.9517665350576863e-05,-4.7838835598668084e-05,3.0891642381902784e-05,5.663032425218262e-05,3.07518603221979e-05,9.94821748463437e-05
1.5222319234453607e-05,-5.447272633318789e-05,2.7447220418252982e-05,6.872083031339571e-05,1.7482650946476497e-05,7.110789010766894e-05
9.794925063033588e-06,-5.8707209973363206e-05,2.0089659301447682e-05,6.58016069792211e-05,2.8229428608028684e-06,4.437613097252324e-05
4.626426289178198e-06,-5.7838737120619044e-05,1.5367206287919544e-05,5.445090573630296e-05,-9.835020136961248e-06,2.7408785172156058e-05
2.0476466033869656e-06,-5.506536763277836e-05,1.5091525710886344e-05,4.226600140100345e-05,-1.4540511074301321e-05,1.833357418945525e-05
3.896922862622887e-06,-5.502858039108105e-05,1.527157292002812e-05,3.5256685805507004e-05,-1.5528161384281702e-05,2.1290155927999876e-05
7.127729077183176e-06,-5.625170160783455e-05,1.851716842793394e-05,3.336352892802097e-05,-1.5989324310794473e-05,3.473243850748986e-05
1.137585422839038e-05,-5.5784104915801436e-05,2.5649593226262368e-05,3.0310387955978513e-05,-1.6528159903828055e-05,4.6464607294183224e-05
1.3842204680258874e-05,-5.1200517191318795e-05,3.149205804220401e-05,2.7026911993743852e-05,-1.748310933180619e-05,4.9860453145811334e-05
1.4601117072743364e-05,-4.549872028292157e-05,3.324509088997729e-05,2.6854902898776345e-05,-1.8877624825108796e-05,4.67613099317532e-05
1.5589705071761273e-05,-4.43046483269427e-05,3.257448042859323e-05,2.4395290893153287e-05,-1.973783946596086e-05,4.1213825170416385e-05
1.7318163372692652e-05,-4.677590186474845e-05,3.1618550565326586e-05,1.5948004147503525e-05,-2.1834124709130265e-05,3.8285666960291564e-05
1.7931604816112667e-05,-4.868757605436258e-05,3.105281575699337e-05,7.198665116447955e-06,-2.472947016940452e-05,3.977852247771807e-05
1.711345794319641e-05,-4.7899076889734715e-05,3.0286628316389397e-05,8.53873245887371e-07,-2.6721911126514897e-05,4.216670276946388e-05
1.7837743143900298e-05,-4.61408453702461e-05,2.990707798744552e-05,2.8804361562606573e-08,-2.7237425456405617e-05,4.3364911107346416e-05
1.8509475921746343e-05,-4.488102422328666e-05,3.2645053579472005e-05,5.773981683887541e-06,-2.7242665964877233e-05,4.6143548388499767e-05
1.7716849470161833e-05,-4.475660898606293e-05,3.594390000216663e-05,1.3520940228772815e-05,-2.7095455152448267e-05,4.982749669579789e-05
1.8646669559529983e-05,-4.546355194179341e-05,3.653364910860546e-05,1.7834770915214904e-05,-2.4102027964545414e-05,5.228743975749239e-05
2.2447728042607196e-05,-4.741341035696678e-05,3.5415712773101404e-05,2.043169479293283e-05,-1.73782082129037e-05,5.725035589421168e-05
2.546753967180848e-05,-4.926027395413257e-05,3.462055610725656e-05,2.182197022193577e-05,-9.31280737859197e-06,6.210727588040754e-05
2.7729185603675433e-05,-4.9369500629836693e-05,3.6398017982719466e-05,1.9834118575090542e-05,-3.7035135846963385e-06,6.72578826197423e-05
2.9268881917232648e-05,-4.8980418796418235e-05,3.793871292145923e-05,1.5239455933624413e-05,-3.5131745335093e-06,7.627723243786022e-05
3.075509812333621e-05,-4.887828981736675e-05,3.615478635765612e-05,1.1459647794254124e-05,-1.0119143553311005e-05,8.132492803269997e-05
3.320046016597189e-05,-4.7250683564925566e-05,3.5362798371352255e-05,1.3257536920718849e-05,-2.072900315397419e-05,8.265073120128363e-05
3.66926469723694e-05,-4.366031862446107e-05,3.515732896630652e-05,1.7000889783957973e-05,-3.0239340048865415e-05,8.533331129001454e-05
3.770207695197314e-05,-4.3004602048313245e-05,3.24466782331001e-05,2.0098115783184767e-05,-3.0815976060694084e-05,8.582921873312443e-05
3.667981218313798e-05,-4.355590863269754e-05,2.9217882911325432e-05,2.5219209419446997e-05,-2.7000705813406967e-05,8.016263745957986e-05
3.3894779335241765e-05,-4.203572098049335e-05,2.9014405299676582e-05,3.3103959140134975e-05,-2.2806749257142656e-05,7.094888132996857e-05
2.9857515983167104e-05,-4.147962317802012e-05,2.980825047416147e-05,3.9263595681404695e-05,-2.013399534916971e-05,6.02909094595816e-05
2.4203462089644745e-05,-3.9257203752640635e-05,3.161451968480833e-05,3.652193845482543e-05,-1.9056400560657494e-05,5.158153362572193e-05
2.0157458493486047e-05,-3.8204168959055096e-05,3.0493582016788423e-05,2.94700530503178e-05,-1.4280198229243979e-05,5.081270865048282e-05
2.0888535800622776e-05,-4.174392233835533e-05,2.9260780138429254e-05,2.4177203158615157e-05,-5.99101167608751e-06,5.40363289474044e-05
2.214484084106516e-05,-4.52128988399636e-05,3.102382834185846e-05,2.0797715478693135e-05,-1.625386971682019e-06,5.404263356467709e-05
2.357246557949111e-05,-4.7181296395137906e-05,3.1921506888465956e-05,1.9748536942643113e-05,1.5351328102042316e-06,4.920093124383129e-05
2.49189579335507e-05,-4.771858948515728e-05,3.149823533021845e-05,2.27195632760413e-05,8.0245508797816e-06,4.418653770699166e-05
2.5056688173208386e-05,-4.6697849029442295e-05,3.064878546865657e-05,2.8054795620846562e-05,1.2196821444376837e-05,4.553921826300211e-05
2.2516525859828107e-05,-4.636961602955125e-05,3.0397803129744716e-05,3.226331318728626e-05,1.0052157449536026e-05,5.424739356385544e-05
1.944293217093218e-05,-4.486580291995779e-05,3.244079925934784e-05,3.426498733460903e-05,4.073958280059742e-06,6.622024375246838e-05
1.786021857697051e-05,-4.151662506046705e-05,3.611297870520502e-05,3.4393302485113963e-05,2.8749976621611495e-08,7.552135502919555e-05
1.9308052287669852e-05,-3.958894740208052e-05,3.634270979091525e-05,3.081929389736615e-05,-3.595924454202759e-06,7.885972445365041e-05
2.0192614101688378e-05,-4.219264883431606e-05,3.2329327950719744e-05,2.212360232078936e-05,-8.252481165982317e-06,7.84041330916807e-05
1.8548293155618012e-05,-4.79951522720512e-05,2.900453910115175e-05,1.6182370018213987e-05,-1.3408871382125653e-05,7.60386828915216e-05
1.538372271170374e-05,-5.2002007578266785e-05,3.141916749882512e-05,1.819188764784485e-05,-2.2771027943235822e-05,7.130612357286736e-05
1.3146601304470096e-05,-5.0948910939041525e-05,3.680499503389001e-05,2.2936570530873723e-05,-3.713327896548435e-05,6.591920828213915e-05
1.222833543579327e-05,-4.6173157898010686e-05,3.980704423156567e-05,2.484690230630804e-05,-4.638544487534091e-05,6.351182673824951e-05
1.1712984814948868e-05,-4.284827446099371e-05,4.1050006984733045e-05,2.6131321646971628e-05,-4.5426259021041915e-05,6.334731006063521e-05
1.2855279237555806e-05,-4.194458233541809e-05,4.2307889088988304e-05,2.8435590138542466e-05,-3.752575139515102e-05,5.9515856264624745e-05
1.438553590560332e-05,-4.224854274070822e-05,4.192838605376892e-05,3.307782026240602e-05,-3.1100727937882766e-05,5.575600516749546e-05
1.717618761176709e-05,-4.3416584958322346e-05,4.190475738141686e-05,3.7930472899461165e-05,-2.9368857212830335e-05,6.143163045635447e-05
1.5904332030913793e-05,-4.337082646088675e-05,4.095738404430449e-05,3.726237628143281e-05,-2.4660490453243256e-05,7.034230657154694e-05
1.1855174307129346e-05,-4.197217640466988e-05,3.751085387193598e-05,3.4366807085461915e-05,-1.2096824320906308e-05,6.822851719334722e-05
1.258098563994281e-05,-4.226547389407642e-05,3.456061676843092e-05,3.44438522006385e-05,5.074384262115927e-06,5.748000694438815e-05
1.8948367142002098e-05,-4.54849359812215e-05,3.429665957810357e-05,4.158300725976005e-05,1.6680676708347164e-05,5.0634120270842686e-05
2.5498095055809245e-05,-4.780013478011824e-05,3.669037687359378e-05,5.292292553349398e-05,2.1365405700635165e-05,5.399374640546739e-05
2.54102487815544e-05,-4.537589484243654e-05,4.1881419747369364e-05,6.150342233013362e-05,2.655521711858455e-05,6.188791303429753e-05
2.1950552763883024e-05,-4.3819676648126915e-05,4.059162165503949e-05,5.7592056691646576e-05,3.252534588682465e-05,6.603766814805567e-05
2.0928040612488985e-05,-4.535608604783192e-05,3.6171782994642854e-05,4.285408431314863e-05,3.452698001638055e-05,7.384615310002118e-05
2.2723526853951626e-05,-4.804736818186939e-05,3.6851495679002255e-05,3.3313699532300234e-05,3.236452903365716e-05,9.016883268486708e-05
2.2513067960971966e-05,-5.006552237318829e-05,3.6405413993634284e-05,3.144893707940355e-05,2.7405767468735576e-05,0.00010557647328823805
1.9720229829545133e-05,-5.076705201645382e-05,3.1129675335250795e-05,3.465146437520161e-05,2.1411220586742274e-05,0.00011366145918145776
1.6947889889706858e-05,-5.164636604604311e-05,2.4794217097223736e-05,3.395853491383605e-05,1.574056841491256e-05,0.00012043338938383386
1.6656036677886732e-05,-5.324227822711691e-05,2.0924348063999787e-05,2.890304858738091e-05,1.2287484423723072e-05,0.00011994629312539473
1.9183262338628992e-05,-5.4763295338489115e-05,1.771957795426715e-05,2.7237048925599083e-05,9.67452706390759e-06,0.00010232167551293969
2.1506781195057556e-05,-5.612902532448061e-05,1.886441714304965e-05,2.975443931063637e-05,3.6375918170961086e-06,6.71904708724469e-05
2.169774415961001e-05,-5.541062637348659e-05,2.5012997866724618e-05,3.320204996271059e-05,-3.32027479998942e-06,2.1340249077184126e-05
2.2457214072346687e-05,-5.364217213355005e-05,3.069830927415751e-05,3.546309017110616e-05,-7.543053470726591e-06,-2.0028990547871217e-05
2.5155346520477906e-05,-5.2724641136592254e-05,3.3508600608911365e-05,3.560955519787967e-05,-8.020992936508264e-06,-5.063214121037163e-05
2.7482905352371745e-05,-5.331256033969112e-05,3.374508742126636e-05,3.531782567733899e-05,-8.84310884430306e-06,-7.039526099106297e-05
2.989349923154805e-05,-5.437773506855592e-05,3.10516006720718e-05,3.9612521504750475e-05,-1.2233692359586712e-05,-7.304942118935287e-05
3.1050018151290715e-05,-5.4376916523324326e-05,2.9217457267805003e-05,4.746049307868816e-05,-1.8602255295263603e-05,-4.9955120630329475e-05
3.0095805414021015e-05,-5.4973046644590795e-05,2.9579743568319827e-05,5.2670937293441966e-05,-2.4432789359707385e-05,-5.665976914315252e-06
2.6860674552153796e-05,-5.600713120657019e-05,2.9544300559791736e-05,5.2153340220684186e-05,-2.6080302632180974e-05,4.056830221088603e-05
2.3622584194527008e-05,-5.5431413784390315e-05,2.5892117264447734e-05,5.119233901496045e-05,-2.4526529159629717e-05,6.796160596422851e-05
2.3146523744799197e-05,-5.460030661197379e-05,2.119363853125833e-05,4.887801333097741e-05,-2.2667245502816513e-05,7.200689287856221e-05
2.3632934244233184e-05,-5.450587559607811e-05,2.1344369088183157e-05,4.757526039611548e-05,-2.1780788301839493e-05,6.5114043536596e-05
2.1711222871090285e-05,-5.297277311910875e-05,2.7127483917865902e-05,4.6753764763707295e-05,-2.1489349819603376e-05,6.780276453355327e-05
1.7612601368455216e-05,-5.401688031270169e-05,3.456395643297583e-05,4.4814707507612184e-05,-2.3941453036968596e-05,8.020141103770584e-05
1.2628368494915776e-05,-5.5973279813770205e-05,3.3546479244250804e-05,4.399492172524333e-05,-2.7776859496952966e-05,8.391110168304294e-05
1.4424248547584284e-05,-5.551673166337423e-05,2.7981859602732584e-05,4.1788687667576596e-05,-3.0126355341053568e-05,6.42808954580687e-05
2.1718144125770777e-05,-5.32702797499951e-05,3.0913946829969063e-05,3.602255310397595e-05,-2.913223215728067e-05,2.542166294006165e-05
2.3910646632430144e-05,-5.2017607231391594e-05,3.5146003938280046e-05,2.7966212655883282e-05,-2.6718373192125e-05,1.1078024726884905e-05
2.424322156002745e-05,-5.287814201437868e-05,3.519954771036282e-05,2.1498912246897817e-05,-2.4038226911216043e-05,3.297063085483387e-05
2.3143327780417167e-05,-5.183046232559718e-05,3.2481562811881304e-05,1.756418714649044e-05,-2.148383646272123e-05,5.2257226343499497e-05
2.2168693249113858e-05,-5.2616123866755515e-05,3.0445904485532083e-05,1.807885928428732e-05,-2.062652310996782e-05,5.8601723139872774e-05
2.369058165641036e-05,-5.793338277726434e-05,3.264923725510016e-05,2.02424362214515e-05,-2.092560134769883e-05,5.994836101308465e-05
2.4840170226525515e-05,-5.979601701255888e-05,3.525431748130359e-05,1.929137397382874e-05,-2.210066668340005e-05,6.543714698636904e-05
2.6336658265790902e-05,-5.7940622355090454e-05,3.74936280422844e-05,1.786584107321687e-05,-2.2109627025201917e-05,6.952589319553226e-05
2.6231626179651357e-05,-5.783129017800093e-05,3.586479579098523e-05,1.9909601178369485e-05,-2.1337447833502665e-05,6.68904249323532e-05
2.526864227547776e-05,-5.907852028030902e-05,3.254861439927481e-05,2.3139624317991547e-05,-2.0234530893503688e-05,6.250715523492545e-05
2.4432531063212082e-05,-5.956054519629106e-05,3.0126650017336942e-05,2.562808003858663e-05,-1.7023668988258578e-05,5.8158166211796924e-05
2.5570139769115485e-05,-5.7917317462852225e-05,2.8476379156927578e-05,2.858937114069704e-05,-1.3045825653534848e-05,6.136253796285018e-05
2.812533057294786e-05,-5.1681774493772537e-05,2.757376933004707e-05,3.2325511710951105e-05,-1.0396630386821926e-05,6.759100506315008e-05
3.060831659240648e-05,-4.478238770388998e-05,2.7901096473215148e-05,3.662994640762918e-05,-1.0512331755307969e-05,6.837591354269534e-05
2.9640035791089758e-05,-4.36413538409397e-05,2.9863123927498236e-05,4.108617577003315e-05,-1.2204124686832074e-05,5.792078809463419e-05
2.549374767113477e-05,-4.9091799155576155e-05,3.1411676900461316e-05,4.3041465687565506e-05,-1.3557902093452867e-05,4.194818393443711e-05
2.3704829800408334e-05,-5.483567656483501e-05,3.193298834958114e-05,4.007702227681875e-05,-1.3051450878265314e-05,3.230616493965499e-05
2.6507592338020913e-05,-5.536504613701254e-05,3.376637687324546e-05,3.3378393709426746e-05,-1.1191718840564135e-05,3.5558816307457164e-05
3.2277213904308155e-05,-5.38804815732874e-05,3.8651156501146033e-05,2.6316954972571693e-05,-9.567854249326047e-06,4.541598536889069e-05
3.489518348942511e-05,-5.361928197089583e-05,4.02865007345099e-05,1.933056046254933e-05,-9.589461114956066e-06,5.6665539887035266e-05
3.191531141055748e-05,-5.227808287600055e-05,3.662230301415548e-05,1.4349712728289887e-05,-1.1381545846234076e-05,7.158514199545607e-05
2.5413799448870122e-05,-5.026397411711514e-05,3.31916417053435e-05,1.4590570572181605e-05,-1.3315516298462171e-05,8.791663276497275e-05
2.0278506781323813e-05,-5.1483271818142384e-05,3.27612433466129e-05,1.8235405150335282e-05,-1.4138227925286628e-05,9.380566189065576e-05
1.7634578398428857e-05,-5.459981184685603e-05,3.395864769117907e-05,2.0666220734710805e-05,-1.2905521543871146e-05,8.949577750172466e-05
1.5961366443661973e-05,-5.56743580091279e-05,3.48886642314028e-05,1.714086829451844e-05,-9.938803486875258e-06,8.866505231708288e-05
1.3320042853592895e-05,-5.389160287450068e-05,3.222678788006306e-05,1.3124591532687191e-05,-7.259983703988837e-06,8.748360414756462e-05
1.2902403796033468e-05,-5.043874625698663e-05,3.0359959055203944e-05,1.1818522580142599e-05,-6.875823146401672e-06,8.150016947183758e-05
1.4971430573496036e-05,-4.994937626179308e-05,3.357621608301997e-05,1.5134354725887533e-05,-1.1497804734972306e-05,7.52216947148554e-05
1.3843414308212232e-05,-5.484294524649158e-05,3.5295037378091365e-05,2.2130869183456525e-05,-1.3972217857372016e-05,7.01334502082318e-05
1.0475972885615192e-05,-5.753602454205975e-05,3.568976171663962e-05,2.874518213502597e-05,-1.0333033969800454e-05,6.169249536469579e-05
1.0229268809780478e-05,-5.697144297300838e-05,3.6575936974259093e-05,3.0573399271816015e-05,-6.7170453803555574e-06,5.074649379821494e-05
1.2965552741661668e-05,-5.322146898834035e-05,3.310710599180311e-05,2.4739050786592998e-05,-5.631596195598831e-06,4.988494765711948e-05
1.5818848623894155e-05,-4.8671219701645896e-05,3.108247619820759e-05,2.2856396753923036e-05,-9.796945050766226e-06,5.866633364348672e-05
1.5822208297322504e-05,-4.6505934733431786e-05,3.5476892662700266e-05,2.9232407541712746e-05,-1.4639510482084006e-05,6.957656296435744e-05
1.1937544513784815e-05,-4.6772653149673715e-05,4.042551518068649e-05,3.838767224806361e-05,-1.493290710641304e-05,8.517600508639589e-05
7.649188773939386e-06,-4.6858091081958264e-05,4.023631481686607e-05,4.470170824788511e-05,-1.3750629477726761e-05,9.82799829216674e-05
6.381605999195017e-06,-4.540717418421991e-05,3.490678864181973e-05,4.6321842091856524e-05,-1.5365212675533257e-05,9.829991176957265e-05
8.368197086383589e-06,-4.560823072097264e-05,3.1627798307454214e-05,4.145034108660184e-05,-1.8142518456443213e-05,8.95986522664316e-05
9.641823453421239e-06,-4.747910861624405e-05,3.1587318517267704e-05,3.057794310734607e-05,-2.030641189776361e-05,8.429359877482057e-05
8.35093032947043e-06,-4.796998109668493e-05,3.059869777644053e-05,1.9406248611630872e-05,-2.2966903998167254e-05,8.380636427318677e-05
9.85447877610568e-06,-4.5255725126480684e-05,2.9510376407415606e-05,1.3271602256281767e-05,-2.3290580429602414e-05,8.58757266541943e-05
1.374196472170297e-05,-4.4399108446668833e-05,3.069224476348609e-05,1.5697716662543826e-05,-2.0887935534119606e-05,8.289775723824278e-05
1.551424247736577e-05,-4.6262699470389634e-05,3.149304029648192e-05,2.209207923442591e-05,-1.858519681263715e-05,7.291801739484072e-05
1.5139972674660385e-05,-4.77612302347552e-05,3.056947389268316e-05,2.7888769182027318e-05,-1.530132612970192e-05,6.328860763460398e-05
1.6770358342910185e-05,-4.588456795318052e-05,3.116128937108442e-05,3.0664090445498005e-05,-1.0621703040669672e-05,5.797839185106568e-05
2.1803967683808878e-05,-4.223287760396488e-05,3.485997876850888e-05,2.7269168640486896e-05,-7.010580247879261e-06,5.5074156989576295e-05
2.6228286515106447e-05,-4.092996459803544e-05,3.719825326697901e-05,1.850439002737403e-05,-4.9679761104926e-06,5.0974231271538883e-05
2.7330394004820846e-05,-4.1296945710200816e-05,3.427876072237268e-05,1.1292815543129109e-05,-4.021911081508733e-06,4.639409962692298e-05
2.460783980495762e-05,-3.967358497902751e-05,2.9074175472487696e-05,7.649794497410767e-06,-3.415533001316362e-06,4.602848275681026e-05
1.9509510821080767e-05,-4.002763671451248e-05,2.4828934328979813e-05,6.065062279958511e-06,-4.344509761722293e-06,5.084764052298851e-05
1.6033181964303367e-05,-4.228442412568256e-05,2.4794409910100512e-05,5.201330623094691e-06,-6.2851195252733305e-06,5.607341881841421e-05
1.7486650904174894e-05,-4.209929102216847e-05,2.665697866177652e-05,7.775181984470692e-06,-9.959984708984848e-06,5.437454819912091e-05
2.2724605514667928e-05,-4.305850961827673e-05,2.7551928724278696e-05,1.8764632841339335e-05,-1.733113640511874e-05,4.213410647935234e-05
2.4788911105133593e-05,-4.226620512781665e-05,2.999554453708697e-05,2.911691990448162e-05,-2.6616553441272117e-05,2.9343480491661467e-05
1.8808799723046832e-05,-4.0845323383109644e-05,3.0977491405792534e-05,3.163003930239938e-05,-3.5472527088131756e-05,2.6119161702808924e-05
1.3956070688436739e-05,-3.966153963119723e-05,3.1077652238309383e-05,2.6513242119108327e-05,-4.34994617535267e-05,3.34953329002019e-05
1.4287577869254164e-05,-3.8485872210003436e-05,3.558512617019005e-05,2.2497268219012767e-05,-5.486267036758363e-05,3.679613655549474e-05
1.5535919374087825e-05,-3.9513761294074357e-05,3.85777821065858e-05,2.6273719413438812e-05,-5.9485959354788065e-05,3.678267967188731e-05
1.7543727153679356e-05,-4.106152118765749e-05,3.450045915087685e-05,3.5288270737510175e-05,-5.416782005340792e-05,3.9057060348568484e-05
2.13221264857566e-05,-4.343817272456363e-05,2.896495789173059e-05,4.092901508556679e-05,-4.6605597162852064e-05,5.204357148613781e-05
2.6029634682345204e-05,-4.356497811386362e-05,2.7362015316612087e-05,4.0103652281686664e-05,-3.7428224459290504e-05,8.015682396944612e-05
2.8753347578458488e-05,-4.152201290708035e-05,2.9148608518880792e-05,3.754200952243991e-05,-2.133299676643219e-05,0.00010521149670239538
2.915719960583374e-05,-4.0553786675445735e-05,2.9898592401877977e-05,2.994279748236295e-05,6.770996151317377e-06,0.00011713441199390218
2.771549770841375e-05,-4.219699985696934e-05,2.946901622635778e-05,1.7554501027916558e-05,3.937754445360042e-05,0.00011039587843697518
2.4950115403044038e-05,-4.4088632421335205e-05,3.011536318808794e-05,6.556862899742555e-06,6.83862017467618e-05,9.358863462693989e-05
2.3532133127446286e-05,-4.4450920540839434e-05,3.3294447348453104e-05,5.325903202901827e-06,8.636875281808898e-05,7.965890836203471e-05
2.344396671105642e-05,-4.385916327009909e-05,3.5791421396424994e-05,9.913686881191097e-06,9.215138561557978e-05,7.516063487855718e-05
2.416326606180519e-05,-4.342170723248273e-05,3.438779094722122e-05,1.860794327512849e-05,8.859088848112151e-05,7.839692261768505e-05
2.489544203854166e-05,-4.463930235942826e-05,3.110245233983733e-05,2.7529607905307785e-05,7.651069608982652e-05,8.002766116987914e-05
2.5768604245968163e-05,-4.617763988790102e-05,2.900104118452873e-05,2.9224031095509417e-05,5.8385416195960715e-05,7.18372393748723e-05
2.6172714569838718e-05,-4.553787221084349e-05,2.9078777515678667e-05,2.8274167561903596e-05,3.8356170989573e-05,5.720159242628142e-05
2.672062510100659e-05,-4.231961429468356e-05,2.8357784685795195e-05,3.187089168932289e-05,1.8399343389319256e-05,4.3729487515520304e-05
2.7309566576150246e-05,-4.022823486593552e-05,2.7443980798125267e-05,3.883518365910277e-05,1.9989072370663052e-06,3.0014787625987083e-05
2.6421410439070314e-05,-4.1014518501469865e-05,2.8793610908905976e-05,4.5700795453740284e-05,-9.619515367376152e-06,1.8252530935569666e-05
2.697001582419034e-05,-4.334600816946477e-05,3.274681148468517e-05,5.134172170073725e-05,-2.022773514909204e-05,2.680050783965271e-05
2.931197923317086e-05,-4.659431942855008e-05,3.601372372941114e-05,4.915865429211408e-05,-2.9321950933081098e-05,6.092112380429171e-05
2.9834951419616118e-05,-5.0759525038301945e-05,3.4648746805032715e-05,4.453291330719367e-05,-3.479836232145317e-05,9.083318582270294e-05
2.7531605155672878e-05,-5.3765976190334186e-05,3.27302077494096e-05,4.82075301988516e-05,-3.713601108756848e-05,9.583024075254798e-05
2.3903763576527126e-05,-5.345284807845019e-05,3.263661346863955e-05,5.646575664286502e-05,-3.678133725770749e-05,7.944951357785612e-05
2.47629068326205e-05,-5.1544102461775765e-05,3.179348277626559e-05,5.7961860875366256e-05,-3.409296914469451e-05,5.896287620998919e-05
2.959121047751978e-05,-4.963993706041947e-05,3.103212657151744e-05,4.975474075763486e-05,-2.9067634386592545e-05,4.140181772527285e-05
3.356301021995023e-05,-4.967971835867502e-05,3.162757639074698e-05,3.340093098813668e-05,-2.5208204533555545e-05,2.1488453057827428e-05
3.336999361636117e-05,-5.251035327091813e-05,3.431818186072633e-05,1.9548988348105922e-05,-2.3490816602134146e-05,1.2206447763674078e-07
3.120639667031355e-05,-5.198398866923526e-05,3.417638799874112e-05,1.8029384591500275e-05,-2.1631811250699684e-05,-1.6394917111028917e-05
3.288244261057116e-05,-5.279513061395846e-05,3.218503115931526e-05,2.1640280465362594e-05,-2.1734987967647612e-05,-2.006186878134031e-05
3.355966691742651e-05,-5.466935544973239e-05,3.1871648388914764e-05,2.2677906599710695e-05,-2.9197257390478626e-05,-1.2102851542294957e-05
3.3057200198527426e-05,-5.198561484576203e-05,3.377223765710369e-05,2.1215431843302213e-05,-4.1346243961015716e-05,6.702556675008964e-06
3.3561162126716226e-05,-5.022481855121441e-05,3.65592168236617e-05,1.4481206562777516e-05,-4.790701495949179e-05,3.6871271731797606e-05
3.5885175748262554e-05,-5.197564314585179e-05,3.556032606866211e-05,9.43889062909875e-06,-4.8386489652330056e-05,6.491987005574629e-05
3.744175046449527e-05,-5.5393185903085396e-05,3.241929880459793e-05,1.3954097994428594e-05,-4.4069241994293407e-05,7.883798389229923e-05
3.4658954973565415e-05,-5.716297164326534e-05,3.137451130896807e-05,2.097383185173385e-05,-3.648164783953689e-05,8.038521627895534e-05
2.8477541491156444e-05,-5.666850120178424e-05,3.3230575354536995e-05,2.552370642661117e-05,-2.8744616429321468e-05,8.259584137704223e-05
2.1685280444216914e-05,-5.654712003888562e-05,3.5964269045507535e-05,3.14990320475772e-05,-2.4144421331584454e-05,8.594853716203943e-05
1.8448919945512898e-05,-5.7904220739146695e-05,3.568798638298176e-05,3.996558370999992e-05,-2.1663085135514848e-05,7.880641351221129e-05
1.802303086151369e-05,-5.9017420426243916e-05,3.282940815552138e-05,4.506546974880621e-05,-1.9776751287281513e-05,6.343962013488635e-05
1.6633790437481366e-05,-5.944025542703457e-05,3.1738138204673305e-05,4.3881969759240746e-05,-1.6550684449612163e-05,5.3268980991560966e-05
1.648281977395527e-05,-5.888838131795637e-05,3.1591309380019084e-05,3.852795998682268e-05,-1.1380890100554097e-05,5.3040454076835886e-05
1.8865393940359354e-05,-5.719262480852194e-05,2.987299558299128e-05,3.1604919058736414e-05,-4.7183912101900205e-06,5.384296309784986e-05
1.982026697078254e-05,-5.50151671632193e-05,2.6861382139031775e-05,2.7076177502749488e-05,3.8124419461382786e-06,5.069422331871465e-05
1.809886089176871e-05,-5.4831296438351274e-05,2.630639573908411e-05,3.0335582778207026e-05,1.2735829841403756e-05,4.64261720480863e-05
1.6860714822541922e-05,-5.699347093468532e-05,2.770739774859976e-05,4.410179462865926e-05,1.8217549950350076e-05,4.679851917899214e-05
1.7110691260313615e-05,-5.8516598073765635e-05,2.9499855372705497e-05,6.588792166439816e-05,1.8518427168601193e-05,5.3392872359836474e-05
1.6678584870533086e-05,-5.799546488560736e-05,3.340194234624505e-05,8.217653521569446e-05,1.6976135157165118e-05,6.248679710552096e-05
1.4598716006730683e-05,-5.4452935728477314e-05,3.732575714820996e-05,7.943016680656001e-05,1.3382863471633755e-05,6.636133912252262e-05
1.276878083444899e-05,-4.8904777941061184e-05,3.7451340176630765e-05,6.0007510910509154e-05,6.1608066062035505e-06,6.387122994055972e-05
1.467426227463875e-05,-4.584551425068639e-05,3.215200194972567e-05,4.2748866690089926e-05,-2.259878556287731e-06,6.251919694477692e-05
1.692326804914046e-05,-4.3911717511946335e-05,2.758756818366237e-05,3.719478991115466e-05,-5.884847269044258e-06,6.471626693382859e-05
1.8542550606071018e-05,-4.4342741603031754e-05,2.9337574233068153e-05,3.108613964286633e-05,-4.621103016688721e-06,7.421421469189227e-05
2.1022487999289297e-05,-4.950272341375239e-05,2.972415677504614e-05,1.7981659766519442e-05,-3.569243290257873e-06,8.899526437744498e-05
2.3473907276638784e-05,-5.183885514270514e-05,2.7719604986486956e-05,1.0517218470340595e-05,-1.1815992365882266e-05,8.997120312415063e-05
2.4834438590914942e-05,-4.806454307981767e-05,2.664734529389534e-05,1.0803725672303699e-05,-3.012232446053531e-05,7.218719110824168e-05
2.4014747395995073e-05,-4.7028948756633326e-05,2.8520898922579363e-05,1.3483554539561737e-05,-5.0247806939296424e-05,5.2890623919665813e-05
2.3786158635630272e-05,-5.1262613851577044e-05,3.047484096896369e-05,1.9714942027349025e-05,-6.42719169263728e-05,4.6864221076248214e-05
2.3881502784206532e-05,-5.139651329955086e-05,3.0176786822266877e-05,2.677340125956107e-05,-6.895313708810136e-05,5.301809869706631e-05
2.468306411174126e-05,-4.593732228386216e-05,3.142340210615657e-05,3.12266347464174e-05,-6.587640382349491e-05,6.004104943713173e-05
2.6155179511988536e-05,-4.5916160161141306e-05,3.404401650186628e-05,2.733846486080438e-05,-5.573208545683883e-05,6.034212856320664e-05
2.7694195523508824e-05,-5.0905378884635866e-05,3.5002300137421116e-05,1.8057964553008787e-05,-3.8811318518128246e-05,5.8834528317674994e-05
2.7507509003044106e-05,-5.16963264090009e-05,3.058748188777827e-05,8.744167644181289e-06,-1.960265035449993e-05,6.0401129303500056e-05
2.598886021587532e-05,-5.01082104165107e-05,2.7047795811085962e-05,4.69426504423609e-06,-3.2081518384075025e-06,6.413253140635788e-05
2.6653609893401153e-05,-4.9150305130751804e-05,2.792747000057716e-05,6.367880359903211e-06,1.0673885299183894e-05,6.591561395907775e-05
2.7109623260912485e-05,-4.7273977543227375e-05,2.9841285140719265e-05,9.55374343902804e-06,2.0194182070554234e-05,6.181353819556534e-05
2.8149104764452204e-05,-4.529322177404538e-05,3.219543577870354e-05,1.4967549759603571e-05,2.3934348064358346e-05,5.818451245431788e-05
3.0112796594039537e-05,-4.6027904318179935e-05,3.434789687162265e-05,2.0057492292835377e-05,2.4650333216413856e-05,5.879374293726869e-05
3.0287739718914963e-05,-4.657823228626512e-05,3.128382741124369e-05,2.361755832680501e-05,2.431889333820436e-05,5.952921128482558e-05
2.6765565053210594e-05,-4.475704554351978e-05,2.3945473003550433e-05,3.0146800781949423e-05,2.214207052020356e-05,5.5572425480932e-05
2.326923822693061e-05,-4.238918700139038e-05,2.0700230379588902e-05,4.019057814730331e-05,1.893499938887544e-05,5.2483377658063546e-05
2.224019954155665e-05,-4.288464697310701e-05,2.2903604985913262e-05,4.293210440664552e-05,1.7556665625306778e-05,6.212691369000822e-05
2.3389597117784433e-05,-4.4933280150871724e-05,2.419506745354738e-05,3.6553818063111976e-05,1.683252412476577e-05,8.724426152184606e-05
2.474578832334373e-05,-4.5945809688419104e-05,2.3224722099257633e-05,2.8943608413101174e-05,1.2947821232955903e-05,0.00011524437286425382
2.5289242330472916e-05,-4.6288205339806154e-05,2.3367174435406923e-05,2.675521682249382e-05,7.21192827768391e-06,0.000123330217320472
2.4720859073568135e-05,-4.776432251674123e-05,2.432708060950972e-05,2.8127384211984463e-05,3.2847249258338707e-06,0.0001059747883118689
2.3237353161675856e-05,-5.085116936243139e-05,2.4047214537858963e-05,2.821654561557807e-05,-2.58360046245798e-07,8.368080307263881e-05
2.385509287705645e-05,-5.144568785908632e-05,2.4612962079118006e-05,2.778422276605852e-05,-6.320663942460669e-06,6.934645352885127e-05
2.757743641268462e-05,-5.077348032500595e-05,2.7354217309039086e-05,2.7279602363705635e-05,-1.3906289495935198e-05,5.060697003500536e-05
3.060317612835206e-05,-5.24864844919648e-05,2.798699279082939e-05,2.711921297304798e-05,-1.8943415852845646e-05,2.520298949093558e-05
2.6482717657927424e-05,-5.547836917685345e-05,2.8332626243354753e-05,3.126962837995961e-05,-2.331780342501588e-05,3.943149295082549e-06
1.978126965695992e-05,-5.897433584323153e-05,3.2021704100770876e-05,3.3527365303598344e-05,-3.2291249226545915e-05,-1.0326959454687312e-05
1.9361372324055992e-05,-6.0195521655259654e-05,3.5268782085040584e-05,2.5228195227100514e-05,-4.14768946939148e-05,-1.743370376061648e-05
2.0899657101836056e-05,-5.918411261518486e-05,3.537424709065817e-05,1.4833249224466272e-05,-4.37175840488635e-05,-1.6503834558534436e-05
1.989882548514288e-05,-5.9108238929184154e-05,3.566834129742347e-05,1.0313950951967854e-05,-3.930664752260782e-05,-9.545906323182862e-07
2.0338333342806436e-05,-5.859381417394616e-05,3.696860949276015e-05,9.971820873033721e-06,-3.058953006984666e-05,2.0752269847434945e-05
1.9138204152113758e-05,-5.6816548749338835e-05,3.905401536030695e-05,1.1879547855642159e-05,-2.1817226297571324e-05,3.367986573721282e-05
1.5990388419595547e-05,-5.360087743611075e-05,4.074939351994544e-05,1.5673096640966833e-05,-1.5924868421279825e-05,3.950412792619318e-05
1.4489102795778308e-05,-5.126230826135725e-05,4.2491894419072196e-05,1.884267112473026e-05,-1.009543575491989e-05,4.189560786471702e-05
1.811860056477599e-05,-5.16566178703215e-05,4.324508336139843e-05,2.0600009520421736e-05,-5.283191967464518e-06,4.146020000916906e-05
2.4428674805676565e-05,-5.422435424407013e-05,3.9383856346830726e-05,2.0266385035938583e-05,-1.145890905718261e-06,4.170931060798466e-05
2.5315572202089243e-05,-5.627751670544967e-05,3.557011586963199e-05,1.9754037566599436e-05,4.168916348135099e-06,4.297215127735399e-05
1.9469436665531248e-05,-5.415948180598207e-05,3.6601039028028026e-05,2.1472947992151603e-05,1.0080910215037875e-05,4.702407750301063e-05
1.4506841580441687e-05,-4.9425001634517685e-05,4.1100716771325096e-05,2.3538830646430142e-05,1.3602090803033207e-05,5.648944352287799e-05
1.419214913767064e-05,-4.757444548886269e-05,4.1602579585742205e-05,2.5627785362303257e-05,1.2637016880034935e-05,6.938441947568208e-05
1.3974368812341709e-05,-4.9066173232859e-05,3.796424061874859e-05,2.8286898668739013e-05,1.0625335562508553e-05,8.057552622631192e-05
1.1434223779360764e-05,-5.033554771216586e-05,3.572736386558972e-05,2.9358921892708167e-05,9.137635061051697e-06,8.738188626011834e-05
9.225051144312602e-06,-4.9841739382827654e-05,3.608771658036858e-05,2.968235276057385e-05,7.80604750616476e-06,9.202466026181355e-05
1.0907087016676087e-05,-4.7969264414859936e-05,3.7182460800977424e-05,3.498971273074858e-05,6.752565695933299e-06,9.926417260430753e-05
1.3938305528427009e-05,-4.600661850417964e-05,3.829993147519417e-05,3.991548146586865e-05,5.763850822404493e-06,0.00010861342161661014
1.6666954252286814e-05,-4.5811910240445286e-05,3.7356945540523157e-05,3.672924140118994e-05,3.919229584425921e-06,0.00011101671407232061
2.026078072958626e-05,-4.7154640924418345e-05,3.4042772313114256e-05,2.9782077035633847e-05,1.0110344561553575e-07,0.0001028932019835338
2.199839764216449e-05,-4.9345606385031715e-05,3.1263283744920045e-05,2.5560255380696617e-05,-5.308368599798996e-06,8.527475438313559e-05
2.0681651221821085e-05,-5.0746079068630934e-05,3.0343922844622284e-05,2.374456380493939e-05,-8.773964509600773e-06,7.082905358402058e-05
1.9273811631137505e-05,-5.045264697400853e-05,3.191494397469796e-05,2.17647357203532e-05,-9.409699487150647e-06,6.930402014404535e-05
1.951125159393996e-05,-4.8988436901709065e-05,3.2995867513818666e-05,2.0675361156463623e-05,-7.2241141424456146e-06,7.361328607657924e-05
2.1929387003183365e-05,-4.9037134886020795e-05,3.0944029276724905e-05,2.1870520868105814e-05,-8.150414942065254e-06,7.467839168384671e-05
2.1488933271029964e-05,-4.78836809634231e-05,3.0499430067720823e-05,3.014840513060335e-05,-1.4097470739216078e-05,6.980514444876462e-05
1.9201941540814005e-05,-4.6598281187471e-05,3.480204031802714e-05,4.070304203196429e-05,-1.5832996723474935e-05,6.113258132245392e-05
1.941516893566586e-05,-4.6804489102214575e-05,3.626970647019334e-05,4.867801544605754e-05,-1.4083393580222037e-05,5.262574995867908e-05
1.821909609134309e-05,-4.420011100592092e-05,3.233697862015106e-05,5.6408218370052055e-05,-1.4919448403816205e-05,4.786653153132647e-05
1.54118661157554e-05,-4.3048185034422204e-05,2.9120365070411935e-05,5.826830238220282e-05,-1.7407815903425217e-05,4.5121840230422094e-05
1.303380213357741e-05,-4.249958510627039e-05,2.9930299206171185e-05,5.154454265721142e-05,-2.128878804796841e-05,4.383914711070247e-05
1.1885182175319642e-05,-4.428938700584695e-05,2.9098726372467354e-05,4.2501978896325454e-05,-2.744205266935751e-05,4.5041269913781434e-05
1.3058367585472297e-05,-4.7415167500730604e-05,2.756607318588067e-05,3.8073725590948015e-05,-2.7817170121124946e-05,4.718180207419209e-05
1.465168588765664e-05,-5.0391496188240126e-05,2.6823314328794368e-05,3.848081178148277e-05,-2.4414521249127574e-05,4.873784928349778e-05
1.5863883163547143e-05,-4.950226139044389e-05,2.511277489247732e-05,3.820691563305445e-05,-2.3193970264401287e-05,4.9304264393867925e-05
1.9031558622373268e-05,-4.674215961131267e-05,2.3613532903254963e-05,3.369871774339117e-05,-2.2587984858546406e-05,5.577041520155035e-05
2.2068534235586412e-05,-4.7130371967796236e-05,2.3143345970311202e-05,2.8623944672290236e-05,-2.4208431568695232e-05,6.447656778618693e-05
2.1677327822544612e-05,-4.951228038407862e-05,2.573984966147691e-05,2.522858812881168e-05,-2.957373726530932e-05,7.004033250268549e-05
1.885830170067493e-05,-5.280304321786389e-05,2.9717661163886078e-05,2.0258486983948387e-05,-3.23431559081655e-05,7.281750004040077e-05
1.5824205547687598e-05,-5.27477495779749e-05,3.066762292291969e-05,1.3483598195307422e-05,-2.8461101464927197e-05,7.193837518570945e-05
1.4464251762547065e-05,-4.9964153731707484e-05,2.963448059745133e-05,9.850848982750904e-06,-2.2569400243810378e-05,6.777609087293968e-05
1.5230245480779558e-05,-4.89510566694662e-05,2.9219874704722315e-05,9.391997082275338e-06,-1.6955824321485125e-05,6.005770046613179e-05
1.8739969164016657e-05,-5.047359081800096e-05,2.9824444936821237e-05,9.719801710161846e-06,-1.1142585208290257e-05,4.957913188263774e-05
2.4461143766529858e-05,-4.931998410029337e-05,3.134265716653317e-05,1.103456179407658e-05,-6.853699687781045e-06,4.077852645423263e-05
2.8008586014038883e-05,-4.543104296317324e-05,3.122607449768111e-05,1.299748237215681e-05,-6.617875897063641e-06,3.5801578633254394e-05
2.6310006433050148e-05,-4.3272459151921794e-05,2.8779215426766314e-05,1.499414793215692e-05,-8.179301403288264e-06,3.433514211792499e-05
2.3389304260490462e-05,-4.6666064008604735e-05,2.64453083218541e-05,1.8903750969911925e-05,-7.627853847225197e-06,4.1823888750514016e-05
2.314685298188124e-05,-5.2512135880533606e-05,2.6290726964361966e-05,2.4411299818893895e-05,-4.849947799812071e-06,5.269093162496574e-05
2.6801653802976944e-05,-5.678363231709227e-05,2.8813530661864206e-05,2.9300885216798633e-05,-3.2264056244457606e-06,6.253735045902431e-05
3.185814421158284e-05,-5.402731039794162e-05,3.289915548521094e-05,3.499319791444577e-05,-3.824863597401418e-06,8.002083632163703e-05
3.386674143257551e-05,-4.82536488561891e-05,3.533618291839957e-05,4.2514686356298625e-05,-3.7908496324234875e-06,0.0001081387817976065
3.393801307538524e-05,-4.404752326081507e-05,3.767075759242289e-05,5.022002733312547e-05,-2.36483060689352e-06,0.00012519830488599837
3.215599645045586e-05,-4.300843283999711e-05,3.901687159668654e-05,5.85580310143996e-05,-4.055777935718652e-06,9.968883387045935e-05
2.973082519019954e-05,-4.493637607083656e-05,3.749754250748083e-05,6.291206227615476e-05,-8.500314834236633e-06,5.763396620750427e-05
2.8136784749221988e-05,-4.789116428582929e-05,3.579236363293603e-05,5.7227483921451494e-05,-1.1759467270167079e-05,3.628259582910687e-05
2.265011971758213e-05,-5.3148934966884553e-05,3.221450242563151e-05,4.790047387359664e-05,-1.1378539056750014e-05,2.5894734790199436e-05
1.6458130630780943e-05,-5.5937365686986595e-05,2.8410844606696628e-05,3.61929414793849e-05,-1.0930300049949437e-05,1.6481508282595314e-05
1.6584619515924715e-05,-5.713794962503016e-05,2.7889162083738483e-05,2.3700767997070216e-05,-1.4013309737492818e-05,-1.2145043228883878e-06
2.1736568669439293e-05,-5.6558037613285705e-05,2.9183596780057997e-05,1.9869374227710068e-05,-1.484423682995839e-05,-9.200315616908483e-06
2.6256806449964643e-05,-5.4656007705489174e-05,3.0229948606574908e-05,2.4052569642663002e-05,-1.1050725333916489e-05,8.808500751911197e-06
2.6319234166294336e-05,-5.243633859208785e-05,3.052206739084795e-05,2.7531952582648955e-05,-4.641596660803771e-06,3.781499253818765e-05
2.5838317014859058e-05,-5.0854920118581504e-05,2.964674604299944e-05,2.9350174372666515e-05,-6.759335633432784e-07,5.6283504818566144e-05
2.8575364922289737e-05,-5.258142846287228e-05,2.6931409593089484e-05,3.025255682587158e-05,-6.622423711633019e-07,5.755571328336373e-05
3.149489566567354e-05,-5.4566880862694234e-05,2.811870217556134e-05,2.9861630537197925e-05,6.244674182198651e-07,4.843757051276043e-05
3.1829917134018615e-05,-5.458351006382145e-05,3.2626776373945177e-05,2.7927191695198417e-05,3.0690314360981574e-06,3.805879532592371e-05
3.1636001949664205e-05,-5.3143590776016936e-05,3.5390319681027904e-05,2.382109778409358e-05,4.887670911557507e-06,3.354319778736681e-05
3.2027644920162857e-05,-5.219229933572933e-05,3.297214425401762e-05,1.763668296916876e-05,3.9071419450920075e-06,2.7210442567593418e-05
3.512400871841237e-05,-5.2090246754232794e-05,2.813648825394921e-05,1.3858925740350969e-05,8.679882057549548e-07,1.9175875422661193e-05
3.735232166945934e-05,-5.150123979547061e-05,2.6319019525544718e-05,1.624673677724786e-05,-2.774981112452224e-06,1.9881639673258178e-05
3.427123374422081e-05,-5.048630919191055e-05,2.6059429728775285e-05,2.2316864487947896e-05,-6.6917878029926214e-06,3.368707257322967e-05
3.005931830557529e-05,-4.90479615109507e-05,2.4128366931108758e-05,3.005495273100678e-05,-1.1433428880991414e-05,5.0954928155988455e-05
3.049870974791702e-05,-4.877486207988113e-05,2.1621017367579043e-05,3.623170414357446e-05,-1.617094130779151e-05,6.561305781360716e-05
3.5036424378631637e-05,-5.104652518639341e-05,2.3190859792521223e-05,3.882682722178288e-05,-2.3112279450288042e-05,8.238166628871113e-05
3.702250978676602e-05,-5.270596011541784e-05,2.6119994799955748e-05,3.821295831585303e-05,-3.523529812810011e-05,0.00010698897676775232
3.259627555962652e-05,-5.503213105839677e-05,2.5103852749452926e-05,3.582946374081075e-05,-4.4544787670020014e-05,0.00012841065472457558
2.6321187760913745e-05,-5.716639498132281e-05,2.3395483367494307e-05,3.217912308173254e-05,-4.618377352016978e-05,0.00013349407527130097
2.2896318114362657e-05,-5.7148765336023644e-05,2.530796882638242e-05,2.8179834771435708e-05,-4.669879126595333e-05,0.00012154093565186486
2.1726405975641683e-05,-5.848992077517323e-05,2.8432679755496792e-05,2.754765228019096e-05,-5.210062590776943e-05,9.973943087970838e-05
2.096920616168063e-05,-5.709914694307372e-05,3.0495695682475343e-05,2.750749627011828e-05,-6.0391772422008216e-05,8.065187284955755e-05
1.8093185644829646e-05,-5.1825278205797076e-05,3.28885143972002e-05,2.2331638319883496e-05,-6.572136771865189e-05,6.254501204239205e-05
1.5603725842083804e-05,-4.709900531452149e-05,3.4358101402176544e-05,1.6682366549503058e-05,-6.115977885201573e-05,4.266421456122771e-05
1.219677687913645e-05,-4.5396889618132263e-05,3.330939216539264e-05,9.992980267270468e-06,-4.8760161007521674e-05,2.4189512259908952e-05
1.1815885045507457e-05,-4.739604264614172e-05,3.170964919263497e-05,-2.268672290028917e-07,-3.0294890166260302e-05,6.739544005540665e-06
1.7217274944414385e-05,-5.1157912821508944e-05,3.225400723749772e-05,-9.288541150453966e-06,-5.145685008756118e-06,8.019891595267836e-08
2.3087693989509717e-05,-5.452672849060036e-05,3.529667083057575e-05,-1.1317289136059117e-05,2.960982237709686e-05,4.125494797335705e-06
2.7381047402741387e-05,-5.728984615416266e-05,3.6572808312484995e-05,-5.96050404055859e-06,6.154478614917025e-05,1.419107229594374e-05
3.029092295037117e-05,-5.815346958115697e-05,3.720758104464039e-05,2.768483227555407e-06,7.916511822259054e-05,3.3199539757333696e-05
3.053967157029547e-05,-5.6391654652543366e-05,3.602145443437621e-05,1.1975655070273206e-05,8.719111792743206e-05,5.7615576224634424e-05
2.7962725653196685e-05,-5.4758231271989644e-05,2.9814204026479274e-05,1.8871125575969927e-05,8.231411629822105e-05,7.896161696407944e-05
2.6935898858937435e-05,-5.457622683024965e-05,2.3076428988133557e-05,2.2643311240244657e-05,6.75694682286121e-05,9.056033741217107e-05
2.4390068574575707e-05,-5.471882104757242e-05,2.445851350785233e-05,2.4876075258362107e-05,4.857305975747295e-05,9.353541827294976e-05
2.185559606004972e-05,-5.47167073818855e-05,3.0116874768282287e-05,2.8255428333068267e-05,3.0467435863101855e-05,9.327589941676706e-05
2.234843668702524e-05,-5.4424937843577936e-05,3.2429499697173014e-05,3.609988198149949e-05,1.4090624063101131e-05,9.530446550343186e-05
2.4072258383966982e-05,-5.3216932428767905e-05,3.068617661483586e-05,4.9337551899952814e-05,8.143890681822086e-07,9.471705561736599e-05
2.365091313549783e-05,-5.028110899729654e-05,2.7212414352106862e-05,6.78135547786951e-05,-1.0322463822376449e-05,8.379558857996017e-05
2.275510450999718e-05,-4.6371074859052896e-05,2.3693657567491755e-05,9.022396261570975e-05,-2.1078665668028407e-05,6.501014286186546e-05
2.462526572344359e-05,-4.444954538485035e-05,2.3287549993256107e-05,0.00010858165478566661,-3.163245492032729e-05,4.607939990819432e-05
2.5289227778557688e-05,-4.508332858677022e-05,2.8343918529571965e-05,0.00011349035776220262,-3.998598549515009e-05,3.239799843868241e-05
2.1095514966873452e-05,-4.6611123252660036e-05,3.3583117328817025e-05,0.00010102100350195542,-4.455739326658659e-05,2.5984267267631367e-05
1.594784225744661e-05,-4.7553727199556306e-05,3.413175727473572e-05,7.655092485947534e-05,-4.674908996094018e-05,2.832294921972789e-05
1.551168861624319e-05,-4.7266883484553546e-05,3.17030462611001e-05,5.33168094989378e-05,-4.4927288399776444e-05,4.132534013479017e-05
1.4689875570184086e-05,-4.6773468056926504e-05,3.018657662323676e-05,3.7428548239404336e-05,-3.923278200090863e-05,5.757629332947545e-05
1.124641585192876e-05,-4.73926957056392e-05,2.8059070245944895e-05,2.636122371768579e-05,-3.1847754144109786e-05,7.11779430275783e-05
8.455663191853091e-06,-4.835687650484033e-05,2.789258178381715e-05,2.1458394257933833e-05,-2.4652639694977552e-05,8.395830809604377e-05
7.844493666198105e-06,-4.8783866077428684e-05,3.0053648515604436e-05,2.2618398361373693e-05,-1.9750599676626734e-05,9.307778964284807e-05
9.793702702154405e-06,-4.6399283746723086e-05,3.378751716809347e-05,2.05061660381034e-05,-1.8607894162414595e-05,9.915199916576967e-05
1.0023521099356003e-05,-4.047614856972359e-05,3.54818876076024e-05,1.8642778741195798e-05,-1.5468533092644066e-05,9.442530426895246e-05
7.830439244571608e-06,-3.67329157597851e-05,3.5612079955171794e-05,2.0924015188938938e-05,-1.0928049960057251e-05,7.684691081522033e-05
6.105812644818798e-06,-3.7656263884855434e-05,3.4816115658031777e-05,2.2267453459789976e-05,-9.072859029402025e-06,6.29259884590283e-05
5.008324933442054e-06,-3.9092708902899176e-05,3.2103365811053663e-05,2.1351155737647787e-05,-1.0683869732019957e-05,5.6737979321042076e-05
7.329314939852338e-06,-3.8795544242020696e-05,3.0487513868138194e-05,1.757055906637106e-05,-1.119365515478421e-05,5.554034942178987e-05
1.2212046385684516e-05,-4.064884706167504e-05,2.9437765988404863e-05,1.6739943021093495e-05,-1.3317086086317431e-05,5.584273822023533e-05
1.6705740563338622e-05,-4.3461779569042847e-05,3.123658098047599e-05,1.992459328903351e-05,-1.9680561308632605e-05,5.566369145526551e-05
1.910889295686502e-05,-4.262346192263067e-05,3.4498676541261375e-05,2.7533362299436703e-05,-2.2644828277407214e-05,5.489530667546205e-05
1.906361103465315e-05,-3.989461038145237e-05,3.5262775782030076e-05,3.5811783163808286e-05,-2.090803718601819e-05,5.391890954342671e-05
1.77842903212877e-05,-3.735509380931035e-05,3.3261308999499306e-05,4.2775449401233345e-05,-2.052226773230359e-05,4.9496877181809396e-05
1.750065348460339e-05,-3.732670666067861e-05,3.171210119035095e-05,4.011865894426592e-05,-2.2142488887766376e-05,4.55615263490472e-05
1.623857497179415e-05,-3.9832142647355795e-05,3.081941031268798e-05,2.85173264273908e-05,-2.023748675128445e-05,4.767227073898539e-05
1.428819632565137e-05,-4.244768570060842e-05,3.1237541406881064e-05,1.8994021957041696e-05,-1.3609990674012806e-05,5.235651769908145e-05
1.3746450349572115e-05,-4.389389505377039e-05,3.110275065409951e-05,1.5987145161489025e-05,-8.459175660391338e-06,6.138408207334578e-05
1.4896753782522865e-05,-4.546914351521991e-05,3.0264547604019754e-05,1.5435798559337854e-05,-1.0225566256849561e-05,7.494105375371873e-05
1.8415881640976295e-05,-4.5749868149869144e-05,2.914592914748937e-05,1.2432868061296176e-05,-1.4417807506106328e-05,8.758851618040353e-05
2.2688062017550692e-05,-4.286352123017423e-05,2.892234806495253e-05,8.683900887263007e-06,-1.4888745681673754e-05,9.704500553198159e-05
2.4147329895640723e-05,-4.089786671102047e-05,3.269868466304615e-05,3.5972702789877076e-06,-1.1338522199366707e-05,0.00010399342863820493
2.3962038540048525e-05,-4.4143660488771275e-05,3.825494059128687e-05,1.8581712311060983e-06,-7.696935426793061e-06,0.00010219535761279985
2.5551167709636502e-05,-4.988791624782607e-05,4.133460242883302e-05,7.330176686082268e-06,-7.856112461013254e-06,8.469622116535902e-05
2.8690408726106398e-05,-5.3969448345014825e-05,3.790743357967585e-05,1.7084763385355473e-05,-8.928266652219463e-06,6.137878517620265e-05
3.0330586014315486e-05,-5.429068914963864e-05,3.2400588679593056e-05,2.301198946952354e-05,-7.67606161389267e-06,4.595305654220283e-05
2.828641481755767e-05,-5.119141860632226e-05,2.891126678150613e-05,2.3115522708394565e-05,-5.83870996706537e-06,3.258360084146261e-05
2.4542405299143866e-05,-4.764293771586381e-05,2.6757687010103837e-05,1.8554701455286704e-05,-3.5197929264541017e-06,1.553738911752589e-05
1.9791039449046366e-05,-4.533486571745016e-05,2.7494104870129377e-05,1.8484022803022526e-05,-1.7215004390891409e-06,-6.625951300520683e-06
1.7266731447307393e-05,-4.538962821243331e-05,3.240383739466779e-05,2.2546924810740165e-05,-7.570532147838094e-07,-3.1302923162002116e-05
1.7620412108954042e-05,-4.650852861232124e-05,3.67476895917207e-05,2.5566887416061945e-05,-1.8424125300953165e-06,-4.8298301408067346e-05
1.851037268352229e-05,-4.679045014199801e-05,3.966890290030278e-05,2.7234500521444716e-05,-2.4504217890353175e-06,-4.8189147491939366e-05
1.7044203559635207e-05,-4.406807784107514e-05,4.405165964271873e-05,3.0200020773918368e-05,-5.027735369367292e-06,-2.8357460905681364e-05
1.582576624059584e-05,-4.338569851825014e-05,4.658070974983275e-05,3.212240699212998e-05,-7.488850314985029e-06,6.216800102265552e-06
1.5558138329652138e-05,-4.743157478515059e-05,4.147746221860871e-05,2.856639912351966e-05,-7.433815426338697e-06,4.138774238526821e-05
1.5623349099769257e-05,-4.932673618895933e-05,3.327789454488084e-05,2.403283906460274e-05,-7.676517270738259e-06,6.350962212309241e-05
1.8200586055172607e-05,-4.9688576837070286e-05,3.109005410806276e-05,2.3255051928572357e-05,-4.856912255490897e-06,6.933774420758709e-05
1.8638447727425955e-05,-5.0841197662521154e-05,3.317934533697553e-05,2.770345236058347e-05,-4.1562325350241736e-06,6.656776531599462e-05
1.6432421034551226e-05,-5.054181019659154e-05,3.4142492950195447e-05,3.0370789318112656e-05,-7.877470125094987e-06,7.391858525807038e-05
1.7033193216775544e-05,-5.056443842477165e-05,3.363200812600553e-05,2.905954170273617e-05,-1.2345331924734637e-05,9.19704107218422e-05
1.8997741790371947e-05,-5.1087834435747936e-05,3.242839375161566e-05,2.5067054593819194e-05,-1.379207878926536e-05,0.00010766815830720589
1.9096962205367163e-05,-5.1365899707889184e-05,3.115499930572696e-05,2.164641409763135e-05,-1.3730958926316816e-05,0.0001223909785039723
1.842632445914205e-05,-5.272616908769123e-05,2.9679176805075258e-05,2.3374752345262095e-05,-1.3288874470163137e-05,0.00013503653462976217
1.9763538148254156e-05,-5.3596453653881326e-05,2.8700384063995443e-05,3.0556449928553775e-05,-1.2705204426310956e-05,0.00013454878353513777
2.1146388462511823e-05,-5.346826947061345e-05,2.8543901862576604e-05,3.6133114917902276e-05,-1.8463697415427305e-05,0.00011604290921241045
1.9762885131058283e-05,-5.404799594543874e-05,2.9076776627334766e-05,3.393325096112676e-05,-3.1608531571691856e-05,9.032134403241798e-05
1.759948645485565e-05,-5.3801479225512594e-05,3.050526174774859e-05,2.7565010896068998e-05,-4.2665895307436585e-05,7.399032620014623e-05
1.871512176876422e-05,-5.325924212229438e-05,3.210364593542181e-05,2.472721280355472e-05,-4.7216348320944235e-05,7.412613922497258e-05
2.275841688970104e-05,-5.316722672432661e-05,3.373993968125433e-05,2.6765897928271443e-05,-4.9066919018514454e-05,8.509607869200408e-05
2.503098403394688e-05,-5.3526306146522984e-05,3.466458656475879e-05,3.122694761259481e-05,-4.7457771870540455e-05,9.902737656375393e-05
2.465387478878256e-05,-5.3712687076767907e-05,3.3904034353327006e-05,3.504685082589276e-05,-4.120402081753127e-05,0.00010800262680277228
2.3391598006128334e-05,-5.218541627982631e-05,3.296765135019086e-05,3.634173845057376e-05,-3.402490619919263e-05,0.00010261487477691844
2.1398902390501462e-05,-5.0163056585006416e-05,3.3960590371862054e-05,3.567603926057927e-05,-2.6018989956355654e-05,8.680215978529304e-05
1.8816810552380048e-05,-5.015589704271406e-05,3.3755703043425456e-05,3.374466177774593e-05,-1.3975311048852745e-05,7.134749466786161e-05
1.8131053366232663e-05,-5.1780032663373277e-05,3.405278403079137e-05,3.2051113521447405e-05,4.443359671313374e-07,4.390853064251132e-05
1.8586055375635624e-05,-5.225075437920168e-05,3.845891114906408e-05,2.7583660994423553e-05,1.3263810615171678e-05,9.261921150027774e-07
1.9659051758935675e-05,-4.87990582769271e-05,4.103026003576815e-05,2.0839815988438204e-05,2.145969665434677e-05,-2.7946105547016487e-05
1.992822035390418e-05,-4.264552626409568e-05,3.714473859872669e-05,1.82976400537882e-05,2.7430252885096706e-05,-2.7784113626694307e-05
2.0855130060226656e-05,-3.970408215536736e-05,3.0380851967493072e-05,1.975000668608118e-05,3.167898103129119e-05,-1.3968523489893414e-05
2.1393198039731942e-05,-4.091730806976557e-05,2.8062588171451353e-05,1.7092745110858232e-05,3.3729658753145486e-05,-7.911527973192278e-06
1.988579606404528e-05,-4.313953468226828e-05,2.9174063456594013e-05,9.643295015848707e-06,3.318541348562576e-05,1.807172225198883e-06
1.8297174392500892e-05,-4.381214239401743e-05,2.992533700307831e-05,8.179827091225889e-06,3.323825148981996e-05,3.423411544645205e-05
1.7105816368712112e-05,-4.599406020133756e-05,2.9120770705048926e-05,1.5753950719954446e-05,3.2553438359173015e-05,7.44561548344791e-05
2.0028379367431626e-05,-4.824235293199308e-05,2.8989757993258536e-05,2.3109581889002584e-05,2.7836387744173408e-05,9.986838995246217e-05
2.2932928914087825e-05,-4.6214114263420925e-05,3.2050287700258195e-05,2.9699898732360452e-05,2.191938074247446e-05,0.00010837771696969867
2.515432242944371e-05,-4.284504393581301e-05,3.267423380748369e-05,3.432821176829748e-05,1.694697311904747e-05,0.00010598122753435746
2.69800493697403e-05,-4.380229802336544e-05,3.2747717341408134e-05,3.435433973209001e-05,7.732390258752275e-06,9.87649618764408e-05
2.553944432293065e-05,-4.6060165914241225e-05,3.504187407088466e-05,3.3156724384753034e-05,-1.2037952728860546e-05,8.672154217492789e-05
2.3074986529536545e-05,-4.534728213911876e-05,3.992850906797685e-05,3.503191692288965e-05,-3.244012259528972e-05,6.753695197403431e-05
2.208099795097951e-05,-4.447346873348579e-05,4.407755477586761e-05,4.372249895823188e-05,-4.521853043115698e-05,4.512401210376993e-05
2.4962071620393544e-05,-4.672767681768164e-05,4.400320540298708e-05,5.2428415074246004e-05,-4.5955228415550664e-05,2.494705404387787e-05
3.1650048185838386e-05,-4.9624970415607095e-05,4.177193477516994e-05,5.40483852091711e-05,-3.81538484361954e-05,1.4360711247718427e-05
3.8153808418428525e-05,-4.8807869461597875e-05,4.0457893192069605e-05,4.9623195081949234e-05,-2.987778680108022e-05,1.707463525235653e-05
3.889865183737129e-05,-4.559870285447687e-05,3.955047941417433e-05,4.2682597268139943e-05,-2.2940686903893948e-05,3.1096125894691795e-05
3.7352830986492336e-05,-4.5279266487341374e-05,3.7468740629265085e-05,3.5739009035751224e-05,-1.3984450561110862e-05,4.643213105737232e-05
3.655052569229156e-05,-4.987596548744477e-05,3.556851879693568e-05,2.8580736397998407e-05,-1.517058080935385e-06,5.441024404717609e-05
3.425093018449843e-05,-5.322357901604846e-05,3.3707907277857885e-05,1.9263372450950556e-05,9.988633792090695e-06,5.871103348908946e-05
3.063897747779265e-05,-5.219671220402233e-05,3.0458631954388693e-05,1.2932498975715134e-05,1.5241957044054288e-05,6.653869786532596e-05
2.8470416509662755e-05,-5.1266077207401395e-05,2.5501896743662655e-05,1.2886508557130583e-05,1.431439977750415e-05,7.463994552381337e-05
2.7463729566079564e-05,-5.250945105217397e-05,2.1409452529042028e-05,1.6408808733103797e-05,1.2419808626873419e-05,7.521334919147193e-05
2.539047272875905e-05,-5.343942029867321e-05,2.1455665773828514e-05,2.088377186737489e-05,1.1162770533701405e-05,7.111412560334429e-05
2.1972191461827606e-05,-5.414828410721384e-05,2.4463895897497423e-05,2.4526521883672103e-05,7.996080967132002e-06,7.209336763480678e-05
2.1617222955683246e-05,-5.51308949070517e-05,2.5407105567865074e-05,2.8815700716222636e-05,2.318323595318361e-06,7.762508903397247e-05
2.7022708309232257e-05,-5.633420732920058e-05,2.7054993552155793e-05,3.438868225202896e-05,-1.2116082643842674e-06,8.047265146160498e-05
2.9509643354685977e-05,-5.3018287871964276e-05,2.9178214390412904e-05,3.847785774269141e-05,-1.7667848624114413e-06,8.159384742612019e-05
2.7522104574018158e-05,-5.153213714947924e-05,3.0092482120380737e-05,4.101437662029639e-05,-5.050082563684555e-06,8.360618085134774e-05
2.5307823307230137e-05,-5.4387222917284817e-05,2.9483717298717238e-05,4.2628129449440166e-05,-1.4002954230818432e-05,8.220250310841948e-05
1.950589648913592e-05,-5.350590799935162e-05,3.0073411835473962e-05,4.312609962653369e-05,-2.2084183001425117e-05,7.426973024848849e-05
1.4716730220243335e-05,-5.179804429644719e-05,3.3910491765709594e-05,4.493324377108365e-05,-2.4504426619387232e-05,6.43192688585259e-05
1.4555634152202401e-05,-5.195823177928105e-05,3.6417171941138804e-05,4.494146196520887e-05,-2.314254925295245e-05,5.934319779044017e-05
1.6482026694575325e-05,-5.0217433454236016e-05,3.5136108635924757e-05,3.911207750206813e-05,-2.443749144731555e-05,5.570385110331699e-05
1.7240368833881803e-05,-4.616498335963115e-05,3.1973395380191505e-05,2.488404425093904e-05,-2.8952612410648726e-05,4.9187015974894166e-05
1.6160278391907923e-05,-4.561078822007403e-05,3.0386949219973758e-05,1.0216078408120666e-05,-3.283901605755091e-05,4.1633087676018476e-05
1.6412017430411652e-05,-4.744268881040625e-05,3.040578303625807e-05,4.94525556860026e-06,-3.314543209853582e-05,3.653403473435901e-05
1.9286817405372858e-05,-4.996382267563604e-05,2.88777537207352e-05,6.852334536233684e-06,-2.939493060694076e-05,3.196505713276565e-05
2.2917221940588206e-05,-4.9937309086089954e-05,2.6091778636327945e-05,1.1043874110328034e-05,-2.204337579314597e-05,2.794860483845696e-05
2.5140330762951635e-05,-4.949247886543162e-05,2.6134712243219838e-05,1.4602925148210488e-05,-1.4573129192285705e-05,2.6385901946923696e-05
2.8331980502116494e-05,-5.180080916034058e-05,2.725248850765638e-05,1.8433272998663597e-05,-1.1800205356848892e-05,2.6295374482288025e-05
3.094827843597159e-05,-5.5796965170884505e-05,3.0478680855594575e-05,2.4011940695345402e-05,-1.0213540008408017e-05,2.9106093279551715e-05
3.020949225174263e-05,-5.8100747992284596e-05,3.4285574656678364e-05,3.197091427864507e-05,-6.935705187061103e-06,4.1535531636327505e-05
2.719962503761053e-05,-5.663653791998513e-05,3.437892155488953e-05,4.026323222205974e-05,-5.337895345292054e-06,6.588247924810275e-05
2.614763070596382e-05,-5.417147986008786e-05,3.01462241623085e-05,4.935395554639399e-05,-7.974430445756298e-06,8.970313501777127e-05
2.7727634005714208e-05,-5.3599043894791976e-05,2.7121724997414276e-05,5.8811721828533337e-05,-1.2113740012864582e-05,0.00010090743307955563
2.929563015641179e-05,-5.433423211798072e-05,2.960513302241452e-05,6.790098996134475e-05,-1.558028998260852e-05,9.461461013415828e-05
2.9189721317379735e-05,-5.3166444558883086e-05,3.379210102139041e-05,7.523114618379623e-05,-1.75824297912186e-05,7.42766642360948e-05
2.814507570292335e-05,-5.049720130045898e-05,3.5323093470651656e-05,7.487545371986926e-05,-1.795780917746015e-05,5.26494077348616e-05
2.7308053176966496e-05,-4.8733389121480286e-05,3.517550794640556e-05,6.312697223620489e-05,-1.889815212052781e-05,4.0678951336303726e-05
2.6413386876811273e-05,-5.0098624342354015e-05,3.563717837096192e-05,4.768616418004967e-05,-1.9388106011319906e-05,3.183857552357949e-05
2.4964041585917585e-05,-5.371968654799275e-05,3.7004956539021805e-05,3.137369640171528e-05,-1.9229195459047332e-05,1.8521915990277193e-05
2.3142871214076877e-05,-5.495393997989595e-05,3.6912100767949596e-05,1.7968548490898684e-05,-1.9333847376401536e-05,3.5227149055572227e-06
2.1155181457288563e-05,-5.110401980346069e-05,3.1467243388760835e-05,1.5622614228050224e-05,-1.9015280486200936e-05,4.1558960219845176e-06
1.9890290786861442e-05,-4.877164974459447e-05,2.7268675694358535e-05,1.903346856124699e-05,-1.985125163628254e-05,2.5436014766455628e-05
1.974049700947944e-05,-5.118431363371201e-05,2.482550553395413e-05,2.2135609469842166e-05,-2.0639365175156854e-05,5.285463703330606e-05
1.7643564206082374e-05,-5.406148193287663e-05,2.25790554395644e-05,2.1349898815969937e-05,-2.3991806301637553e-05,6.853634113213047e-05
1.3061290701443795e-05,-5.342868098523468e-05,2.2221169274416752e-05,1.436332877347013e-05,-2.6412495572003536e-05,7.156463107094169e-05
1.017140948533779e-05,-5.438943117042072e-05,2.519270492484793e-05,3.5946493426308734e-06,-2.620013037812896e-05,7.705279858782887e-05
9.424989002582151e-06,-5.4373063903767616e-05,2.92667027679272e-05,-6.936439262972272e-07,-2.425893944746349e-05,8.955986413639039e-05
1.0822299373103306e-05,-5.1285889639984816e-05,3.3135806006612256e-05,1.936661419676966e-06,-2.1137166186235845e-05,0.00010364089393988252
1.3563406355387997e-05,-4.8466787120560184e-05,3.6043136788066477e-05,7.2135044320020825e-06,-1.8914133761427365e-05,0.00010716740507632494
1.5776988220750354e-05,-4.9275917263003066e-05,3.480163650237955e-05,1.2286186574783642e-05,-1.691194665909279e-05,0.00010437738092150539
1.772109499142971e-05,-5.07891527377069e-05,3.2856794859981164e-05,1.3397853763308376e-05,-1.689457531028893e-05,9.491136734141037e-05
1.96423916349886e-05,-5.0311340601183474e-05,3.062808536924422e-05,1.074041847459739e-05,-1.5007462025096174e-05,8.066663576755673e-05
1.8718565115705132e-05,-5.032527042203583e-05,2.9531189284170978e-05,7.34099148758105e-06,-1.150476327893557e-05,7.248009933391586e-05
1.5463514500879683e-05,-4.886016176897101e-05,2.748808947217185e-05,8.779430572758429e-06,-1.0935767932096496e-05,6.887699419166893e-05
1.51236163219437e-05,-4.8732552386354655e-05,2.3411001166095957e-05,1.6573610992054455e-05,-1.3996353118272964e-05,6.257123459363356e-05
1.725251968309749e-05,-5.165869151824154e-05,2.1586914954241365e-05,2.3201022486318834e-05,-1.615613655303605e-05,5.3860519983572885e-05
1.8691609511733986e-05,-5.6405227951472625e-05,2.3688533474341966e-05,2.338130616408307e-05,-1.2740801139443647e-05,4.750449079438113e-05
1.9463166609057225e-05,-5.879117452423088e-05,2.5262184863095172e-05,2.009588570217602e-05,-4.6742284212086815e-06,4.300718137528747e-05
2.378756289544981e-05,-5.832410170114599e-05,2.461187614244409e-05,1.60158087965101e-05,4.7862813516985625e-06,4.480714051169343e-05
2.8958629627595656e-05,-5.591886292677373e-05,2.5156483388855122e-05,1.2766317922796588e-05,1.2271769264771137e-05,5.235939897829667e-05
3.041103445866611e-05,-5.375136970542371e-05,2.7403397325542755e-05,9.352719644084573e-06,1.377571425109636e-05,5.8968525991076604e-05
3.1613872124580666e-05,-5.236918877926655e-05,2.8698234018520452e-05,6.777999715268379e-06,8.98306279850658e-06,6.25189277343452e-05
3.373345680302009e-05,-5.136628897162154e-05,2.9371032724156976e-05,1.1884253581229132e-05,5.873887857887894e-06,6.937955186003819e-05
3.373641084181145e-05,-5.0542606913950294e-05,3.201211802661419e-05,3.316451329737902e-05,6.9848565544816665e-06,7.599825039505959e-05
3.2029696740210056e-05,-4.8477180826012045e-05,3.457614002400078e-05,6.222094816621393e-05,4.138847089052433e-06,7.261191785801202e-05
3.0784052796661854e-05,-4.6485332859447226e-05,3.5670032957568765e-05,8.045786671573296e-05,-1.3165094969735947e-06,6.199513882165775e-05
2.925826993305236e-05,-4.918376725981943e-05,3.5591074265539646e-05,7.992353494046256e-05,-2.7638880055746995e-06,5.190918091102503e-05
2.891664917115122e-05,-5.189540024730377e-05,3.352050043758936e-05,6.674163159914315e-05,-4.451990065490463e-08,4.730785803985782e-05
3.0062286896281876e-05,-4.9340578698320314e-05,3.174502489855513e-05,5.094656808068976e-05,4.090466973138973e-06,4.7346078645205125e-05
2.686384141270537e-05,-4.6726432628929615e-05,3.402087895665318e-05,3.8275771657936275e-05,2.8762447072949726e-06,4.7332167014246807e-05
2.427762774459552e-05,-4.743177487398498e-05,3.4157168556703255e-05,3.010266118508298e-05,-1.9673032056743978e-06,3.9859536627773196e-05
2.4444401788059622e-05,-4.943297608406283e-05,3.316899892524816e-05,2.7694553864421323e-05,-4.100610567547847e-06,2.636567660374567e-05
2.145788494090084e-05,-5.0765709602274e-05,3.180940620950423e-05,2.8861377359135076e-05,-4.181503754807636e-06,2.5963756343116984e-05
1.5946208804962225e-05,-5.061295087216422e-05,2.996312832692638e-05,2.8777101761079393e-05,-4.673190687753959e-06,4.996157076675445e-05
1.2958753359271213e-05,-5.0466613174648955e-05,3.233943789382465e-05,2.8235657737241127e-05,-6.593229500140296e-06,8.733933645999059e-05
1.4197286873240955e-05,-5.081886411062442e-05,3.427115734666586e-05,2.5510780687909573e-05,-8.189726941054687e-06,0.00011248424561927095
1.7184416719828732e-05,-5.100830821902491e-05,3.368937541381456e-05,2.0128007236053236e-05,-1.0722469596657902e-05,0.00011408657155698165
2.1197281967033632e-05,-5.3910895076114684e-05,3.319368261145428e-05,1.270079974347027e-05,-1.1647712199192028e-05,0.00010009035031544045
2.2951016944716685e-05,-5.6803539337124676e-05,3.345917502883822e-05,9.958873306459282e-06,-9.586380656401161e-06,8.405791595578194e-05
2.0896870410069823e-05,-5.7574132370064035e-05,3.228797504561953e-05,1.3465793927025516e-05,-8.564643394493032e-06,6.785199366277084e-05
1.882824653876014e-05,-5.56855920876842e-05,3.066733552259393e-05,1.9159506337018684e-05,-8.908087693271227e-06,4.625274596037343e-05
1.886294012365397e-05,-5.114144369144924e-05,3.103130802628584e-05,2.3089001842890866e-05,-8.58720341057051e-06,2.916039557021577e-05
2.1212345018284395e-05,-4.8012934712460265e-05,3.2922955142566934e-05,2.265465082018636e-05,-9.088365914067253e-06,2.4594048227299936e-05
2.1782569092465565e-05,-4.937525591230951e-05,3.492714313324541e-05,2.2608806830248795e-05,-1.2202684956719168e-05,2.7931557269766927e-05
2.0071644030394964e-05,-5.081295967102051e-05,3.487792855594307e-05,2.5557146727805957e-05,-1.597542541276198e-05,3.0056862669880502e-05
1.814543065847829e-05,-4.891368735115975e-05,3.215123797417618e-05,3.137617386528291e-05,-1.8690947399591096e-05,3.363520227139816e-05
1.7225072951987386e-05,-4.736848859465681e-05,3.1199277145788074e-05,3.7104189686942846e-05,-2.1676523829228245e-05,4.5203098125057295e-05
1.921647708513774e-05,-4.976577838533558e-05,3.4350632631685585e-05,4.191635161987506e-05,-2.7909678465221077e-05,6.545950600411743e-05
2.2310319764073938e-05,-5.267837696010247e-05,3.4531636629253626e-05,4.5204862544778734e-05,-3.348759128130041e-05,8.598738349974155e-05
2.268890784762334e-05,-5.114573650644161e-05,2.8721069611492567e-05,4.77812354802154e-05,-3.222723171347752e-05,9.406065510120243e-05
1.905513636302203e-05,-4.704871025751345e-05,2.589793803053908e-05,4.9189857236342505e-05,-2.6779025574796833e-05,8.407828136114404e-05
1.6165706256288104e-05,-4.446828825166449e-05,2.98555132758338e-05,4.6814748202450573e-05,-2.2370519218384288e-05,6.731880421284586e-05
1.5923862520139664e-05,-4.332189564593136e-05,3.5489701986080036e-05,4.0392009395873174e-05,-1.934371357492637e-05,5.275027433526702e-05
1.7184260286740027e-05,-4.251982318237424e-05,3.954597923438996e-05,3.507027940941043e-05,-1.3466505151882302e-05,3.399820707272738e-05
1.5847772374399938e-05,-4.156766226515174e-05,4.094657560926862e-05,3.151792770950124e-05,-3.7397978758235695e-06,2.147648046957329e-06
1.2606350537680555e-05,-3.886935155605897e-05,4.064997847308405e-05,2.6905699996859767e-05,4.461714979697717e-06,-3.3030693884938955e-05
1.3979206414660439e-05,-3.838143311440945e-05,3.887145794578828e-05,2.1601923435810022e-05,1.0974563338095322e-05,-5.0058755732607096e-05
1.8143709894502535e-05,-4.045196692459285e-05,3.7549874832620844e-05,1.3570899682235904e-05,1.0410207323729992e-05,-3.761721382034011e-05
2.363773455726914e-05,-4.042524960823357e-05,3.6079101846553385e-05,5.122862148709828e-06,4.170891315879999e-06,-8.118557161651552e-06
3.177387407049537e-05,-4.0951774280983955e-05,3.557085437932983e-05,3.4538741147116525e-06,-1.7153389535451424e-06,1.413835161656607e-05
3.453091994742863e-05,-4.6360506530618295e-05,3.641668808995746e-05,3.4471411254344275e-06,-9.784624126041308e-06,2.732593748078216e-05
3.2544670830247924e-05,-5.3558716899715364e-05,3.6312456359155476e-05,2.289622216267162e-06,-2.3833687009755522e-05,3.799246405833401e-05
2.915285949711688e-05,-5.4920019465498626e-05,3.407467374927364e-05,5.202865850151284e-06,-4.0600221836939454e-05,5.2370160119608045e-05
2.5953517251764424e-05,-5.266112930257805e-05,2.920527731475886e-05,1.0742775884864386e-05,-5.13724735355936e-05,7.166582508943975e-05
2.3190106730908155e-05,-5.028466694056988e-05,2.7916321414522827e-05,1.7598364138393663e-05,-5.682121263816953e-05,9.180990309687331e-05
1.9348517525941133e-05,-4.863301364821382e-05,2.955739364551846e-05,2.5399269361514598e-05,-5.576603871304542e-05,0.0001011024578474462
1.6538091585971415e-05,-4.9360165576217696e-05,3.135382939944975e-05,3.593954897951335e-05,-4.487598198466003e-05,9.621802746551111e-05
1.5546789654763415e-05,-4.959474244969897e-05,3.0989049264462665e-05,4.66683559352532e-05,-2.4392820705543272e-05,8.430956222582608e-05
1.6474572475999594e-05,-4.927187546854839e-05,3.231770824640989e-05,5.510094706551172e-05,1.5772341157571645e-06,6.583124923054129e-05
1.6929019693634473e-05,-4.802896728506312e-05,3.619685594458133e-05,6.305446731857955e-05,2.8851907700300217e-05,4.161371543887071e-05
1.7098403986892663e-05,-4.737559356726706e-05,3.743994966498576e-05,7.09159139660187e-05,5.0873342843260616e-05,2.2637148504145443e-05
1.856400012911763e-05,-4.6796805690974e-05,3.284025297034532e-05,7.320895383600146e-05,6.158924952615052e-05,2.917562596849166e-05
2.043282256636303e-05,-4.6506036596838385e-05,2.587854760349728e-05,6.906031194375828e-05,5.947620957158506e-05,6.243809184525162e-05
1.945493568200618e-05,-4.789217928191647e-05,2.2168527721078135e-05,6.375575321726501e-05,4.893993173027411e-05,0.00010032750287791714
1.5897347111604176e-05,-4.921865911455825e-05,2.1396939700935036e-05,6.142963684396818e-05,3.528759771143086e-05,0.00012203830556245521
1.2073249308741651e-05,-4.923878805129789e-05,2.291076998517383e-05,6.235552427824587e-05,2.1353262127377093e-05,0.00012750137830153108
9.802100066735875e-06,-4.928435373585671e-05,2.5871860998449847e-05,6.194025627337396e-05,1.0873307473957539e-05,0.0001275384274777025
7.740532055322547e-06,-4.821717811864801e-05,2.9718987207161263e-05,5.56018203496933e-05,4.046970389026683e-06,0.000128199826576747
7.3112578320433386e-06,-4.742950477520935e-05,3.3013468055287376e-05,4.6805776946712285e-05,-2.100465280818753e-06,0.0001269190397579223
1.1294217074464541e-05,-5.154668178874999e-05,3.692719474202022e-05,3.823452425422147e-05,-8.543355761503335e-06,0.00012280791997909546
1.571810571476817e-05,-5.4017320508137345e-05,4.0707571315579116e-05,3.0169918318279088e-05,-1.2522778888524044e-05,0.00011388966959202662
2.0066005163243972e-05,-5.239617530605756e-05,4.113385148230009e-05,2.3464765035896562e-05,-1.471560426580254e-05,9.87551175057888e-05
2.488409518264234e-05,-5.14020721311681e-05,3.612038563005626e-05,1.4797140465816483e-05,-1.6372165191569366e-05,8.024142880458385e-05
2.628973925311584e-05,-5.133501690579578e-05,3.053606997127645e-05,9.196401151712053e-06,-1.7955451767193154e-05,6.477169517893344e-05
2.0288776795496233e-05,-5.054797657066956e-05,2.9382026696112007e-05,8.397847523156088e-06,-2.0204817701596767e-05,6.32798983133398e-05
1.4694015590066556e-05,-4.917167461826466e-05,3.023346835107077e-05,1.1070708751503844e-05,-2.1159281459404156e-05,6.448964268201962e-05
2.093443072226364e-05,-4.871229612035677e-05,3.142391506116837e-05,1.79486523848027e-05,-2.3129716282710433e-05,6.378102261805907e-05
2.9628365155076608e-05,-4.96680113428738e-05,3.503452171571553e-05,2.211252649431117e-05,-2.6094385248143226e-05,6.929101800778881e-05
3.063384792767465e-05,-5.011264875065535e-05,3.889087020070292e-05,2.447832412144635e-05,-2.8359903808450326e-05,6.577761087100953e-05
2.490701444912702e-05,-4.860720582655631e-05,3.831331559922546e-05,2.8510101401479915e-05,-3.0990035156719387e-05,4.8646266805008054e-05
1.68265378306387e-05,-4.8569145292276517e-05,3.61208149115555e-05,3.2726260542403907e-05,-3.2585874578217044e-05,3.4388835047138855e-05
9.297842552768998e-06,-5.21646325069014e-05,3.64872939826455e-05,4.029765841551125e-05,-3.172963624820113e-05,3.120743713225238e-05
3.10902555611392e-06,-5.5307300499407575e-05,3.458052015048452e-05,4.554391489364207e-05,-2.9962346161482856e-05,3.111630940111354e-05
-8.086203138191195e-07,-5.676460568793118e-05,3.0658684408990666e-05,4.063802043674514e-05,-3.019633368239738e-05,2.5126535547315143e-05
-1.230667976415134e-06,-5.863869228051044e-05,2.6771753255161457e-05,2.9424581953207962e-05,-2.7563923140405677e-05,1.9739931303774938e-05
5.513365977094509e-06,-5.863941623829305e-05,2.5008621378219686e-05,1.7450716768507846e-05,-2.2146141418488696e-05,2.1819985704496503e-05
1.8681381334317848e-05,-5.4709907999495044e-05,2.7094592951470986e-05,3.5187952107662568e-06,-1.8041739167529158e-05,3.371807906660251e-05
3.276382994954474e-05,-4.947819252265617e-05,3.1613748433301225e-05,-8.657593753014226e-06,-1.6435682482551783e-05,5.0494196329964325e-05
4.046611502417363e-05,-4.6177512558642775e-05,3.385558011359535e-05,-1.2891548976767808e-05,-1.4967033166612964e-05,6.146582018118352e-05
4.203445132588968e-05,-4.556805288302712e-05,3.278250005678274e-05,-8.997629265650176e-06,-1.3738736925006378e-05,6.099513848312199e-05
4.276535037206486e-05,-4.701512079918757e-05,3.300048774690367e-05,-3.1983881854102947e-06,-1.2936930943396874e-05,5.300579505274072e-05
4.2574152757879347e-05,-4.961229569744319e-05,3.581013879738748e-05,1.8026048564934172e-06,-1.2581268492795061e-05,4.890838681603782e-05
4.099887519259937e-05,-5.063081334810704e-05,3.71186833945103e-05,7.574322808068246e-06,-1.3858670172339771e-05,5.3093153837835416e-05
4.346007699496113e-05,-5.1324292144272476e-05,3.423693124204874e-05,1.401600911776768e-05,-1.672305188549217e-05,5.8087563957087696e-05
5.092656647320837e-05,-5.591835724771954e-05,3.130052573396824e-05,2.050004513876047e-05,-2.009913259826135e-05,5.710905315936543e-05
5.418548607849516e-05,-6.269066216191277e-05,2.6842271836358123e-05,2.4735767510719597e-05,-2.2195576093508862e-05,5.2305877034086734e-05
5.009772576158866e-05,-6.413488154066727e-05,2.3121556296246126e-05,2.5595081751816906e-05,-2.5288160031777807e-05,4.582232577376999e-05
4.354555130703375e-05,-5.847426291438751e-05,2.668740307854023e-05,2.503733958292287e-05,-2.91848300548736e-05,4.588044612319209e-05
3.7614307075273246e-05,-5.353641608962789e-05,3.385855961823836e-05,2.460951145621948e-05,-2.6953901397064328e-05,6.160056364024058e-05
3.3523287129355595e-05,-5.3861120250076056e-05,3.893091343343258e-05,2.3791644707671367e-05,-2.2095291569712572e-05,7.937852933537215e-05
2.8974423912586644e-05,-5.449421223602258e-05,4.2447027226444334e-05,3.449641008046456e-05,-2.076909368042834e-05,8.698899182491004e-05
2.2071624698583037e-05,-5.014120688429102e-05,4.6107197704259306e-05,5.848120417795144e-05,-1.8852297216653824e-05,8.836135384626687e-05
1.718605199130252e-05,-4.460666241357103e-05,4.805089338333346e-05,8.110166527330875e-05,-1.5352381524280645e-05,9.217859769705683e-05
1.8033262676908635e-05,-4.076939876540564e-05,4.4805237848777324e-05,8.908909512683749e-05,-1.1434301995905116e-05,0.00010106901754625142
2.036248770309612e-05,-3.994452708866447e-05,3.833504160866141e-05,7.816402649041265e-05,-1.113283542508725e-05,0.0001023639997583814
2.107868203893304e-05,-4.3088501115562394e-05,3.5263237805338576e-05,6.143512291600928e-05,-9.87558360066032e-06,9.289077570429072e-05
2.2715981685905717e-05,-4.5846398279536515e-05,3.770947296288796e-05,4.9876038247020915e-05,-7.727066076768097e-06,8.350652933586389e-05
2.5340170395793393e-05,-4.6328095777425915e-05,3.693108737934381e-05,4.379316669655964e-05,-6.581398793059634e-06,7.839497266104445e-05
2.5004066628753208e-05,-4.568502845359035e-05,3.251352609368041e-05,3.7191039155004546e-05,-7.3748465183598455e-06,7.34813729650341e-05
1.9264763977844268e-05,-4.59087714261841e-05,2.8936017770320177e-05,2.93734556180425e-05,-9.112090083363e-06,6.316777580650523e-05
1.1624863873294089e-05,-4.505640026764013e-05,2.6025731131085195e-05,2.527616379666142e-05,-9.153728569799569e-06,3.8781636249041185e-05
8.528562830178998e-06,-4.44573670392856e-05,2.2757219994673505e-05,2.3586530005559325e-05,-7.899308911873959e-06,5.330025487637613e-06
1.2913282262161374e-05,-4.5800064981449395e-05,2.0655277694459073e-05,2.27302843995858e-05,-7.155156708904542e-06,-1.663111470406875e-05
2.4600276447017677e-05,-4.756301859742962e-05,2.0456034690141678e-05,2.0776617020601407e-05,-7.889775588409975e-06,-1.5241037544910796e-05
3.832019865512848e-05,-4.988873843103647e-05,2.1340494640753604e-05,1.6141040759976022e-05,-6.668674359389115e-06,-6.583360345757683e-07
4.6101220505079255e-05,-5.2197548939147964e-05,2.1781577743240632e-05,1.1830590665340424e-05,-2.323549324501073e-06,1.1118382644781377e-05
4.5017226511845365e-05,-5.230636816122569e-05,1.9874445570167154e-05,1.4480154277407564e-05,2.4845166990417056e-06,1.763723776093684e-05
3.699919761857018e-05,-5.049188985140063e-05,1.811612855817657e-05,2.001535176532343e-05,5.55443148186896e-06,2.543970913393423e-05
2.745128767855931e-05,-4.70033883175347e-05,2.133455200237222e-05,1.782227263902314e-05,8.1556199802435e-06,3.6695582821266726e-05
1.8909204300143756e-05,-4.107606582692824e-05,2.9613285732921213e-05,6.748252417310141e-06,9.679172762844246e-06,4.731731678475626e-05
1.1605144209170248e-05,-3.722446854226291e-05,3.737879160325974e-05,-1.1342424386384664e-06,1.0040929737442639e-05,5.765253081335686e-05
4.419759989104932e-06,-3.9182374166557565e-05,3.9383092371281236e-05,3.200051878593513e-06,6.8233343881729525e-06,6.806587043683976e-05
-1.7266629583900794e-06,-4.360206730780192e-05,3.2846612157300115e-05,1.1394630746508483e-05,1.0269922086081351e-06,7.27912483853288e-05
-3.3509584227431333e-06,-4.592866389430128e-05,2.374423638684675e-05,1.5175312000792474e-05,-4.351220923126675e-06,6.913082324899733e-05
-6.02708496444393e-07,-4.697275289800018e-05,1.938532295753248e-05,1.641963899601251e-05,-6.888157713547116e-06,6.524912168970332e-05
2.878813347706455e-06,-4.9290178139926866e-05,2.1251737052807584e-05,1.6847987353685312e-05,-8.382594387512654e-06,6.317635416053236e-05
3.767590442294022e-06,-5.3760271839564666e-05,2.667264561750926e-05,1.734885518089868e-05,-1.1203262147319037e-05,6.025378024787642e-05
3.3419385090383003e-06,-5.5156877351691946e-05,2.7060643333243206e-05,2.0424560716492124e-05,-1.590419742569793e-05,5.5064199841581285e-05
1.4335275864141295e-06,-5.137073458172381e-05,2.1363142877817154e-05,2.5008621378219686e-05,-1.7460488379583694e-05,4.634539800463244e-05
7.33486103854375e-07,-4.947945490130223e-05,1.869032348622568e-05,2.7636535378405824e-05,-1.3625497558678035e-05,3.919032315025106e-05
1.2343411981419194e-06,-5.1198916480643675e-05,1.92127627087757e-05,3.094031853834167e-05,-1.0373903933214024e-05,4.209519102005288e-05
4.735339189210208e-06,-5.132479782332666e-05,2.07968769245781e-05,3.421414294280112e-05,-8.349231393367518e-06,5.217765647103079e-05
1.2118166523578111e-05,-5.138308188179508e-05,2.3545602743979543e-05,3.4255965147167444e-05,-8.981772225524765e-06,5.9601028624456376e-05
1.8731032469077036e-05,-5.001446697860956e-05,2.693142778298352e-05,3.473622928140685e-05,-1.0632191333570518e-05,6.346674490487203e-05
2.8360918804537505e-05,-4.9003570893546566e-05,3.004678728757426e-05,3.5341006878297776e-05,-1.0228162864223123e-05,6.132707494543865e-05
3.860631477436982e-05,-5.01242138852831e-05,3.2960695534711704e-05,3.6625995562644675e-05,-4.0123522921931e-06,5.4682463087374344e-05
4.823374911211431e-05,-5.162639354239218e-05,3.507407382130623e-05,3.7310765037545934e-05,3.852123882097658e-06,4.943955354974605e-05
5.216526551521383e-05,-5.11854377691634e-05,3.668575664050877e-05,3.541249316185713e-05,4.129816261411179e-06,5.233641786617227e-05
4.9354399379808456e-05,-4.886739407083951e-05,3.692649625008926e-05,3.097073204116896e-05,-3.991625305843627e-07,5.950081686023623e-05
4.688997069024481e-05,-4.8410365707241e-05,3.5294073313707486e-05,2.4803117412375286e-05,-2.596764261397766e-06,6.1232247389853e-05
4.481502764974721e-05,-4.8602269089315087e-05,3.377178654773161e-05,1.90767186722951e-05,-1.072360191756161e-06,5.837757998961024e-05
3.968227974837646e-05,-4.8603473260300234e-05,3.258234937675297e-05,1.5357378288172185e-05,-1.01870739399601e-06,5.3805470088263974e-05
4.0124628867488354e-05,-4.9182039219886065e-05,3.0261890060501173e-05,1.2137139492551796e-05,-2.7814221539301798e-06,5.56659433641471e-05
5.7720899349078536e-05,-5.055716974311508e-05,2.830749326676596e-05,9.248095921066124e-06,-3.7234071896818932e-06,7.353279215749353e-05
7.96393069322221e-05,-4.985016494174488e-05,2.8526106689241715e-05,9.640024472901132e-06,-4.095076292287558e-06,0.0001010442865663208
8.340637577930465e-05,-4.853714563068934e-05,3.1288178433896974e-05,1.2030734978907276e-05,-5.94714083490544e-06,0.00012090384552720934
6.548486999236047e-05,-4.884944064542651e-05,3.624995588324964e-05,1.3617535842058714e-05,-9.269666406908073e-06,0.00012344038987066597
4.164430720265955e-05,-5.099664122099057e-05,4.024352165288292e-05,1.6523159501957707e-05,-1.2499028343881946e-05,0.00010742319136625156
2.3895769118098542e-05,-5.0034002924803644e-05,4.149858432356268e-05,2.2963547962717712e-05,-1.303395583818201e-05,8.36327308206819e-05
1.0040746929007582e-05,-4.608332164934836e-05,3.907849531969987e-05,2.9078377338009886e-05,-1.0591657883196604e-05,6.436413968913257e-05
-5.250624781183433e-06,-4.563835682347417e-05,3.488763468340039e-05,3.432212906773202e-05,-7.265322437888244e-06,5.401595990406349e-05
-1.726916707411874e-05,-4.828558667213656e-05,3.289176311227493e-05,4.4098302169004455e-05,-6.748676241841167e-06,4.7143472329480574e-05
-1.973469989025034e-05,-4.7457248001592234e-05,3.569829641492106e-05,5.450575554277748e-05,-8.99875976756448e-06,4.033222285215743e-05
-1.3324445717444178e-05,-4.348758011474274e-05,3.859925709548406e-05,5.864440754521638e-05,-9.741667781781871e-06,4.741955126519315e-05
-6.236472017917549e-06,-4.458250623429194e-05,3.746747097466141e-05,6.228067650226876e-05,-5.998831966280704e-06,6.557997403433546e-05
-3.6045055367139867e-06,-4.836659354623407e-05,3.210690192645416e-05,6.706570275127888e-05,-2.626291461638175e-06,6.481073796749115e-05
-1.7042544868672849e-06,-5.1197388529544696e-05,2.484497963450849e-05,7.004669168964028e-05,-4.69130009150831e-06,3.974024730268866e-05
3.457724915278959e-06,-5.445114948088303e-05,2.0450252122827806e-05,7.218509563244879e-05,-7.7121912909206e-06,9.998097084462643e-06
7.491337782994378e-06,-5.593222158495337e-05,1.946409793163184e-05,7.012276910245419e-05,-8.105220331344754e-06,-7.530627954110969e-06
1.0889655641221907e-05,-5.368286292650737e-05,2.2327421902446076e-05,5.735956074204296e-05,-7.2675438786973245e-06,-9.410156053490937e-06
1.4557373106072191e-05,-4.8920312110567465e-05,2.8893104172311723e-05,3.458612991380505e-05,-7.760437256365549e-06,-1.8024500150204403e-06
1.5271374650183134e-05,-4.355356577434577e-05,3.4890719689428806e-05,1.4294840184447821e-05,-8.050368705880828e-06,1.714243262540549e-05
1.3612402653961908e-05,-3.944188938476145e-05,3.766700319829397e-05,4.094459200132405e-06,-1.092213460651692e-05,3.929065860575065e-05
2.0017450879095122e-05,-3.959867171943188e-05,3.9049216866260394e-05,2.3660913939238526e-06,-1.558259828016162e-05,5.1466395234456286e-05
4.0395196265308186e-05,-4.4506723497761413e-05,4.0553324652137235e-05,7.1103954724094365e-06,-2.149304964405019e-05,5.076982415630482e-05
6.21998988208361e-05,-5.303230864228681e-05,4.248772165738046e-05,1.4570630810339935e-05,-2.7328058422426693e-05,4.906723916064948e-05
6.925038178451359e-05,-6.006261537550017e-05,4.383061605039984e-05,2.05826527235331e-05,-3.017621384060476e-05,5.767565016867593e-05
5.939766197116114e-05,-6.235735781956464e-05,4.2313316953368485e-05,2.548719203332439e-05,-2.8793083401978947e-05,6.986506923567504e-05
4.065459143021144e-05,-6.322447734419256e-05,3.756381920538843e-05,3.106258373009041e-05,-2.6231542506138794e-05,7.401009497698396e-05
2.1418551114038564e-05,-6.437619595089927e-05,3.172267315676436e-05,3.3026641176547855e-05,-2.7280824724584818e-05,7.598361844429746e-05
7.0777241489849985e-06,-6.463631143560633e-05,2.907400812546257e-05,2.597282946226187e-05,-3.163727524224669e-05,8.868338773027062e-05
-1.7043811340045067e-06,-6.213879532879218e-05,3.1468833185499534e-05,1.1112521860923152e-05,-3.899739749613218e-05,0.00010343803296564147
-6.8647609623440076e-06,-5.934950240771286e-05,3.557508534868248e-05,-2.6631971650203923e-07,-4.7057619667612016e-05,0.00010739651770563796
-1.2267671081644949e-05,-5.742659413954243e-05,3.6709643609356135e-05,-9.109470511248219e-07,-4.9450583901489154e-05,0.00010019387264037505
-1.8812452253769152e-05,-5.6505614338675514e-05,3.595254383981228e-05,1.8977596027980326e-06,-4.286944749765098e-05,9.165787196252495e-05
-2.2712363715982065e-05,-6.05770037509501e-05,3.5381912312004715e-05,4.256578449712833e-06,-3.436744009377435e-05,8.3111175626982e-05
-2.0428782590897754e-05,-6.617251347051933e-05,3.2422056392533705e-05,8.714430805412121e-06,-2.9367220122367144e-05,7.528033165726811e-05
-1.6879395843716338e-05,-6.526196375489235e-05,2.6521691324887797e-05,1.600561517989263e-05,-2.523926377762109e-05,7.669432670809329e-05
-1.3637339179695118e-05,-5.935962326475419e-05,2.2958825866226107e-05,2.7056745238951407e-05,-1.5982441254891455e-05,8.476615039398894e-05
-1.0226560334558599e-05,-5.121672438690439e-05,2.1285157345118932e-05,3.972095510107465e-05,-3.626782245191862e-06,9.05985216377303e-05
-4.632531272363849e-06,-4.431083652889356e-05,1.9474722648737952e-05,5.011575558455661e-05,5.294618404150242e-06,9.504728950560093e-05
5.097588655189611e-06,-4.311947486712597e-05,2.0900504750898108e-05,5.4633153922623023e-05,1.2376453014439903e-05,9.18921796255745e-05
1.3759112334810197e-05,-4.345900015323423e-05,2.4955868866527453e-05,6.225179095054045e-05,1.2868140402133577e-05,8.101708226604387e-05
1.975547093024943e-05,-4.344555418356322e-05,2.9015160180279054e-05,7.512015872634947e-05,5.660239139615442e-07,7.806619396433234e-05
2.3024789697956294e-05,-4.4540971430251375e-05,2.8163007300463505e-05,8.378518396057189e-05,-1.1770106539188419e-05,7.893783913459629e-05
2.3029591829981655e-05,-4.41458287241403e-05,2.4519407816114835e-05,7.948425627546385e-05,-1.754146614985075e-05,7.881271449150518e-05
2.74781632469967e-05,-4.509422797127627e-05,2.6602023353916593e-05,5.484573557623662e-05,-1.9498564142850228e-05,7.166637078626081e-05
3.7163081287872046e-05,-4.850799450650811e-05,2.9532220651162788e-05,2.4271694201161154e-05,-1.958982647920493e-05,6.43781604594551e-05
4.6555611334042624e-05,-4.9148853577207774e-05,2.7176485673408024e-05,5.3584208217216656e-06,-1.6685926311765797e-05,6.734661292284727e-05
5.150295328348875e-05,-4.571262979879975e-05,2.514979314582888e-05,1.9448773400654318e-06,-1.2054271792294458e-05,6.945341010577977e-05
5.67465576750692e-05,-4.5027722080703825e-05,2.5452414774917997e-05,4.931250259687658e-06,-6.950172974029556e-06,6.135483272373676e-05
7.679601549170911e-05,-5.048386810813099e-05,2.747715188888833e-05,8.00649831944611e-06,-2.5385884327988606e-06,4.9417696573073044e-05
0.00011601197184063494,-5.8358524256618693e-05,3.149437179672532e-05,9.985723409045022e-06,2.6150269150093663e-07,4.0936549339676276e-05
0.0001513531169621274,-6.506471254397184e-05,3.662555172923021e-05,1.2107981092412956e-05,3.8978337215667125e-06,3.170284617226571e-05
0.00015541986795142293,-6.762052362319082e-05,3.992717756773345e-05,1.5501276720897295e-05,5.912003416597145e-06,1.7734299035510048e-05
0.0001254101807717234,-6.64100589347072e-05,3.902252501575276e-05,1.4699446182930842e-05,6.727704203512985e-06,3.6956755593564594e-06
8.003888797247782e-05,-6.441280129365623e-05,3.5282391763757914e-05,1.067337052518269e-05,8.511336091032717e-06,8.123857696773484e-06
3.904917321051471e-05,-6.380444392561913e-05,3.104219649685547e-05,9.81020275503397e-06,1.219919249706436e-05,3.618681148509495e-05
8.175919901987072e-06,-6.323165871435776e-05,2.8587346605490893e-05,1.1711126717273146e-05,1.4255717360356357e-05,6.69008877594024e-05
-1.809741479519289e-05,-6.0474983911262825e-05,2.7268086341791786e-05,1.028823226079112e-05,1.5416741007356904e-05,8.023650298127905e-05
-4.597945371642709e-05,-5.4701249609934166e-05,2.831576239259448e-05,2.831498932209797e-06,2.0885763660771772e-05,8.123816223815084e-05
-6.711385503876954e-05,-4.8616231651976705e-05,3.223701423848979e-05,-7.217584879981587e-06,2.9273656764416955e-05,8.587646880187094e-05
-7.192658085841686e-05,-4.296101542422548e-05,3.407638723729178e-05,-1.4323049981612712e-05,3.0304556275950745e-05,8.960987906903028e-05
-5.817171040689573e-05,-3.681494854390621e-05,3.1529361876891926e-05,-1.0295656466041692e-05,2.265650255139917e-05,7.723665476078168e-05
-2.0660589143517427e-05,-3.2705960620660335e-05,2.814583967847284e-05,1.2617889296961948e-05,1.295803849643562e-05,5.7874785852618515e-05
3.472801108728163e-05,-3.4684660931816325e-05,2.6784689907799475e-05,4.7903406084515154e-05,4.514223746809876e-06,4.874173100688495e-05
9.854917880147696e-05,-3.990673940279521e-05,2.879719431803096e-05,8.66306945681572e-05,-3.980617748311488e-06,5.7126999308820814e-05
0.00014495872892439365,-4.341561725595966e-05,3.236299380660057e-05,0.00011434772022766992,-1.0305586329195648e-05,7.199282117653638e-05
0.00013696170935872942,-4.2395702621433884e-05,3.617897891672328e-05,0.00011443858238635585,-1.3940585631644353e-05,8.390720176976174e-05
8.547121251467615e-05,-3.9385497075272724e-05,3.832263973890804e-05,9.211561700794846e-05,-1.6510497516719624e-05,9.520636376691982e-05
2.4399099856964312e-05,-4.087264824192971e-05,3.790091068367474e-05,7.679574628127739e-05,-2.0583995137712918e-05,0.00010274248052155599
-2.5343724701087922e-05,-4.762822936754674e-05,3.49189831467811e-05,7.373789412667975e-05,-2.6548186724539846e-05,9.81582998065278e-05
-6.54079340165481e-05,-5.651683750329539e-05,2.9583154173451476e-05,6.778658280381933e-05,-3.009555075550452e-05,7.180527609307319e-05
-9.82474084594287e-05,-6.220417708391324e-05,2.842495814547874e-05,5.785223765997216e-05,-3.4372485970379785e-05,4.14601199736353e-05
-0.00011835447367047891,-6.133625720394775e-05,3.064488555537537e-05,4.675254240282811e-05,-3.951345934183337e-05,2.6676791094359942e-05
-0.00011819327482953668,-5.5528573284391314e-05,3.441929948166944e-05,4.3471740355016664e-05,-4.816005821339786e-05,1.8190097762271762e-05
-0.00010059003398055211,-4.963007086189464e-05,3.931016181013547e-05,4.537437780527398e-05,-5.826282358611934e-05,1.0087878763442859e-05
-8.269767567981035e-05,-4.02809091610834e-05,4.21505028498359e-05,4.732363231596537e-05,-6.538432353409007e-05,9.850168680713978e-06
-7.080208888510242e-05,-2.7556483473745175e-05,3.971510159317404e-05,4.4213022192707285e-05,-6.637518526986241e-05,2.348585258005187e-05
-5.580284778261557e-05,-1.8678194464882836e-05,3.476803613011725e-05,3.7907480873400345e-05,-6.662797386525199e-05,4.3471587559906766e-05
-3.239997022319585e-05,-1.5940533558023162e-05,3.068316073040478e-05,3.353034844622016e-05,-6.881276931380853e-05,4.8841804527910426e-05
-9.812541065912228e-06,-1.4157873010844924e-05,2.55063823715318e-05,2.913908065238502e-05,-6.980195757932961e-05,3.690433004521765e-05
1.4026993540028343e-06,-1.0979518265230581e-05,1.9280028936918825e-05,2.2365335098584183e-05,-6.873607344459742e-05,2.5913288482115604e-05
3.7686941141146235e-06,-1.1360943062754814e-05,1.648619945626706e-05,1.5109607375052292e-05,-6.461683369707316e-05,2.506933560653124e-05
6.178042440296849e-06,-1.835320654208772e-05,2.0262175894458778e-05,1.1169002391397953e-05,-5.332204818842001e-05,2.655863318068441e-05
1.0840029062819667e-05,-2.9323196940822527e-05,2.7011194106307812e-05,9.374773071613163e-06,-3.0442175557254814e-05,2.571855111455079e-05
2.3260990928974934e-05,-3.953120540245436e-05,3.427498813834973e-05,6.2329986576514784e-06,-2.370990159761277e-07,2.5942235879483633e-05
4.7962108510546386e-05,-4.8286605306202546e-05,3.952314000343904e-05,-2.8068582196283387e-06,3.0341501769726165e-05,2.44367474806495e-05
7.337889837799594e-05,-5.3682630095863715e-05,4.394814095576294e-05,-1.150519437942421e-05,5.694690116797574e-05,1.700625398370903e-05
8.070624608080834e-05,-5.5106218496803194e-05,4.89256126456894e-05,-1.226579388458049e-05,7.737526902928948e-05,1.2578489076986443e-05
7.671897765249014e-05,-5.476905789691955e-05,4.8974714445648715e-05,-1.0179159289691597e-05,8.770939166424796e-05,2.2339741917676292e-05
9.124174539465457e-05,-5.7402332458877936e-05,4.673025614465587e-05,-1.060120757756522e-05,8.970720955403522e-05,4.215309672872536e-05
0.00011757403262890875,-5.8969573728973046e-05,4.773714317707345e-05,-7.351976819336414e-06,8.23467125883326e-05,5.811240407638252e-05
0.00011829385039163753,-5.793821037514135e-05,4.8806741688167676e-05,3.4152301964240905e-07,6.885229959152639e-05,6.30049325991422e-05
9.12244722712785e-05,-5.849562876392156e-05,4.7622354031773284e-05,9.063794095709454e-06,5.5063112085917965e-05,6.851154466858134e-05
5.3641339036403224e-05,-5.9498532209545374e-05,4.2500065319472924e-05,1.60497693286743e-05,4.284792157704942e-05,7.605717837577686e-05
3.157975515932776e-05,-5.6642686104169115e-05,3.818133336608298e-05,1.2365256225166377e-05,3.235929398215376e-05,7.606256258441135e-05
2.2701473426423036e-05,-4.899508712696843e-05,3.7875372072448954e-05,7.529382855864242e-06,2.346832843613811e-05,7.278072735061869e-05
6.4032806221803185e-06,-3.878181451000273e-05,3.593772271415219e-05,1.2456127478799317e-05,1.2519600204541348e-05,6.785829464206472e-05
-7.1875415414979216e-06,-2.784296520985663e-05,3.398668559384532e-05,1.8775381249724887e-05,-9.472563533563516e-07,6.600297638215125e-05
1.2097842727598618e-06,-2.6365853045717813e-05,3.519586971378885e-05,2.554860657255631e-05,-9.719232366478536e-06,7.47701560612768e-05
2.1190931875025854e-05,-3.335915971547365e-05,3.7176756450207904e-05,3.183646549587138e-05,-1.2389344192342833e-05,8.561318827560171e-05
2.4278824639623053e-05,-4.42768978246022e-05,3.634756285464391e-05,3.628873673733324e-05,-1.1707145858963486e-05,8.388361311517656e-05
1.2631462595891207e-05,-5.395164043875411e-05,3.461406595306471e-05,3.684147304738872e-05,-1.178716411232017e-05,7.292121881619096e-05
1.3326305179361952e-06,-5.866135688847862e-05,3.3771917514968663e-05,3.521623511915095e-05,-1.5812927813385613e-05,5.8956091379513964e-05
-1.9500585040077567e-06,-5.8725487178890035e-05,2.9293452826095745e-05,3.403093069209717e-05,-2.2727965188096277e-05,4.458318289835006e-05
-1.7416829223293462e-06,-5.5588290706509724e-05,2.5305800591013394e-05,3.407210897421464e-05,-2.817759377649054e-05,3.893617758876644e-05
6.473019880104403e-07,-5.15289866598323e-05,2.4490134819643572e-05,3.2992804335663095e-05,-2.996402508870233e-05,4.152146357228048e-05
5.907032118557254e-06,-4.819382957066409e-05,2.4233722797362134e-05,3.120526162092574e-05,-3.2526830182177946e-05,4.473460285225883e-05
1.5328729205066338e-05,-4.8659199819667265e-05,2.2840631572762504e-05,3.1225707061821595e-05,-3.527392618707381e-05,4.964023901266046e-05
2.5941200874513015e-05,-5.1122322474839166e-05,2.15497930184938e-05,3.0198225431377068e-05,-3.4410350053803995e-05,6.151019624667242e-05
3.279020165791735e-05,-5.2290739404270425e-05,2.1542828108067624e-05,2.4976639906526543e-05,-3.0698614864377305e-05,7.538960926467553e-05
