3.603922596084885e-05,-4.870121483691037e-05,4.041394277010113e-05,4.2414965719217435e-05,-3.854877650155686e-05,0.00012532573600765318
3.553753049345687e-05,-4.920453284285031e-05,3.513550473144278e-05,4.088144487468526e-05,-3.795679731410928e-05,0.00011074117355747148
3.856360854115337e-05,-5.077746027382091e-05,3.375940286787227e-05,3.268951331847347e-05,-3.003349956998136e-05,8.354617602890357e-05
3.7054080166853964e-05,-5.2641506044892594e-05,3.408574775676243e-05,2.2721351342624985e-05,-2.6504290872253478e-05,6.164272781461477e-05
2.3595204766024835e-05,-5.805301771033555e-05,3.1301337003242224e-05,1.2762371625285596e-05,-2.7144102205056697e-05,5.782629159511998e-05
7.253844160004519e-06,-6.46500411676243e-05,2.8536951504065655e-05,-4.104251274839044e-06,-2.909632894443348e-05,7.139170338632539e-05
-8.301712455249799e-07,-6.488723738584667e-05,2.867193143174518e-05,-2.6214500394416973e-05,-2.6613975933287293e-05,8.54289683047682e-05
2.3363318177871406e-06,-6.092572948546149e-05,3.0430623155552894e-05,-3.5810448025586084e-05,-2.1972036847728305e-05,9.708050492918119e-05
9.227549526258372e-06,-5.814336327603087e-05,3.2248131901724264e-05,-2.033796590694692e-05,-1.7766760720405728e-05,9.894517279462889e-05
1.6213327398872934e-05,-5.621411037282087e-05,3.625348108471371e-05,9.590136869519483e-06,-1.544150109111797e-05,9.026665065903217e-05
2.456483525747899e-05,-5.500336192199029e-05,4.030038689961657e-05,3.1501793273491785e-05,-1.513624101789901e-05,8.501318370690569e-05
3.367150202393532e-05,-5.4886673751752824e-05,4.23577512265183e-05,3.543570346664637e-05,-1.4756450582353864e-05,8.509862527716905e-05
4.286799594410695e-05,-5.5228203564183787e-05,4.227589306537993e-05,2.7500782380229793e-05,-1.2028867786284536e-05,8.309450640808791e-05
4.875968807027675e-05,-5.433012483990751e-05,4.0802777220960706e-05,2.0414532627910376e-05,-7.614310561621096e-06,7.672878564335406e-05
5.072548447060399e-05,-5.1279937906656414e-05,3.760624167625792e-05,1.8813865608535707e-05,-4.6941668188082986e-06,6.918557483004406e-05
4.938510392094031e-05,-4.76858695037663e-05,3.481148087303154e-05,2.18145469261799e-05,-3.966858457715716e-06,6.182493962114677e-05
4.487070327741094e-05,-4.5220771426102147e-05,3.4578435588628054e-05,2.7183550628251396e-05,-5.614604560832959e-06,5.5434946261812e-05
3.6715548048960045e-05,-4.357060242909938e-05,3.5978460800834e-05,3.2143405405804515e-05,-9.444834176974837e-06,4.908786286250688e-05
2.7633812351268716e-05,-4.3485975766088814e-05,3.6856024962617084e-05,3.3978863939410076e-05,-1.2630183846340515e-05,4.96795546496287e-05
2.1893185476073995e-05,-4.36028785770759e-05,3.82195612473879e-05,3.234682299080305e-05,-1.2351209988992196e-05,6.485931226052344e-05
1.9833914848277345e-05,-4.186152000329457e-05,3.8103637052699924e-05,3.225155160180293e-05,-9.896465599013027e-06,9.790487092686817e-05
1.8965494746225886e-05,-3.8674159441143274e-05,3.5915072658099234e-05,3.6332185118226334e-05,-7.225446552183712e-06,0.000135151669383049
1.747287569742184e-05,-3.841192301479168e-05,3.530636604409665e-05,4.044407978653908e-05,-8.157457159541082e-06,0.00015866366447880864
1.828962740546558e-05,-4.1999915993073955e-05,3.5641638532979414e-05,4.3267053115414456e-05,-1.1560162420209963e-05,0.00016397912986576557
2.453704655636102e-05,-4.620270192390308e-05,3.413706144783646e-05,4.500943759921938e-05,-1.715799589874223e-05,0.00014789443230256438
3.5529144952306524e-05,-4.523737516137771e-05,3.3921634894795716e-05,4.146240098634735e-05,-2.4801471226965077e-05,0.00010858283349080011
4.9344529543304816e-05,-4.196659938315861e-05,3.700832894537598e-05,3.365898010088131e-05,-3.2985160942189395e-05,6.682165985694155e-05
5.754125231760554e-05,-4.4248023186810315e-05,3.920390008715913e-05,2.794425017782487e-05,-4.1821036575129256e-05,3.195240060449578e-05
5.37556734343525e-05,-4.775863271788694e-05,3.850779103231616e-05,2.6684345357352868e-05,-4.774652552441694e-05,1.4339013887365581e-06
4.19039570260793e-05,-5.021374818170443e-05,3.704322807607241e-05,2.350941940676421e-05,-4.69697879452724e-05,-2.4995257263071835e-05
2.9771123081445694e-05,-5.523976869881153e-05,3.513683259370737e-05,2.021960426645819e-05,-4.4706903281621635e-05,-4.6831482904963195e-05
2.2353706299327314e-05,-6.35962569504045e-05,3.33866810251493e-05,1.783351217454765e-05,-3.837164695141837e-05,-4.7109897423069924e-05
1.91814197023632e-05,-6.511493120342493e-05,3.470015144557692e-05,1.7143363947980106e-05,-2.7218036848353222e-05,-2.2677684683003463e-05
1.478534522902919e-05,-5.9342230088077486e-05,3.490205926937051e-05,1.989236261579208e-05,-1.8223976439912803e-05,-2.560697566877934e-06
8.151282600010745e-06,-5.799264909001067e-05,3.359458060003817e-05,2.2132178855827078e-05,-1.044509008352179e-05,-8.810063263808843e-06
2.5113906758633675e-06,-5.887569932383485e-05,3.448900315561332e-05,2.2695605366607197e-05,-4.051571067975601e-06,-2.5457318770349957e-05
2.304513827766641e-06,-5.7561872381484136e-05,3.6254190490581095e-05,2.0888684957753867e-05,1.4692962224671646e-07,-2.2313806766760536e-05
1.0746947737061419e-05,-5.193267861614004e-05,3.5318316804477945e-05,2.0135854356340133e-05,3.1974195735529065e-06,6.1647315305890515e-06
2.4246599423349835e-05,-4.5895820221630856e-05,3.2795338483992964e-05,2.1882726287003607e-05,7.435136012645671e-06,3.407278927625157e-05
3.420665962039493e-05,-4.1055700421566144e-05,3.130108234472573e-05,2.443871198920533e-05,1.4464915693679359e-05,4.029230694868602e-05
3.224691317882389e-05,-3.8589972973568365e-05,3.0353967304108664e-05,2.377649798290804e-05,2.0864850739599206e-05,3.550166729837656e-05
2.194193803006783e-05,-3.945593198295683e-05,2.928451976913493e-05,1.4808678315603174e-05,2.2513924704981036e-05,4.121983147342689e-05
1.2369199794193264e-05,-4.1071947634918615e-05,2.506145028746687e-05,-4.460462150746025e-07,2.095334821206052e-05,6.268696597544476e-05
7.1520589699503034e-06,-4.1517341742292047e-05,2.0894587578368373e-05,-1.0841137736861128e-05,2.0202242012601346e-05,9.703699470264837e-05
5.874118414794793e-06,-4.010933480458334e-05,2.4372517145820893e-05,-6.711647074553184e-06,1.944716859725304e-05,0.0001381755864713341
6.005605428072158e-06,-3.919696609955281e-05,3.289116284577176e-05,7.373883363470668e-06,1.8461729268892668e-05,0.00016973415040411055
5.951098046352854e-06,-4.002422792837024e-05,3.560430195648223e-05,2.113682057824917e-05,1.6088057236629538e-05,0.00016273147775791585
9.085559213417582e-06,-4.232866922393441e-05,3.115754952887073e-05,2.967448381241411e-05,6.170029337226879e-06,0.00011165747855557129
1.2533130757219624e-05,-4.610217365552671e-05,2.407066131127067e-05,3.30992515955586e-05,-7.374891993094934e-06,5.533705552807078e-05
1.211988455906976e-05,-5.258166856947355e-05,1.791062459233217e-05,3.2803003705339506e-05,-1.364223408018006e-05,3.0424405849771574e-05
1.301561133004725e-05,-5.8185873058391735e-05,1.8705002730712295e-05,3.589913103496656e-05,-1.2910619261674583e-05,3.574958464014344e-05
2.496510569471866e-05,-6.048842624295503e-05,2.5739471311680973e-05,3.9498012483818457e-05,-1.1421533599786926e-05,4.9940972530748695e-05
4.3674073822330683e-05,-5.9087560657644644e-05,3.265056147938594e-05,2.944007246696856e-05,-1.328161215496948e-05,5.564817547565326e-05
6.358152313623577e-05,-5.908580351388082e-05,3.591222412069328e-05,2.090004454657901e-05,-2.104014674841892e-05,4.79956142953597e-05
8.08349868748337e-05,-6.314059282885864e-05,3.7655176129192114e-05,3.427641422604211e-05,-2.6503110348130576e-05,4.2128820496145636e-05
7.97284665168263e-05,-6.620286876568571e-05,3.954624480684288e-05,5.3697451221523806e-05,-2.239136847492773e-05,4.934957905788906e-05
5.958176188869402e-05,-6.657717312918976e-05,4.014705336885527e-05,6.0119942645542324e-05,-1.3985888472234365e-05,5.683988638338633e-05
3.371902130311355e-05,-6.638209015363827e-05,3.957627995987423e-05,6.363065767800435e-05,-1.0056706742034294e-05,4.794998312718235e-05
1.0093796845467295e-05,-6.702390965074301e-05,3.6696983443107456e-05,6.480253796325997e-05,-1.2973681805306114e-05,3.429779098951258e-05
-9.417444744030945e-06,-6.667812704108655e-05,3.293691770522855e-05,5.3114334150450304e-05,-1.628476456971839e-05,3.2936139177763835e-05
-2.0658962966990657e-05,-6.395090895239264e-05,3.21999286825303e-05,3.80292913177982e-05,-1.4708247363159899e-05,3.80474011762999e-05
-2.3493246771977283e-05,-5.813278039568104e-05,3.398816625121981e-05,3.0216793675208464e-05,-1.2137687008362263e-05,4.525392432697117e-05
-2.282128480146639e-05,-5.246133150649257e-05,3.295279020676389e-05,3.418394408072345e-05,-1.281995173485484e-05,6.483914330601692e-05
-2.1349773305701092e-05,-4.990691741113551e-05,3.1005423807073385e-05,4.6162389480741695e-05,-1.387031443300657e-05,9.525777568342164e-05
-1.8425706002744846e-05,-4.804794298252091e-05,3.0251518182922155e-05,5.621239688480273e-05,-1.2593019164341968e-05,0.00010638505045790225
-1.5379493561340496e-05,-4.544316470855847e-05,3.0820454412605613e-05,5.5856271501397714e-05,-1.142899964179378e-05,8.073182834777981e-05
-1.2991426956432406e-05,-4.139837983530015e-05,3.310675674583763e-05,5.2738789236173034e-05,-1.2492470887082163e-05,3.849487620755099e-05
-9.342053999716882e-06,-3.860901415464468e-05,3.193017255398445e-05,5.540516576729715e-05,-1.844086182245519e-05,9.420492460776586e-06
-2.5684730644570664e-06,-4.053256634506397e-05,2.7647007300402038e-05,5.418164801085368e-05,-2.7218391551286913e-05,1.0039365179181914e-06
5.739301286666887e-06,-4.617654485628009e-05,2.540688365115784e-05,4.433481808518991e-05,-3.279029988334514e-05,7.62946638133144e-06
1.2159859579696786e-05,-5.380290167522617e-05,2.632276482472662e-05,3.200981154805049e-05,-3.346466473885812e-05,2.0726189177366905e-05
1.664989576966036e-05,-6.0099715483374894e-05,2.649955240485724e-05,2.3055270503391512e-05,-3.173170625814237e-05,3.2819778425619006e-05
2.0548719476209953e-05,-6.15508106420748e-05,2.4741846573306248e-05,1.7887470676214434e-05,-2.769061757135205e-05,4.3670832383213565e-05
2.7692960429703817e-05,-5.9336089179851115e-05,2.3922493710415438e-05,1.7264956113649532e-05,-1.99572659767e-05,5.54517209820915e-05
3.681823727674782e-05,-5.627230348181911e-05,2.6064928533742204e-05,2.1050382201792672e-05,-1.2923339454573579e-05,6.6032400354743e-05
3.9928836486069486e-05,-5.4072825150797144e-05,2.6279141820850782e-05,2.306707392563112e-05,-1.0604536328173708e-05,6.883812602609396e-05
3.4674816561164334e-05,-5.398138455348089e-05,2.4609656975371763e-05,1.5394363799714483e-05,-8.73154840519419e-06,7.196911610662937e-05
2.880797728721518e-05,-5.540725396713242e-05,2.429875712550711e-05,1.560983605486399e-06,-5.037436039856402e-06,8.531029016012326e-05
2.6947287551593035e-05,-5.423498441814445e-05,2.1249254132271744e-05,-8.00063025963027e-06,-1.7298307284363545e-06,0.00010004654905060306
3.0431076083914377e-05,-5.010494714952074e-05,1.7648539142101072e-05,-8.046885341173038e-06,1.8699743975503225e-08,0.00010581157403066754
3.626016768976115e-05,-4.71364583063405e-05,1.9470711777103133e-05,-2.7597836833592737e-06,-7.816721335984766e-06,0.00010538841888774186
3.83115402655676e-05,-4.659419573727064e-05,2.468968159519136e-05,7.184250080172205e-06,-2.2468017050414346e-05,9.9385273642838e-05
3.795636439463124e-05,-4.6164554078131914e-05,2.86292106466135e-05,1.9373675968381576e-05,-2.74220419669291e-05,8.699612226337194e-05
3.739614840014838e-05,-4.507301127887331e-05,3.054054832318798e-05,3.107784141320735e-05,-2.6063888071803376e-05,7.450333214364946e-05
3.872972592944279e-05,-4.4723041355609894e-05,3.153169745928608e-05,4.02474106522277e-05,-2.6356414309702814e-05,6.54161412967369e-05
3.7560392229352146e-05,-4.462452125153504e-05,2.955302261398174e-05,4.227727185934782e-05,-2.2131354853627272e-05,6.0989128542132676e-05
3.1021798349684104e-05,-4.138874282944016e-05,2.91461510641966e-05,3.9686012314632535e-05,-1.1120177077827975e-05,5.8532597904559225e-05
2.5441682737437077e-05,-3.780829138122499e-05,3.2214844395639375e-05,3.408734846743755e-05,2.2413223632611334e-06,5.7594410463934764e-05
2.5151484805974178e-05,-3.780890619964339e-05,3.2429972634417936e-05,3.272436879342422e-05,1.0145449778065085e-05,5.825857806485146e-05
2.7658146791509353e-05,-4.0906954382080585e-05,2.814795880112797e-05,3.398484113859013e-05,1.095495099434629e-05,6.122470222180709e-05
2.4057799237198196e-05,-4.514153260970488e-05,2.3756912924000062e-05,3.20826584356837e-05,8.967447683971841e-06,6.521865725517273e-05
1.8471500879968517e-05,-4.7138189984252676e-05,2.3796788809704594e-05,2.7736346964957193e-05,1.061697184923105e-05,6.535658030770719e-05
1.7151493011624552e-05,-4.8109253839356825e-05,2.5711888156365603e-05,2.4814100470393896e-05,1.3502324691216927e-05,6.066654168535024e-05
1.873854489531368e-05,-4.713386806542985e-05,2.6051811801153235e-05,2.032443808275275e-05,1.3923274309490807e-05,5.670153404935263e-05
1.7302720152656548e-05,-4.458019247977063e-05,2.5796056434046477e-05,1.4917497537680902e-05,1.1824647117464337e-05,5.7013825426111e-05
1.2581245755427517e-05,-4.092056042281911e-05,2.605599001981318e-05,1.4265334357332904e-05,6.538878551509697e-06,5.938761023571715e-05
1.1999904927506577e-05,-3.795273005380295e-05,2.584534013294615e-05,1.5538849766016938e-05,-2.653795831975003e-07,6.502051110146567e-05
1.6143010725500062e-05,-3.701368041220121e-05,2.6319708922528662e-05,1.4270208339439705e-05,-3.5138616567564895e-06,7.103922689566389e-05
2.0079492969671264e-05,-4.0473878470947966e-05,2.8629914595512673e-05,1.2837636859330814e-05,-1.6936614883888979e-06,6.980501348152757e-05
2.0515350115601905e-05,-4.554283441393636e-05,3.152805948047899e-05,1.694872662483249e-05,-1.892902105282701e-06,6.471021333709359e-05
1.9705250451806933e-05,-4.5797751226928085e-05,3.0214208891266026e-05,2.1390527763287537e-05,-5.571887868427439e-06,6.861188012408093e-05
1.8967391952173784e-05,-4.432464629644528e-05,2.666990076249931e-05,1.990300734178163e-05,-8.283601346192881e-06,8.023314876481891e-05
1.8532427930040285e-05,-4.32240885857027e-05,2.6774341677082703e-05,1.8052392988465726e-05,-8.40693883219501e-06,8.701003389433026e-05
1.8934391846414655e-05,-4.2886880692094564e-05,2.9216349503258243e-05,2.182924799853936e-05,-6.42701252218103e-06,8.347559196408838e-05
2.2532016373588704e-05,-4.604916102834977e-05,3.301118340459652e-05,2.7523712560650893e-05,-6.828443474660162e-06,7.907897816039622e-05
2.9275210181367584e-05,-4.957272903993726e-05,3.4736716770567e-05,3.6217250453773886e-05,-1.2435561984602828e-05,7.325539627345279e-05
3.292588735348545e-05,-5.1572547818068415e-05,3.407897747820243e-05,5.356677866075188e-05,-1.61319494509371e-05,6.0991482314420864e-05
3.163110159221105e-05,-4.993608672521077e-05,3.374924199306406e-05,6.910790398251265e-05,-1.4222544450603891e-05,5.401596718002111e-05
2.832885002135299e-05,-4.5112956286175177e-05,3.371203274582513e-05,5.5756860092515126e-05,-9.932011380442418e-06,4.660569902625866e-05
2.4707735065021552e-05,-4.514857573667541e-05,3.350778206367977e-05,2.6675079425331205e-05,-7.073388587741647e-06,2.902651067415718e-05
2.5247592930099927e-05,-4.5984659664100036e-05,3.197401383658871e-05,9.727272299642209e-06,-4.399007593747228e-06,1.8502756574889645e-05
2.5416469725314528e-05,-4.594591518980451e-05,3.088660741923377e-05,9.755852261150721e-06,-1.0965954970743041e-06,3.0109187719062902e-05
2.378283352300059e-05,-4.529551733867265e-05,2.8465952709666453e-05,1.6225418221438304e-05,1.3629567092721118e-06,4.5125190808903426e-05
2.37433887377847e-05,-4.276098115951754e-05,2.96048146992689e-05,1.560042437631637e-05,-2.3180534753919346e-06,4.0701244870433584e-05
2.6525389330345206e-05,-4.318066203268245e-05,3.510931855998933e-05,1.3705304809263907e-05,-1.3371068234846462e-05,3.149127587676048e-05
3.1515941373072565e-05,-4.633092612493783e-05,3.8116580981295556e-05,1.1113934306195006e-05,-2.752448017417919e-05,3.196827310603112e-05
3.310531974420883e-05,-4.873993748333305e-05,3.617357651819475e-05,2.2738438474334544e-06,-3.7202084058662876e-05,4.1469720599707216e-05
3.627155092544854e-05,-5.112666622153483e-05,3.114462742814794e-05,-9.253102689399384e-06,-3.785657827393152e-05,5.915029760217294e-05
5.1312348659848794e-05,-5.2212719310773537e-05,2.955901436507702e-05,-9.27437395148445e-06,-3.110021134489216e-05,7.776647544233128e-05
6.889983342261985e-05,-5.254145435173996e-05,3.383804141776636e-05,7.254131105582928e-06,-2.0547200620057993e-05,8.365206304006279e-05
7.051347347442061e-05,-5.351196159608662e-05,3.8919286453165114e-05,2.7294359824736603e-05,-1.2557579793792684e-05,7.954776083352044e-05
5.27936608705204e-05,-5.541645805351436e-05,4.042698128614575e-05,3.448486313573085e-05,-1.1045371138607152e-05,7.686286699026823e-05
2.6620282369549386e-05,-5.714890357921831e-05,3.894578912877478e-05,2.816815504047554e-05,-1.483966570958728e-05,6.948132795514539e-05
5.24303641213919e-06,-5.8737608924275264e-05,3.642783485702239e-05,2.0089564713998698e-05,-1.9744900782825425e-05,6.27256158622913e-05
-7.444041330018081e-06,-6.166957609821111e-05,3.689783625304699e-05,2.350879367440939e-05,-2.614367986097932e-05,8.485899161314592e-05
-1.3364135156734847e-05,-6.316656799754128e-05,3.954457861254923e-05,4.131428067921661e-05,-3.482166357571259e-05,0.0001364196214126423
-1.5917859855107963e-05,-6.040416701580398e-05,4.012072167824954e-05,6.409873458324e-05,-4.4022759539075196e-05,0.00017238358850590885
-1.586219877935946e-05,-5.7206743804272264e-05,3.814197043539025e-05,7.58278401917778e-05,-4.875377635471523e-05,0.00016241504636127502
-1.416996201442089e-05,-5.7192068197764456e-05,3.6682347854366526e-05,7.208176248241216e-05,-4.244335650582798e-05,0.00012403719301801175
-1.37307970362599e-05,-5.5430162319680676e-05,3.6386372812557966e-05,6.846247561043128e-05,-2.4873041184036992e-05,8.38704509078525e-05
-1.2980330211576074e-05,-4.883238216280006e-05,3.582836507121101e-05,6.986069638514891e-05,-4.594775418809149e-06,3.983862916356884e-05
-6.313905032584444e-06,-4.246233220328577e-05,3.426385228522122e-05,7.691190694458783e-05,1.5834701116546057e-05,-4.8858373702387325e-06
1.6506468227817095e-06,-4.046964386361651e-05,3.189154085703194e-05,9.342000703327358e-05,3.609545456129126e-05,-1.992911347770132e-05
4.791202172782505e-06,-4.3692558392649516e-05,2.9386745154624805e-05,0.00010580732487142086,5.55678088858258e-05,1.0141582606593147e-05
7.117887435015291e-06,-4.858186366618611e-05,3.0293582312879153e-05,0.00010537565685808659,7.020481280051172e-05,6.771420885343105e-05
1.0195670256507583e-05,-4.531630111159757e-05,3.421553265070543e-05,9.44831917877309e-05,7.452933641616255e-05,0.00011913089838344604
1.556501410959754e-05,-4.075920151080936e-05,3.6261946661397815e-05,7.540574006270617e-05,6.92663379595615e-05,0.00013359593867789954
2.2292224457487464e-05,-4.2509331251494586e-05,3.566332452464849e-05,5.898993549635634e-05,5.8927133068209514e-05,0.00012353678175713867
2.5200924937962554e-05,-4.369749149191193e-05,3.530360845616087e-05,5.3220057452563196e-05,4.617511876858771e-05,0.00010851102706510574
2.8450380341382697e-05,-4.449934931471944e-05,3.7691639590775594e-05,5.499990584212355e-05,3.117983942502178e-05,9.17785000638105e-05
4.063955930178054e-05,-4.7766468924237415e-05,4.0282240661326796e-05,5.117387627251446e-05,1.6078294720500708e-05,7.281587750185281e-05
5.29733115399722e-05,-5.368798883864656e-05,3.78663171431981e-05,3.527835724526085e-05,7.747117365397571e-07,4.287988485884853e-05
5.336298272595741e-05,-6.111917173257098e-05,3.0432502171606757e-05,9.880691322905477e-06,-1.3235589904070366e-05,1.433749457646627e-05
4.5987664634594694e-05,-6.393463991116732e-05,2.222379953309428e-05,-1.2959486412000842e-05,-2.4411852791672572e-05,6.1047403505654074e-06
3.916827336070128e-05,-6.158116593724117e-05,1.920151771628298e-05,-2.4173528800019994e-05,-2.717679126362782e-05,1.452875767427031e-05
3.693858889164403e-05,-5.766806862084195e-05,2.281502565892879e-05,-2.4534961994504556e-05,-2.1876552636967972e-05,1.9563536625355482e-05
3.689433651743457e-05,-5.434564081951976e-05,2.747420694504399e-05,-1.9664550563902594e-05,-1.5832749340916052e-05,1.8364784409641288e-05
3.537766679073684e-05,-5.2679144573630765e-05,2.9324037313926965e-05,-2.030423092946876e-05,-1.5833405996090733e-05,2.6757941668620333e-05
3.0674924346385524e-05,-5.52470883121714e-05,3.1378691346617416e-05,-2.849607335519977e-05,-2.098780714732129e-05,4.841603004024364e-05
2.605108602438122e-05,-5.9621157561196014e-05,3.307680526631884e-05,-3.772578565985896e-05,-2.6091271138284355e-05,6.302860128926113e-05
2.2845675630378537e-05,-6.064172703190707e-05,3.201702929800376e-05,-4.586773502524011e-05,-2.8543478038045578e-05,6.479564763139933e-05
1.9892117052222602e-05,-5.7979763369075954e-05,3.095953798037954e-05,-4.759581497637555e-05,-2.886997754103504e-05,7.626781734870747e-05
1.6191197573789395e-05,-5.3856783779338e-05,3.1990468414733186e-05,-3.742851549759507e-05,-3.1333260267274454e-05,0.00010729633504524827
1.3371912245929707e-05,-5.1340844947844744e-05,3.353595457156189e-05,-1.9389757653698325e-05,-3.729227319126949e-05,0.0001372451224597171
1.4595750144508202e-05,-5.1463182899169624e-05,3.425077011343092e-05,1.9963117665611207e-06,-4.350463132141158e-05,0.00014155237295199186
1.7442789612687193e-05,-5.106997923576273e-05,3.403015580261126e-05,2.394597504462581e-05,-4.483969314605929e-05,0.00011924457066925243
1.8479811842553318e-05,-4.89809644932393e-05,3.1153904274106026e-05,4.5739372581010684e-05,-4.4116804929217324e-05,7.117831410141662e-05
1.9425795471761376e-05,-4.7813002311158925e-05,2.7517249691300094e-05,6.770064646843821e-05,-4.452221401152201e-05,-4.964966137777083e-06
2.0731335098389536e-05,-4.901748616248369e-05,2.7812056941911578e-05,8.909204188967124e-05,-4.3643874960253015e-05,-8.835311746224761e-05
2.1987529180478305e-05,-4.937310950481333e-05,3.2140964322024956e-05,0.00011291367263766006,-3.818114419118501e-05,-0.0001455046731280163
2.540080458857119e-05,-4.686312604462728e-05,3.656401895568706e-05,0.00013754477549809963,-3.1799245334696025e-05,-0.00014276766160037369
2.3733882699161768e-05,-4.835725121665746e-05,3.7546782550634816e-05,0.00014238228322938085,-3.0408145903493278e-05,-8.832779712975025e-05
1.722621891531162e-05,-5.009992673876695e-05,3.444062895141542e-05,0.00011460261885076761,-3.296718205092475e-05,-2.4372242478420958e-05
1.4193189599609468e-05,-4.911872747470625e-05,3.5172688512830064e-05,8.049945608945563e-05,-3.594759255065583e-05,2.672149275895208e-05
1.5449571947101504e-05,-4.9758102250052616e-05,3.934348569600843e-05,6.004502210998908e-05,-3.7205700209597126e-05,6.78345822962001e-05
1.9249207980465144e-05,-5.348133709048852e-05,3.8606660382356495e-05,4.5844997657695785e-05,-3.6980614822823554e-05,8.826010162010789e-05
2.1887091861572117e-05,-5.687172233592719e-05,3.1231073080562055e-05,3.369959813426249e-05,-3.496182034723461e-05,7.512819138355553e-05
2.232354563602712e-05,-5.694297578884289e-05,2.689296343305614e-05,1.694471029622946e-05,-3.168593320879154e-05,4.927819827571511e-05
2.4357070287805982e-05,-5.5116976000135764e-05,3.0049419365241192e-05,3.524298108459334e-06,-2.7915451937587932e-05,2.7918798878090456e-05
2.67724935838487e-05,-5.215010969550349e-05,3.512363036861643e-05,-4.0651977428751707e-07,-2.3324431822402403e-05,2.3082076950231567e-05
2.8368891435093246e-05,-4.871546843787655e-05,3.647132689366117e-05,-1.2553523447422776e-06,-1.8920303773484193e-05,2.8930595362908207e-05
2.8903181373607367e-05,-4.513945532380603e-05,3.1919233151711524e-05,-5.939965831203153e-06,-1.2003849406028166e-05,4.3174277379876e-05
2.8116386602050625e-05,-4.268875272828154e-05,2.442524055368267e-05,-1.4524296602758113e-05,-4.957828423357569e-06,6.105293141445145e-05
2.837472675309982e-05,-4.366225766716525e-05,1.965657065738924e-05,-1.866645470727235e-05,-1.494065173801573e-07,7.209442264866084e-05
2.9228025596239604e-05,-4.664438893087208e-05,2.1943724277662113e-05,-1.6685531591065228e-05,2.72571401183086e-06,7.047285907901824e-05
2.8596237825695425e-05,-4.6336463128682226e-05,2.4933297027018853e-05,-1.3869805115973577e-05,2.554595539550064e-06,6.309041054919362e-05
2.6771964257932268e-05,-4.367047222331166e-05,2.3564445655210875e-05,-1.2094837984477635e-05,2.1826262752711045e-07,6.364154251059517e-05
2.3425558538292535e-05,-4.363672996987589e-05,1.9772001905948855e-05,-1.0302676855644677e-05,-2.901140760513954e-06,7.070795254549012e-05
1.97450935957022e-05,-4.550008452497423e-05,1.8344415366300382e-05,-8.900262400857173e-06,-4.426623490871862e-06,7.579496741527691e-05
1.909909406094812e-05,-4.51612395409029e-05,2.221726390416734e-05,-7.2829484452086035e-06,-5.0531116357888095e-06,7.335038390010595e-05
2.233365194115322e-05,-4.25488906330429e-05,2.8665957870543934e-05,-1.982812136702705e-06,-6.015087819832843e-06,6.993207352934405e-05
2.6065381462103687e-05,-3.985056537203491e-05,3.114230639766902e-05,1.0262625437462702e-05,-8.143850209307857e-06,6.894329271744937e-05
2.6907808205578476e-05,-3.855909380945377e-05,3.0049359338590875e-05,2.4918206690927036e-05,-1.1660499694698956e-05,7.169789023464546e-05
2.5559571440680884e-05,-3.9781967643648386e-05,3.087176082772203e-05,3.390420533833094e-05,-1.3882565326639451e-05,7.623117562616244e-05
2.3497143047279678e-05,-4.2673025745898485e-05,3.4996333852177486e-05,3.614697197917849e-05,-1.3548666174756363e-05,8.416045602643862e-05
2.086533459078055e-05,-4.416719821165316e-05,4.0104689105646685e-05,3.1949679396348074e-05,-1.0912612196989357e-05,8.948274626163766e-05
1.7365135136060417e-05,-4.5639586460310966e-05,3.982249472755939e-05,2.6425559553899802e-05,-6.7060186665912624e-06,8.51449221954681e-05
1.4528153769788332e-05,-5.014360067434609e-05,3.731828473974019e-05,2.6184616217506118e-05,-2.0461347958189435e-06,7.395787542918697e-05
1.7162012227345258e-05,-5.396520282374695e-05,3.9390150050166994e-05,2.494464388291817e-05,4.242936938680941e-06,6.784006109228358e-05
2.464451790729072e-05,-5.2683659305330366e-05,3.837336407741532e-05,2.2161664674058557e-05,6.5322278715029825e-06,6.778526585549116e-05
2.8949953048140742e-05,-4.988907676306553e-05,3.257867865613662e-05,1.8498089048080146e-05,4.0301133594766725e-06,6.39618156128563e-05
2.688264794414863e-05,-5.093594518257305e-05,2.9938450097688474e-05,2.1394826035248116e-05,-1.807397666198085e-06,5.6716340623097494e-05
1.9945166059187613e-05,-5.491737465490587e-05,3.047734935535118e-05,3.4849828807637095e-05,-9.177115316560958e-06,5.516628152690828e-05
1.0227800885331817e-05,-5.813363895867951e-05,3.127557647530921e-05,4.764677578350529e-05,-1.3325050531420857e-05,5.537722972803749e-05
4.368313966551796e-06,-5.7887471484718844e-05,3.304193523945287e-05,5.354299719328992e-05,-1.2811790838895831e-05,5.693311322829686e-05
4.745795195049141e-06,-5.500996485352516e-05,3.4771259379340336e-05,5.573516318690963e-05,-1.0722377737693023e-05,6.16164761595428e-05
1.0098052371176891e-05,-5.4819622164359316e-05,3.5701905289897695e-05,5.5203836382133886e-05,-8.80490642884979e-06,7.03820915077813e-05
2.46610270551173e-05,-5.8358324167784303e-05,3.573614594643004e-05,5.302495992509648e-05,-6.284741175477393e-06,8.706164226168767e-05
4.404588617035188e-05,-6.20905848336406e-05,3.382512295502238e-05,4.6441677113762125e-05,-6.567982381966431e-06,9.770465840119869e-05
5.828575376654044e-05,-6.421159923775122e-05,3.10512405121699e-05,3.729449963429943e-05,-7.382515832432546e-06,9.658036287873983e-05
6.103955820435658e-05,-6.580707122338936e-05,2.986206345667597e-05,3.209319038433023e-05,-8.60506588651333e-06,8.264329517260194e-05
5.4473610362038016e-05,-6.651633884757757e-05,3.1171304726740345e-05,2.9655870093847625e-05,-7.966237717482727e-06,6.0814854805357754e-05
4.538472057902254e-05,-6.342434062389657e-05,3.1957231840351596e-05,2.6417654225951992e-05,-4.12517420045333e-06,4.130129309487529e-05
4.0225339034805074e-05,-5.9182028053328395e-05,3.1381168810185045e-05,2.0085912183276378e-05,1.508392642790568e-06,2.9440117941703647e-05
3.773438584175892e-05,-5.683165363734588e-05,3.3693646400934085e-05,1.1842451385746244e-05,6.921239673829405e-06,2.4633380235172808e-05
3.2421969081042334e-05,-5.312470602802932e-05,3.901906165992841e-05,1.6758436913733021e-06,8.90973569767084e-06,2.2060434275772423e-05
2.1523559553315863e-05,-4.715124669019133e-05,4.423788050189614e-05,-6.294572813203558e-06,7.6064898166805506e-06,2.2651496692560613e-05
1.1126496247015893e-05,-4.2728592234198004e-05,4.880462074652314e-05,-9.90813805401558e-06,4.680720394389937e-06,3.423918315093033e-05
7.411387741740327e-06,-4.058005288243294e-05,5.011516623198986e-05,-1.0217533599643502e-05,2.4967591798485955e-06,6.724611739628017e-05
7.665130397072062e-06,-3.852480585919693e-05,4.4639491534326226e-05,-9.346148544864263e-06,-4.4568514567799866e-07,0.00011413179890951142
6.513289463327965e-06,-3.529480818542652e-05,3.5781977203441784e-05,-5.657385372614954e-06,-2.534314944568905e-06,0.00015581633488181978
2.5237122827093117e-06,-3.2939042284851894e-05,3.327478771097958e-05,6.428439519368112e-06,-2.1986710407873034e-07,0.00018377673404756933
-2.268883747547079e-07,-3.3075288229156286e-05,3.7281242839526385e-05,2.7771780878538266e-05,3.783111878874479e-06,0.000190244652912952
4.787713805853855e-06,-3.529343302943744e-05,3.593109795474447e-05,4.7338988224510103e-05,5.873596819583327e-06,0.0001696162362350151
2.7693758966051973e-05,-4.342276224633679e-05,3.0334551411215216e-05,5.420505840447731e-05,5.132093065185472e-06,0.00013010011753067374
5.169949145056307e-05,-5.4116953833727166e-05,2.9170469133532606e-05,4.7054254537215456e-05,3.703477887029294e-06,8.765608072280884e-05
5.1562888984335586e-05,-5.982893708278425e-05,3.124815702904016e-05,3.445852780714631e-05,-2.9195932711445494e-06,4.5233318815007806e-05
2.8033891794621013e-05,-6.14159507676959e-05,2.9877832275815308e-05,2.396805939497426e-05,-1.3539111932914238e-05,1.782842264219653e-05
2.2594792881136527e-06,-6.193298759171739e-05,2.766541365417652e-05,1.932559098349884e-05,-1.8542907127994113e-05,1.4586358702217694e-05
-1.2382498425722588e-05,-5.989899000269361e-05,2.6075686037074775e-05,2.1541103706113063e-05,-1.9285786038381048e-05,1.3964491699880455e-05
-1.8205557353212498e-05,-5.432705074781552e-05,2.1791691324324347e-05,2.894928547902964e-05,-1.8769767848425545e-05,1.0223391655017622e-05
-1.638363755773753e-05,-5.048978709965013e-05,2.1878966435906477e-05,4.187267768429592e-05,-1.67587713804096e-05,1.1598423043324146e-05
-1.0558853318798356e-05,-4.8505749873584136e-05,2.6914643967757e-05,5.403061004471965e-05,-1.2608372344402596e-05,3.280157397966832e-05
-5.568250344367698e-06,-4.666747554438189e-05,3.2977492082864046e-05,6.214183667907491e-05,-1.0286978977092076e-05,6.252784078242257e-05
-7.599057425977662e-06,-4.7153465857263654e-05,3.376655877218582e-05,6.94532718625851e-05,-1.09230986709008e-05,8.207202336052433e-05
-1.2274776054255199e-05,-4.965848711435683e-05,3.219887366867624e-05,8.517596870660782e-05,-1.3759547982772347e-05,8.678403537487611e-05
-8.624824658909347e-06,-4.996260395273566e-05,2.9416338293231092e-05,0.00010391668183729053,-1.5874502423685044e-05,6.985903019085526e-05
5.313936981110601e-06,-4.6419900172622874e-05,2.6876408810494468e-05,0.00010595551430014893,-1.6431211406597868e-05,4.756194903166033e-05
2.3829836209188215e-05,-4.1046765545615926e-05,2.9831644496880472e-05,9.361517732031643e-05,-1.551927016407717e-05,4.99223024235107e-05
3.86224637622945e-05,-3.7530458939727396e-05,3.537521115504205e-05,8.487435843562707e-05,-1.4988743714638986e-05,7.192196062533185e-05
4.3665389966918156e-05,-3.7017991417087615e-05,3.764309440157376e-05,7.976852793945e-05,-1.7473179468652233e-05,7.564180123154074e-05
3.8644335290882736e-05,-3.9989492506720126e-05,3.399831257411279e-05,6.522137846332043e-05,-2.1234658561297692e-05,5.607785715255886e-05
2.9618071494041942e-05,-4.6654029574710876e-05,2.8809117793571204e-05,4.6689405280631036e-05,-2.3358445105259307e-05,3.872781235259026e-05
2.2679127141600475e-05,-5.291512206895277e-05,2.622517422423698e-05,3.822316648438573e-05,-2.126527215295937e-05,3.587980245356448e-05
2.1455953174154274e-05,-5.43455098522827e-05,2.675987889233511e-05,3.7163834349485114e-05,-1.8035740140476264e-05,3.907260179403238e-05
2.4138851586030796e-05,-5.0785856728907675e-05,2.7362148102838546e-05,3.272700996603817e-05,-1.6260784832411446e-05,4.133344555157237e-05
2.4255808966699988e-05,-4.760613592225127e-05,2.813536957546603e-05,2.5869439923553728e-05,-1.5394200090668164e-05,4.2258576286258176e-05
1.770718336047139e-05,-4.8290836275555193e-05,2.704582584556192e-05,1.616085137357004e-05,-1.3348538232094143e-05,4.129458102397621e-05
1.2728865840472281e-05,-5.056022200733423e-05,2.3597383915330283e-05,7.146626899157127e-07,-1.1015231393685099e-05,3.3438624086556956e-05
1.990136479435023e-05,-5.1327522669453174e-05,2.183886681450531e-05,-1.6748381312936544e-05,-9.56340863922378e-06,2.0437753846636042e-05
4.56390916951932e-05,-4.760370939038694e-05,2.3340557163464837e-05,-2.727448554651346e-05,-8.471761248074472e-06,1.6378669897676446e-05
8.417060598731041e-05,-4.4159995013615116e-05,2.50463835982373e-05,-2.0901048628729768e-05,-7.655494300706778e-06,3.055335037061013e-05
0.00010741016740212217,-4.818154775421135e-05,2.653157207532786e-05,-6.702388873236487e-06,-7.463384918082738e-06,4.6142034989316016e-05
9.830270573729649e-05,-5.627972132060677e-05,2.8239795938134193e-05,7.199659648904344e-06,-9.331442925031297e-06,5.0261089199921116e-05
6.89665976096876e-05,-6.0222853790037334e-05,3.154169462504797e-05,1.8807784726959653e-05,-1.2009310921712313e-05,4.51847372460179e-05
3.961454422096722e-05,-5.6685843446757644e-05,3.313754859846085e-05,2.741671232797671e-05,-1.4994806406321004e-05,4.265322058927268e-05
1.697085281193722e-05,-5.479635365190916e-05,3.1167201086645946e-05,3.5814809962175786e-05,-1.8969465600093827e-05,4.798389272764325e-05
2.162360715374234e-06,-5.921280535403639e-05,2.935082738986239e-05,4.6132405259413645e-05,-2.07232624234166e-05,5.088458419777453e-05
-7.092352007020963e-06,-6.351619958877563e-05,3.114028731943108e-05,5.650589810102247e-05,-2.3590991986566223e-05,5.38022504770197e-05
-1.8724975234363228e-05,-6.313293852144852e-05,3.360954360687174e-05,6.110412505222484e-05,-2.5794048269744962e-05,5.261003025225364e-05
-2.8204458430991508e-05,-5.892610352020711e-05,3.446129630901851e-05,5.6034012231975794e-05,-2.507145472918637e-05,4.746172999148257e-05
-2.8765320166712627e-05,-5.1593662647064775e-05,3.3386899303877726e-05,3.904993354808539e-05,-2.022575972659979e-05,4.5357748604146764e-05
-2.083080653392244e-05,-4.5491116907214746e-05,3.2446423574583605e-05,2.197633875766769e-05,-1.353410061710747e-05,4.560141678666696e-05
-1.0126132110599428e-05,-4.035045640193857e-05,3.3573134714970365e-05,1.1300668120384216e-05,-1.0930458302027546e-05,4.755842383019626e-05
-1.862506678662612e-06,-3.563117206795141e-05,3.367344834259711e-05,7.1222993938135915e-06,-1.171967505797511e-05,5.649815284414217e-05
3.8839152693981305e-06,-3.312129047117196e-05,3.168061448377557e-05,7.423100214509759e-06,-1.4582342373614665e-05,6.792931526433676e-05
1.3308500456332695e-05,-3.490115705062635e-05,2.7142634280608036e-05,7.992070095497184e-06,-1.565387356095016e-05,7.66300072427839e-05
2.7571135433390737e-05,-4.0162856748793274e-05,2.2124508177512325e-05,8.81219057191629e-06,-1.3309658243088052e-05,8.166234329110011e-05
3.9921782445162535e-05,-4.357898433227092e-05,2.0608444174285978e-05,1.1559920494619291e-05,-9.676516128820367e-06,8.537482062820345e-05
4.3645250116242096e-05,-4.5559103455161676e-05,2.4999002562253736e-05,1.5192023965937551e-05,-7.365660621871939e-06,9.038872667588294e-05
3.57051903847605e-05,-4.8538313421886414e-05,3.094392013736069e-05,1.2804066500393674e-05,-7.293283033504849e-06,9.312831389252096e-05
2.125953142240178e-05,-5.162054731044918e-05,3.285069760750048e-05,3.518340918162721e-06,-7.408220426441403e-06,9.00302838999778e-05
9.786119335331023e-06,-5.33315833308734e-05,2.9823659133398905e-05,-3.16928890242707e-06,-5.306855655362597e-06,8.146694744937122e-05
5.976338798063807e-06,-5.4280884796753526e-05,2.8734546503983438e-05,-1.2394166333251633e-06,-4.327313945395872e-06,7.831690163584426e-05
1.1922185876755975e-05,-5.2144685469102114e-05,3.141313936794177e-05,3.52434221895237e-06,-6.778725037293043e-06,8.319408516399562e-05
3.2901527447393164e-05,-4.9048641812987626e-05,3.0843257263768464e-05,9.100303941522725e-06,-9.226800102624111e-06,8.738665928831324e-05
6.0752998251700774e-05,-4.746375634567812e-05,2.8903263228130527e-05,1.0189943168370519e-05,-7.2067114160745405e-06,8.600093860877678e-05
7.000732148298994e-05,-4.431596607901156e-05,3.190146526321769e-05,6.555710115208058e-06,-5.601620614470448e-06,7.792221003910527e-05
5.565310129895806e-05,-3.9559032302349806e-05,3.485261549940333e-05,6.669031790806912e-06,-6.224766366358381e-06,6.748041050741449e-05
3.6756489862455055e-05,-3.65344385500066e-05,3.1527837563771755e-05,1.2683311069849879e-05,-7.44996577850543e-06,6.685624975943938e-05
1.73179832927417e-05,-3.745908907148987e-05,2.7184305508853868e-05,1.807666376407724e-05,-8.521773452230264e-06,7.172593905124813e-05
8.231624093468781e-08,-4.164677739026956e-05,2.884755849663634e-05,2.398534161329735e-05,-7.182226454460761e-06,6.641656364081427e-05
-1.0503676094231196e-05,-4.5815315388608724e-05,3.476169513305649e-05,3.4959895856445655e-05,-8.310032171721105e-06,5.28377277078107e-05
-1.360657643090235e-05,-4.880992855760269e-05,3.691050369525328e-05,4.3529755203053355e-05,-9.21902301342925e-06,3.410745193832554e-05
-1.3668473002326209e-05,-5.0651560741243884e-05,3.528150773490779e-05,4.4303913455223665e-05,-7.18139017408248e-06,1.78184054675512e-05
-1.4083975656831171e-05,-5.674951898981817e-05,3.469900548225269e-05,3.626974648796022e-05,-8.76908416103106e-06,2.152085471607279e-05
-1.6055655578384176e-05,-6.245140684768558e-05,3.6736524634761736e-05,2.3514268832514063e-05,-1.446417263650801e-05,3.6926037864759564e-05
-1.5234208149195183e-05,-6.442560697905719e-05,4.14248243032489e-05,1.117058582167374e-05,-1.644224721530918e-05,4.9617228796705604e-05
-2.469276978445123e-06,-6.444985046982765e-05,4.377358345664106e-05,5.162268280400895e-06,-1.0870526239159517e-05,6.656242476310581e-05
2.6651405278244056e-05,-6.306448631221429e-05,4.343195541878231e-05,6.170534106786363e-06,-1.77428410097491e-06,8.859318768372759e-05
7.787731738062575e-05,-6.518956797663122e-05,4.015234299004078e-05,9.248696187569294e-06,4.324387191445567e-06,0.00010274324449710548
0.0001435929734725505,-7.163336704252288e-05,3.9813541661715135e-05,1.2966756003152113e-05,4.628056103683775e-06,0.00010273077350575477
0.00019137344497721642,-7.559442747151479e-05,4.291343066142872e-05,2.3149790649767965e-05,2.7540615974430693e-06,9.136428707279265e-05
0.00018438896222505718,-7.576795906061307e-05,4.508632991928607e-05,4.186034857411869e-05,-1.0224827065030695e-06,7.396751607302576e-05
0.00012326707656029612,-7.66747907618992e-05,4.48287719336804e-05,6.187390681589022e-05,-9.842925464909058e-06,4.5963857701281086e-05
4.814829662791453e-05,-7.548103167209774e-05,4.2645242501748726e-05,7.506817200919613e-05,-2.4893774025258608e-05,6.32532737654401e-06
1.947832686255424e-07,-7.056914910208434e-05,3.8083922845544294e-05,7.713779632467777e-05,-4.278510459698737e-05,-2.794802094285842e-05
-1.9746552425203845e-05,-6.174289592308924e-05,3.1640054658055305e-05,6.944391498109326e-05,-5.6713601225055754e-05,-3.445460242801346e-05
-3.7561982026090845e-05,-4.901452120975591e-05,2.9026583433733322e-05,5.972643702989444e-05,-6.245007534744218e-05,-1.3543811292038299e-05
-6.668436253676191e-05,-3.5328685044078156e-05,2.9693068427150138e-05,5.608762876363471e-05,-6.118942110333592e-05,1.6557201888645068e-05
-9.513411350781098e-05,-2.611443414934911e-05,2.9973702112329192e-05,5.913217682973482e-05,-5.0791273679351434e-05,4.3696738430298865e-05
-0.00010620349348755553,-2.40729350480251e-05,2.947363827843219e-05,6.433471571654081e-05,-3.079395173699595e-05,6.220232899067923e-05
-9.635608876124024e-05,-2.5148368877125904e-05,2.9118498787283897e-05,6.167245010146871e-05,-9.165790288534481e-06,7.084687240421772e-05
-6.795344961574301e-05,-1.899356720969081e-05,2.4081689844024368e-05,5.2312741900095716e-05,7.930517313070595e-06,7.910234853625298e-05
-3.502701292745769e-05,-8.602710295235738e-06,1.794890340534039e-05,4.511665611062199e-05,2.4446151655865833e-05,9.179649350699037e-05
-1.408071238984121e-05,-3.654599140645587e-06,1.5813273421372287e-05,3.9987229683902115e-05,4.335740231908858e-05,9.995106665883213e-05
-7.110284627742658e-07,-3.407392341614468e-06,1.7309932445641607e-05,3.523417763062753e-05,5.729766053264029e-05,9.668055281508714e-05
1.817435258999467e-05,-7.053300123516237e-06,2.073732321150601e-05,3.320483665447682e-05,6.735025090165436e-05,7.701797585468739e-05
3.894818655680865e-05,-1.7127395040006377e-05,2.371117807342671e-05,3.297994044260122e-05,6.85496415826492e-05,5.6160839449148625e-05
5.653214975609444e-05,-3.117696178378537e-05,2.4906817998271435e-05,2.5665662178653292e-05,6.0021997342118993e-05,4.963082756148651e-05
7.428077515214682e-05,-4.545637784758583e-05,2.811193189700134e-05,1.580135904077906e-05,4.913672819384374e-05,4.258791159372777e-05
8.811921725282446e-05,-5.837253775098361e-05,3.253514660173096e-05,1.7240441593457945e-05,3.8808240788057446e-05,2.685715298866853e-05
9.421729919267818e-05,-7.210413605207577e-05,3.562409619917162e-05,2.2656100554740988e-05,2.8561713406816125e-05,2.1134836060809903e-05
9.047825733432546e-05,-8.200456795748323e-05,3.51870185113512e-05,2.3846070689614862e-05,1.7555503291077912e-05,3.5378736356506124e-05
8.024141425266862e-05,-8.559023990528658e-05,3.272272806498222e-05,2.361427505093161e-05,9.793596291274298e-06,5.847866486874409e-05
7.024238584563136e-05,-8.695278665982187e-05,3.349847247591242e-05,1.9443883502390236e-05,1.8772483372231363e-06,7.664945587748662e-05
6.185189704410732e-05,-8.476687798975036e-05,3.6992372770328075e-05,1.2105562746000942e-05,-5.8900386648019776e-06,8.344339585164562e-05
5.484701614477672e-05,-7.647503662155941e-05,3.9371523598674685e-05,1.0116359590028878e-05,-1.3738678717345465e-05,8.23074733489193e-05
4.4491036533145234e-05,-6.400079291779548e-05,4.197876842226833e-05,1.7112399291363545e-05,-1.9554021491785534e-05,8.235991845140234e-05
2.3559319743071683e-05,-5.4031657782616094e-05,4.660034392145462e-05,2.499198126315605e-05,-2.3897262508398853e-05,8.605243783676997e-05
-7.505202574975556e-06,-4.6167519030859694e-05,4.796310167876072e-05,2.327079710084945e-05,-2.7111453164252453e-05,9.311327448813245e-05
-3.9937182009452954e-05,-3.204863241990097e-05,4.238083056407049e-05,1.3574008335126564e-05,-2.9385877496679313e-05,9.948809747584164e-05
-6.003156886436045e-05,-1.2387074093567207e-05,3.311140608275309e-05,5.862951638846425e-06,-3.5319917515153065e-05,0.00010575025953585282
-5.9584868722595274e-05,1.1875923746629269e-06,2.5252827981603332e-05,8.254846761701629e-06,-4.4581036490853876e-05,0.00011284319043625146
-4.668352994485758e-05,5.904807039769366e-06,2.196048626501579e-05,1.884369703475386e-05,-5.0543920224299654e-05,0.00011705246288329363
-3.533739800332114e-05,5.6275184761034325e-06,2.4008028049138375e-05,2.7917209081351757e-05,-5.157933628652245e-05,0.00011362904479028657
-2.673580456757918e-05,3.0281589147307386e-07,2.5341012587887235e-05,2.9420212740660645e-05,-5.559362398344092e-05,9.921985474647954e-05
-1.2707574569503777e-05,-1.0891140846069902e-05,2.3522632545791566e-05,2.812384263961576e-05,-6.617820326937363e-05,7.423133502015844e-05
7.0084920480439905e-06,-2.828356264217291e-05,2.0959416360710748e-05,2.366753869864624e-05,-7.986406853888184e-05,4.07158222515136e-05
3.249598012189381e-05,-4.571588215185329e-05,1.611505103937816e-05,1.46732618304668e-05,-8.769077976467088e-05,1.6597357898717746e-05
6.821357237640768e-05,-5.529622649191879e-05,8.601838089816738e-06,1.0758365533547476e-05,-8.303399954456836e-05,1.421484375896398e-05
9.76035589701496e-05,-5.8623627410270274e-05,6.401712198567111e-06,7.988468496478163e-06,-6.385908636730164e-05,2.4729260985623114e-05
9.522735490463674e-05,-5.981180947856046e-05,1.1499732863740064e-05,-4.700223598774755e-06,-3.856925468426198e-05,3.980604014941491e-05
6.985600339248776e-05,-6.375112570822239e-05,1.5708103092038073e-05,-2.0913661501253955e-05,-1.3370157830649987e-05,5.72417484363541e-05
4.477920811041258e-05,-6.759799725841731e-05,1.9281826098449528e-05,-1.685390088823624e-05,1.4081377230468206e-05,6.919978477526456e-05
2.4899965865188278e-05,-6.79843797115609e-05,2.5781026124604978e-05,1.4300059774541296e-05,3.920079325325787e-05,5.510269329533912e-05
1.2179702935100067e-05,-6.847117037978023e-05,3.062546966248192e-05,5.354686072678305e-05,5.4199888836592436e-05,1.3557859347201884e-05
2.474963002896402e-05,-7.106907287379727e-05,3.393063525436446e-05,8.132936636684462e-05,5.75995072722435e-05,-1.5775571228004992e-05
5.985785537632182e-05,-7.574733172077686e-05,3.769171598833054e-05,8.48800118546933e-05,5.1717102905968204e-05,-1.2346900803095195e-05
9.211816359311342e-05,-8.415037154918537e-05,4.2062623833771795e-05,6.992596172494814e-05,4.1935196350095794e-05,9.365493497170974e-06
0.00010114374163094908,-9.078084258362651e-05,4.3720468966057524e-05,5.305021841195412e-05,2.8841954190284014e-05,3.236941120121628e-05
8.246328070526943e-05,-9.19246522244066e-05,4.073465970577672e-05,4.410091059980914e-05,1.506823355157394e-05,4.2648032831493765e-05
4.478781556827016e-05,-8.957405225373805e-05,3.552553243935108e-05,4.478233677218668e-05,5.8444661590328906e-06,4.3834814277943224e-05
1.754033291945234e-05,-9.295916970586404e-05,3.153615762130357e-05,4.642004205379635e-05,8.201369610105758e-07,4.388121669762768e-05
3.222505620215088e-05,-0.00010538516653468832,3.113942875643261e-05,4.3925680074607953e-05,-4.718282525573159e-06,4.790880484506488e-05
6.231405131984502e-05,-0.00011351821012794971,3.375214873813093e-05,3.847400876111351e-05,-1.1554348020581529e-05,5.788289854535833e-05
6.21276703896001e-05,-0.0001094031977117993,3.774567085201852e-05,3.301385004306212e-05,-1.6399060768890195e-05,7.508123235311359e-05
2.6368137696408667e-05,-9.618321200832725e-05,3.971950354753062e-05,2.679118188098073e-05,-1.8396402083453722e-05,0.00010456574818817899
-2.3270662495633587e-05,-8.13520819065161e-05,3.9425885915989056e-05,2.0452289390959777e-05,-1.855529990280047e-05,0.00013309829228091985
-6.722369289491326e-05,-6.342111009871587e-05,3.656196713563986e-05,1.611003972357139e-05,-1.6060661437222734e-05,0.00013459642650559545
-8.96746278158389e-05,-4.0225324482889846e-05,2.986139770655427e-05,1.2866117685916834e-05,-1.1401198207749985e-05,0.00010259910050081089
-8.682776388013735e-05,-1.6793939721537754e-05,2.2345786419464275e-05,1.0722385013650637e-05,-7.659546099603176e-06,6.449227657867596e-05
-7.657513924641535e-05,4.834948867937783e-06,2.003148074436467e-05,9.538869562675245e-06,-5.947602858213941e-06,4.221579365548678e-05
-7.467682735295966e-05,2.486551420588512e-05,2.1238121917122044e-05,9.451482583244797e-06,-5.414124188973801e-06,2.7186177248950116e-05
-7.206998998299241e-05,3.6893012293148786e-05,2.2231502953218296e-05,1.25807237054687e-05,-7.055347396089928e-06,9.35388288780814e-06
-5.309428524924442e-05,3.912479951395653e-05,2.1329607989173383e-05,2.3146008970797993e-05,-1.1740497939172201e-05,-1.05509502645873e-06
-2.09827849175781e-05,3.5607463360065594e-05,1.803882696549408e-05,3.7031688407296315e-05,-1.454358334740391e-05,-2.435658643662464e-06
6.846314590802649e-06,2.8599024517461658e-05,1.536837953608483e-05,4.446262028068304e-05,-1.5182057722995523e-05,3.4298368518648203e-06
2.187117024732288e-05,1.9551707737264223e-05,1.7802109141484834e-05,4.66315213998314e-05,-1.3880244296160527e-05,2.1192701751715504e-05
2.5775652829906903e-05,8.529783372068778e-06,2.3330174371949397e-05,5.352628431865014e-05,-1.2717744539259002e-05,4.5323184167500585e-05
2.3106187654775567e-05,-7.003154678386636e-06,2.8328073312877677e-05,5.8854191593127325e-05,-1.3095734175294638e-05,5.8724359405459836e-05
1.9717470422619954e-05,-2.2787855414208025e-05,2.9324955903575756e-05,4.775219349539839e-05,-1.711477125354577e-05,5.991932994220406e-05
2.1197283786023036e-05,-3.329317769384943e-05,3.098253728239797e-05,3.177369944751263e-05,-2.3337041056947783e-05,6.0783706430811435e-05
2.8639879019465297e-05,-4.1316787246614695e-05,3.838556949631311e-05,3.113284765277058e-05,-2.8298631150391884e-05,5.4873900808161125e-05
3.5955188650405034e-05,-4.925436951452866e-05,4.206135781714693e-05,3.8563677662750706e-05,-3.0081750082899816e-05,4.8561665607849136e-05
4.29356841777917e-05,-5.56757950107567e-05,4.370992610347457e-05,3.9256552554434165e-05,-2.5728561013238505e-05,6.157448660815135e-05
5.648253136314452e-05,-6.221972580533475e-05,4.589516174746677e-05,2.7959295039181598e-05,-2.0268495063646697e-05,9.246945410268381e-05
7.2926988650579e-05,-6.823682633694261e-05,4.635407458408736e-05,1.299807263421826e-05,-1.7495765860076062e-05,0.0001243057631654665
8.06124007795006e-05,-7.182396075222641e-05,4.67014433525037e-05,3.529065111251839e-07,-1.716004771878943e-05,0.0001478666381444782
7.763942267047241e-05,-7.435611769324169e-05,4.7502253437414765e-05,-9.512918950349558e-06,-1.5280769730452448e-05,0.00015860040730331093
6.673706957371905e-05,-7.349123916355893e-05,4.797954534296878e-05,-1.2424698979884852e-05,-1.2826314559788443e-05,0.0001467762776883319
5.380723814596422e-05,-7.188337622210383e-05,4.843670831178315e-05,-1.169138886325527e-05,-1.3397236216405872e-05,0.00011367711704224348
4.2457093513803557e-05,-7.447048119502142e-05,4.45083060185425e-05,-7.4813360697589815e-06,-1.54633180500241e-05,8.049065218074247e-05
2.9216294933576137e-05,-7.9118057328742e-05,3.8061865780036896e-05,2.591751353975269e-06,-1.679879096627701e-05,7.311336230486631e-05
1.2289123333175667e-05,-8.277059532701969e-05,3.3414635254302993e-05,1.3293913070810959e-05,-1.6494570445502177e-05,9.84963116934523e-05
-1.0663273997124634e-06,-8.300287299789488e-05,3.393277802388184e-05,1.8038568668998778e-05,-1.4436150195251685e-05,0.00012639972555916756
-4.899569375993451e-06,-7.925152021925896e-05,3.740515239769593e-05,2.2943029762245715e-05,-1.1029712368326727e-05,0.00011987134348601103
-1.3305697166288155e-06,-7.502868538722396e-05,3.742631452041678e-05,3.469518560450524e-05,-9.75278362602694e-06,7.406115037156269e-05
5.105922809889307e-06,-7.308380008907989e-05,3.5616019886219874e-05,4.524240648606792e-05,-1.3576716810348444e-05,1.3007979760004673e-05
1.012204938888317e-05,-7.362486940110102e-05,3.413592276046984e-05,4.922960215480998e-05,-1.8711803932092153e-05,-4.4287324271863326e-05
1.3567936548497528e-05,-7.485779497073963e-05,3.303145058453083e-05,5.4679083405062556e-05,-1.8080401787301525e-05,-8.899144449969754e-05
1.7739688701112755e-05,-7.267652108566836e-05,3.244587787776254e-05,7.178592932177708e-05,-1.3734853382629808e-05,-9.99930634861812e-05
2.178455724788364e-05,-6.792402564315125e-05,3.4291126212337986e-05,9.399516420671716e-05,-1.1117865142296068e-05,-6.460153963416815e-05
2.6230101866531186e-05,-6.482280150521547e-05,3.398312401259318e-05,9.971432154998183e-05,-1.3585903616331052e-05,-1.103981958294753e-05
3.558610478648916e-05,-6.273630424402654e-05,3.323492273921147e-05,8.581307338317856e-05,-1.6611653336440213e-05,3.0499051717924885e-05
4.3935448047704995e-05,-5.5716845963615924e-05,3.370668855495751e-05,6.818426481913775e-05,-1.555765265948139e-05,5.849698936799541e-05
4.69024307676591e-05,-4.38896422565449e-05,3.203096639481373e-05,4.86985118186567e-05,-1.5272007658495568e-05,8.192153472919017e-05
5.487795715453103e-05,-4.0617233025841415e-05,3.0207051167963073e-05,1.840197182900738e-05,-1.870939740911126e-05,9.967297955881804e-05
6.826519529568031e-05,-4.296799306757748e-05,2.8498816391220316e-05,-1.7223450413439423e-05,-1.8920274669653736e-05,0.00010413562995381653
7.350800296990201e-05,-4.241659917170182e-05,2.738881994446274e-05,-3.8044618122512475e-05,-1.2550597602967173e-05,9.100831812247634e-05
6.725160346832126e-05,-4.355280543677509e-05,2.8997663321206346e-05,-4.280322536942549e-05,-8.119794983940665e-06,6.955451681278646e-05
5.41560621059034e-05,-4.523061579675414e-05,3.053788168472238e-05,-2.8371901862556115e-05,-8.702570994501002e-06,5.9904410591116175e-05
5.693963248631917e-05,-4.256087777321227e-05,3.1723378924652934e-05,1.4311270888356376e-06,-1.019719729811186e-05,5.6710974604357034e-05
7.5976196967531e-05,-3.7629106373060495e-05,3.189075505360961e-05,2.426854189252481e-05,-1.0157417818845715e-05,4.255525709595531e-05
8.283794159069657e-05,-3.541065598255955e-05,2.9429735150188208e-05,3.5521039535524324e-05,-9.385178600496147e-06,1.6704883819329552e-05
8.350177813554183e-05,-3.809226836892776e-05,2.8188764190417714e-05,4.138957228860818e-05,-9.230130672222003e-06,-1.9613994481915142e-06
9.078752191271633e-05,-4.3218733480898663e-05,3.0346851417561993e-05,5.0680355343502015e-05,-9.250272341887467e-06,-1.3860649232810829e-06
9.741581015987322e-05,-4.963031824445352e-05,3.0034645533305593e-05,6.138411845313385e-05,-8.626664566691034e-06,1.890950989036355e-05
9.405391028849408e-05,-5.865825369255617e-05,2.84341203951044e-05,7.41661642678082e-05,-8.229875675169751e-06,4.702306614490226e-05
9.495879203313962e-05,-6.832103099441156e-05,3.128662137896754e-05,8.54526151670143e-05,-9.229570423485711e-06,6.557242886628956e-05
0.00011747744429158047,-7.703684968873858e-05,3.974383798777126e-05,9.127441444434226e-05,-1.395840536133619e-05,6.745899008819833e-05
0.00014208321226760745,-8.320759661728516e-05,4.830102261621505e-05,9.174718434223905e-05,-1.9874934878316708e-05,6.467581988545135e-05
0.00012733807670883834,-8.359670755453408e-05,5.128784687258303e-05,8.4020291978959e-05,-2.2738999177818187e-05,7.130653830245137e-05
5.902611155761406e-05,-7.811899558873847e-05,4.7506033297395334e-05,6.137523450888693e-05,-2.3309325115405954e-05,8.477600931655616e-05
-3.467261194600724e-05,-6.984793435549363e-05,4.1343282646266744e-05,2.7210649932385422e-05,-2.3354001314146444e-05,9.749794116942212e-05
-0.00010861580085474998,-6.045592817827128e-05,3.844937600661069e-05,-5.4117640502227005e-06,-2.1925943656242453e-05,0.0001066779441316612
-0.00013321398000698537,-5.162152592674829e-05,3.6661258491221815e-05,-2.712918103497941e-05,-1.832609632401727e-05,0.00011406173143768683
-0.00011300489131826907,-4.619738683686592e-05,3.2655385439284146e-05,-3.367096360307187e-05,-1.4052699953026604e-05,0.00012140797480242327
-7.88951147114858e-05,-4.012605131720193e-05,2.7965197659796104e-05,-2.9434890166157857e-05,-7.274001745827263e-06,0.00013255597150418907
-6.320642569335178e-05,-3.0588762456318364e-05,2.3575608793180436e-05,-1.9096887626801617e-05,-3.6847680462415155e-07,0.00014003757678437978
-6.917275459272787e-05,-2.244348252133932e-05,1.826607149268966e-05,-9.015891009767074e-06,1.0888852557400241e-06,0.00013645796570926905
-7.185870344983414e-05,-1.8216896933154203e-05,1.764772787282709e-05,2.118748852808494e-06,1.3948935020380304e-06,0.00012647155381273478
-5.872318070032634e-05,-2.0294954083510675e-05,2.2690212063025683e-05,1.5927998902043328e-05,7.345390713453526e-06,0.00010777519491966814
-4.138216900173575e-05,-2.515778032829985e-05,2.9195738534326665e-05,2.9817958420608193e-05,1.6024256183300167e-05,7.702082803007215e-05
-3.311033651698381e-05,-2.5191700842697173e-05,3.482475585769862e-05,3.802527135121636e-05,1.8996679500560276e-05,4.618216917151585e-05
-3.333123095217161e-05,-2.0239880541339517e-05,3.618618939071894e-05,3.7627265555784106e-05,1.604798853804823e-05,2.2576801711693406e-05
-2.597195634734817e-05,-1.7222455426235683e-05,2.850440432666801e-05,3.5286069760331884e-05,1.3058417607680894e-05,1.1079769137722906e-05
-3.103689323324943e-06,-2.0856072296737693e-05,2.1081516024423763e-05,3.4762892028084025e-05,8.623856047051959e-06,1.2850216535298387e-07
2.209551712439861e-05,-3.17341327900067e-05,2.274994767503813e-05,3.3955533581320196e-05,1.1993040516244946e-06,-4.790038929058937e-06
3.427089177421294e-05,-4.5519751438405365e-05,2.7963274987996556e-05,3.393776933080517e-05,-4.664120297093177e-06,1.2444721505744383e-05
4.018877007183619e-05,-5.250741742202081e-05,3.222618397558108e-05,3.528264642227441e-05,-4.400045327201951e-06,3.6109413485974073e-05
3.718325024237856e-05,-4.834129140363075e-05,3.245860352762975e-05,3.67574866686482e-05,-5.595761649601627e-07,4.263976734364405e-05
2.136354123649653e-05,-3.690146695589647e-05,2.915350705734454e-05,3.451369047979824e-05,-7.346330903601483e-07,2.387319727858994e-05
9.229936040355824e-06,-2.8371630833134986e-05,2.5985542379203252e-05,2.905266228481196e-05,-3.4896177112386795e-06,5.294570200931048e-06
1.2540058378363028e-05,-2.9682283638976514e-05,2.3612001314177178e-05,2.367217530263588e-05,-4.701976649812423e-06,7.4289023359597195e-06
2.6499212253838778e-05,-3.452561213634908e-05,2.0837795091210864e-05,2.3242739189299755e-05,-4.008329597127158e-06,2.6200303182122298e-05
3.843548984150402e-05,-3.626997204264626e-05,1.7008704162435606e-05,3.038180511794053e-05,-2.24849736696342e-06,3.746734728338197e-05
4.0122602513292804e-05,-3.5901211958844215e-05,1.719171996228397e-05,4.141712634009309e-05,-2.0511647562670987e-06,3.2990701583912596e-05
3.347971505718306e-05,-3.711915996973403e-05,2.2904148863744922e-05,4.926244946545921e-05,-4.695041752711404e-06,2.9456763513735496e-05
2.8144868338131346e-05,-4.1077539208345115e-05,2.8103926524636336e-05,5.097905159345828e-05,-9.787207090994343e-06,3.247872518841177e-05
2.6666393750929274e-05,-4.621828338713385e-05,2.7258729460299946e-05,5.135432365932502e-05,-1.3840339306625538e-05,2.8516828024294227e-05
2.6116636945516802e-05,-5.003562546335161e-05,2.2470449039246887e-05,5.3696938266512007e-05,-1.5513956896029413e-05,2.1155363356228918e-05
2.6231973606627434e-05,-5.353943561203778e-05,2.1418560208985582e-05,5.087152749183588e-05,-1.3462697097565979e-05,3.718745574587956e-05
3.011202352354303e-05,-5.8069337683264166e-05,2.5226927391486242e-05,4.0964521758724004e-05,-9.92371769825695e-06,7.14748675818555e-05
3.4875298297265545e-05,-6.227094127098098e-05,2.9476243071258068e-05,3.748266681213863e-05,-1.0261313946102746e-05,9.19079320738092e-05
3.626885882113129e-05,-6.663996464340016e-05,3.258770448155701e-05,4.392621121951379e-05,-1.3858141755918041e-05,8.546046592528e-05
3.4614760807016864e-05,-6.981682236073539e-05,3.372917853994295e-05,5.3437965107150376e-05,-1.9574017642298713e-05,6.44536194158718e-05
3.326226942590438e-05,-7.127872231649235e-05,3.4379601856926456e-05,6.427735206671059e-05,-2.386557389399968e-05,5.175350088393316e-05
3.4505319490563124e-05,-7.056671165628359e-05,3.76388561562635e-05,6.86561907059513e-05,-2.335963108635042e-05,5.912589404033497e-05
3.5534885682864115e-05,-6.782587297493592e-05,4.007964889751747e-05,5.746767419623211e-05,-1.7911852410179563e-05,6.147400563349947e-05
3.1733670766698197e-05,-6.851078069303185e-05,4.160762546234764e-05,4.571951285470277e-05,-1.2061904271831736e-05,3.8069108995841816e-05
3.109129465883598e-05,-6.97065843269229e-05,4.382423867355101e-05,4.9649675929686055e-05,-1.0219101568509359e-05,1.4748540706932545e-05
4.745555997942574e-05,-6.758207018719986e-05,4.4682208681479096e-05,6.392622890416533e-05,-1.3117565686115995e-05,2.358439269301016e-05
6.622572982450947e-05,-6.517183646792546e-05,4.6000295697012916e-05,6.807759928051382e-05,-1.816706389945466e-05,4.823582639801316e-05
6.630270945606753e-05,-6.243873940547928e-05,4.7870755224721506e-05,5.5456068366765976e-05,-2.042249070655089e-05,6.409672641893849e-05
5.2633135055657476e-05,-6.150433182483539e-05,4.748653736896813e-05,3.494025440886617e-05,-1.9677410818985663e-05,6.698065408272669e-05
3.41609884344507e-05,-6.0959482652833685e-05,4.483009615796618e-05,1.8303568140254356e-05,-1.5455334505531937e-05,6.233333260752261e-05
1.9264040020061657e-05,-6.092372495913878e-05,4.257831824361347e-05,8.66839945956599e-06,-1.0028412361862138e-05,6.795173976570368e-05
1.2741740647470579e-05,-6.230080907698721e-05,4.2587638745317236e-05,-2.258584345327108e-06,-5.008274001738755e-06,8.472926128888503e-05
1.390913803334115e-05,-6.514642154797912e-05,4.047658512718044e-05,-1.328947655565571e-05,-3.167011300320155e-06,0.00010127771383849904
1.4058201486477628e-05,-6.744860002072528e-05,3.5683719033841044e-05,-1.863098623289261e-05,-3.290964514235384e-06,0.00011278394231339917
8.261961738753598e-06,-6.600190681638196e-05,3.173571531078778e-05,-1.6691885321051814e-05,-4.062765128765022e-06,0.00011340959463268518
1.3566980214818614e-06,-6.259119254536927e-05,2.8366537662805058e-05,-1.3087354091112502e-05,-5.895996309845941e-06,9.97810420813039e-05
-7.728027071607357e-07,-6.0690777900163084e-05,2.4908886189223267e-05,-8.816611625661608e-06,-5.292497007758357e-06,8.260965842055157e-05
5.889687145099742e-06,-6.113787821959704e-05,2.4794268028927036e-05,-1.543784264868009e-06,-5.491411229741061e-06,6.762955308659002e-05
1.748588874761481e-05,-6.094298078096472e-05,2.856592800526414e-05,1.365034404443577e-05,-8.364259883819614e-06,4.975723277311772e-05
2.8838492653449066e-05,-6.115692667663097e-05,3.248723442084156e-05,3.589626430766657e-05,-1.008818708214676e-05,2.6773785066325217e-05
3.570827539078891e-05,-6.153538561193272e-05,3.3012249332387e-05,5.3294050303520635e-05,-9.917675015458371e-06,8.236679605033714e-06
3.9378017390845343e-05,-5.9791229432448745e-05,3.0909603083273396e-05,5.780789069831371e-05,-9.073703949979972e-06,1.0074836609419435e-05
4.220801201881841e-05,-5.7992481742985547e-05,2.9676359190489165e-05,5.432337275124155e-05,-6.899475010868628e-06,3.444566027610563e-05
4.186686055618338e-05,-5.853515904163942e-05,3.0406949008465745e-05,5.41561130376067e-05,-4.565811195789138e-06,6.568955723196268e-05
3.7303310818970203e-05,-5.885110658709891e-05,3.233208553865552e-05,5.746099486714229e-05,-2.9526329399232054e-06,9.145309013547376e-05
3.684019247884862e-05,-5.782190055469982e-05,3.3382759283995256e-05,5.91470452491194e-05,-3.2935990930127446e-06,0.00010751623631222174
4.5139928261050954e-05,-5.6735028920229524e-05,3.1984414817998186e-05,5.6746637710602954e-05,-5.2819195843767375e-06,0.00010373088298365474
5.219918239163235e-05,-5.68996874790173e-05,3.071419632760808e-05,4.9027075874619186e-05,-5.800352482765447e-06,7.796278077876195e-05
5.630875239148736e-05,-6.018433487042785e-05,2.8995678803767078e-05,3.61698585038539e-05,-3.6779836136702215e-06,5.1303064537933096e-05
6.129450048319995e-05,-6.507727812277153e-05,2.7527685233508237e-05,2.5957522666431032e-05,-2.7899013730348088e-06,4.981633537681773e-05
5.5304972192971036e-05,-6.514693814096972e-05,3.1590443541062996e-05,1.68744518305175e-05,-3.7408663047244772e-06,7.81198832555674e-05
3.642765659606084e-05,-6.0430014855228364e-05,3.433323945500888e-05,2.0517022676358465e-06,-6.144510280137183e-06,0.00011072996858274564
1.4348972399602644e-05,-6.094790660426952e-05,2.8707134333672002e-05,-7.683168405492324e-06,-9.450996003579348e-06,0.0001231283531524241
3.0949706797400722e-06,-6.737316289218143e-05,2.3554113795398735e-05,-3.057679805351654e-06,-1.3291982213559095e-05,0.00011662490578601137
5.371679435484111e-06,-7.653555803699419e-05,2.5997254851972684e-05,-1.3354911061469465e-06,-1.6146730558830313e-05,0.00011286126391496509
1.682408037595451e-05,-8.349666313733906e-05,2.9557411835412495e-05,-1.0753910828498192e-05,-1.6250582120846957e-05,0.00012072323443135247
2.9383409128058702e-05,-8.10695273685269e-05,2.913174103014171e-05,-1.8168322640121914e-05,-1.6527248590136878e-05,0.00012421082647051662
3.190845745848492e-05,-6.900849984958768e-05,2.594409670564346e-05,-2.0054767446708865e-05,-1.783555308065843e-05,0.00011791440192610025
2.95803965855157e-05,-5.439084634417668e-05,2.6026305931736715e-05,-1.2724972293653991e-05,-1.8804908904712647e-05,0.00010404446948086843
2.030692485277541e-05,-4.56362686236389e-05,3.069377635256387e-05,5.847869488206925e-06,-1.9398816220927984e-05,8.992480434244499e-05
-1.3811117582918087e-07,-3.9109432691475376e-05,3.574411675799638e-05,2.6196807084488682e-05,-1.8441791326040402e-05,7.869785622460768e-05
-2.3581624191137962e-05,-3.14426542900037e-05,3.459924118942581e-05,4.3473715777508914e-05,-1.5239113963616546e-05,6.584128277609125e-05
-3.549371467670426e-05,-2.5553590603522025e-05,2.9126844310667366e-05,5.4617288697045296e-05,-1.3885013686376624e-05,4.499710848904215e-05
-2.116597897838801e-05,-2.588792995084077e-05,2.636786302900873e-05,5.631654494209215e-05,-1.826519837777596e-05,1.567803519719746e-05
1.6651498299324885e-05,-3.334165012347512e-05,2.759138442343101e-05,5.092156425234862e-05,-2.1858031686861068e-05,-1.6286618119920604e-05
5.0795664719771594e-05,-4.313720273785293e-05,2.984522325277794e-05,3.600837226258591e-05,-1.7614351236261427e-05,-3.415710307308473e-05
6.331541953841224e-05,-4.783557233167812e-05,3.077415021834895e-05,7.99199096945813e-06,-8.09119865152752e-06,-2.5942787033272907e-05
5.620851516141556e-05,-4.628968599718064e-05,2.9471193556673825e-05,-2.5781351723708212e-05,1.0470444067323115e-06,-5.375006367103197e-06
3.599607589421794e-05,-4.405885556479916e-05,2.403223334113136e-05,-5.3039228077977896e-05,7.68756217439659e-06,1.140966469392879e-05
1.1106975762231741e-05,-4.623750282917172e-05,1.954062463482842e-05,-6.942277104826644e-05,1.2922239875479136e-05,2.375629082962405e-05
1.3782054111288744e-06,-5.492684795171954e-05,2.1999712771503255e-05,-7.026902312645689e-05,1.5678264389862306e-05,4.486519901547581e-05
3.099477544310503e-05,-6.783610297134146e-05,3.096660293522291e-05,-5.028197119827382e-05,1.4165870197757613e-05,7.84907751949504e-05
9.583357314113528e-05,-8.09530756669119e-05,4.145619095652364e-05,-1.3949147614766844e-05,7.041674052743474e-06,0.00010684320295695215
0.00015430552593898028,-8.958220860222355e-05,4.794773485627957e-05,2.6856723707169294e-05,-2.7040575787395937e-06,0.00010726584150688723
0.00016431800031568855,-8.777460607234389e-05,4.783278200193308e-05,6.297865184023976e-05,-9.801991836866364e-06,8.613737009000033e-05
0.00011791738506872207,-7.786455535097048e-05,4.3995842133881524e-05,8.455283386865631e-05,-1.2196991519886069e-05,6.426440813811496e-05
4.161513425060548e-05,-6.996239244472235e-05,3.69701228919439e-05,7.877829921199009e-05,-1.486462315369863e-05,6.605790258618072e-05
-4.391894253785722e-05,-5.77296013943851e-05,2.8992963052587584e-05,5.668303492711857e-05,-1.6478452380397357e-05,9.92753411992453e-05
-0.00012573356798384339,-2.780424438242335e-05,2.6898644136963412e-05,4.3049985833931714e-05,-1.4558476323145442e-05,0.00012376329686958343
-0.00018420758715365082,1.131658791564405e-05,3.001893674081657e-05,4.08455562137533e-05,-1.6047488315962255e-05,0.00010272974759573117
-0.00019998909556306899,3.057550566154532e-05,2.817247877828777e-05,3.993845894001424e-05,-1.8452605218044482e-05,5.883779886062257e-05
-0.00017289705283474177,3.433307574596256e-05,2.3351887648459524e-05,4.17830997321289e-05,-2.0525241779978387e-05,2.689739085326437e-05
-0.0001238970144186169,3.316943912068382e-05,2.145339567505289e-05,5.588661952060647e-05,-2.4031498469412327e-05,1.2734247320622671e-05
-6.86709099682048e-05,2.5319868655060418e-05,2.1073703464935534e-05,7.57369925850071e-05,-2.5031848053913563e-05,4.113096110813785e-06
-2.972893344121985e-05,2.070008486043662e-05,2.121417310263496e-05,8.91721501830034e-05,-2.215637687186245e-05,-1.63106760737719e-05
-1.0091745025420096e-05,2.0363248040666804e-05,2.1763091353932396e-05,9.489226067671552e-05,-1.7132340872194618e-05,-3.871030639857054e-05
2.28738190344302e-06,2.185046650993172e-05,2.1628960894304328e-05,9.393777145305648e-05,-1.2965581845492125e-05,-4.665049709728919e-05
1.581044853082858e-05,1.2754287126881536e-05,2.100302117469255e-05,8.515908848494291e-05,-9.00673239812022e-06,-5.0255486712558195e-05
2.6279887606506236e-05,-8.970311682787724e-06,2.394905277469661e-05,7.294720126083121e-05,-7.1313634180114605e-06,-6.282178947003558e-05
2.7309315555612557e-05,-3.0727649573236704e-05,2.771672370727174e-05,5.89997143833898e-05,-6.160853899928043e-06,-6.598322215722874e-05
2.2798854843131267e-05,-4.191447078483179e-05,3.0933744710637257e-05,3.73015645891428e-05,-4.490709670790238e-06,-3.72950489690993e-05
1.841888479248155e-05,-4.4799344323109835e-05,3.482324245851487e-05,1.1238856131967623e-05,-4.472533419175306e-06,9.107006917474791e-06
2.227930599474348e-05,-4.501195144257508e-05,3.725551505340263e-05,-8.733723007026128e-06,-6.30097565590404e-06,4.8855927161639556e-05
3.597341128624976e-05,-4.4387510570231825e-05,3.6996589187765494e-05,-1.9480366972857155e-05,-6.225674951565452e-06,7.409933459712192e-05
5.272962516755797e-05,-4.3078656744910404e-05,3.55675547325518e-05,-2.4093713363981806e-05,-2.627076810313156e-06,8.836302731651813e-05
6.800085975555703e-05,-4.566767893265933e-05,3.4449327358743176e-05,-2.4350973035325296e-05,8.303444474222488e-07,9.526820940664038e-05
8.324120426550508e-05,-5.789655915577896e-05,3.704493792611174e-05,-1.9729399355128407e-05,-2.2433400772570167e-06,9.861728176474571e-05
9.360550757264718e-05,-7.318236021092162e-05,4.265070674591698e-05,-6.340761046885746e-06,-9.502417924522888e-06,0.00010121030936716124
9.22882099985145e-05,-8.371040894417092e-05,4.744328180095181e-05,1.7308386304648593e-05,-1.4040952919458505e-05,0.00010092786396853626
7.484460365958512e-05,-8.712084672879428e-05,5.062077980255708e-05,4.247150354785845e-05,-1.7745795048540458e-05,0.0001008546314551495
4.8755955504020676e-05,-8.441384852631018e-05,5.1228973461547866e-05,5.642724136123434e-05,-2.1521822418435477e-05,0.00010688990005291998
2.2691689082421362e-05,-7.892368012107909e-05,4.721462755696848e-05,5.366200639400631e-05,-2.6192637960775755e-05,0.00010734465467976406
-1.3397765314948629e-06,-7.116899359971285e-05,4.065717075718567e-05,3.738777741091326e-05,-3.3022188290487975e-05,9.223050437867641e-05
-1.83690990525065e-05,-6.258850771700963e-05,3.744815694517456e-05,2.3298753148992546e-05,-3.56361415470019e-05,7.035636372165754e-05
-1.9069768313784152e-05,-5.8179342886433005e-05,3.3294771128566936e-05,2.033724194916431e-05,-3.089040910708718e-05,5.06314609083347e-05
-4.534160325420089e-06,-5.48727075511124e-05,2.5702127459226176e-05,2.3096994482330047e-05,-2.4955987100838684e-05,3.389748599147424e-05
1.779286321834661e-05,-5.0562568503664806e-05,2.1279909560689703e-05,2.3836957552703097e-05,-2.2972089936956763e-05,2.6260157028445974e-05
3.617040056269616e-05,-4.5416978537105024e-05,2.3806083845556714e-05,1.2434683412720915e-05,-2.0836265321122482e-05,3.97282638004981e-05
4.2951287468895316e-05,-4.266385440132581e-05,2.922508429037407e-05,1.1866189879583544e-06,-1.2489075743360445e-05,6.729998131049797e-05
4.173432898824103e-05,-4.0407907363260165e-05,2.8001762984786183e-05,4.4325797716737725e-06,-3.649945256256615e-06,9.496032726019621e-05
4.1331735701533034e-05,-3.931770697818138e-05,2.3615575628355145e-05,1.6961374058155343e-05,4.485500539885834e-06,0.00012301333481445909
5.239834717940539e-05,-4.2391424358356744e-05,2.2802618332207203e-05,3.22820596920792e-05,1.0499033123778645e-05,0.0001435403391951695
6.831312202848494e-05,-4.790825551026501e-05,2.351608782191761e-05,4.276380786905065e-05,1.0926726645266172e-05,0.00013849581591784954
7.530681614298373e-05,-5.6036224123090506e-05,2.6011774025391787e-05,4.867473035119474e-05,5.162035449757241e-06,0.00011474381608422846
6.677336932625622e-05,-6.502434553112835e-05,2.6922027245745994e-05,5.392454477259889e-05,-5.4429792726296e-06,8.571583748562261e-05
4.779285518452525e-05,-7.01577591826208e-05,2.6381308998679742e-05,5.427710129879415e-05,-1.2445994798326865e-05,5.893637353437953e-05
2.994276292156428e-05,-7.116052438504994e-05,2.9524666388169862e-05,4.7789559175726026e-05,-1.2944874470122159e-05,5.076735760667361e-05
2.1036890757386573e-05,-6.928345101187006e-05,3.584321530070156e-05,4.1559462260920554e-05,-1.756663914420642e-05,6.662220403086394e-05
1.9953373339376412e-05,-6.553732964675874e-05,4.1436785977566615e-05,3.653627936728299e-05,-2.9301876566023566e-05,8.587724732933566e-05
2.0051160390721634e-05,-6.209752609720454e-05,4.297058330848813e-05,3.0139390219119377e-05,-3.997421299573034e-05,8.996715041575953e-05
1.9581697415560484e-05,-6.059934457880445e-05,4.3492378608789295e-05,2.2726751922164112e-05,-4.361789615359157e-05,7.931074651423842e-05
2.4557921278756112e-05,-6.23774976702407e-05,4.33203240390867e-05,1.755490666255355e-05,-4.240413909428753e-05,6.666283297818154e-05
4.005896335002035e-05,-6.657410267507657e-05,3.96625000576023e-05,1.6909700207179412e-05,-4.1726769268279895e-05,5.464091373141855e-05
6.328146992018446e-05,-6.928847869858146e-05,3.5799876059172675e-05,1.6255771697615273e-05,-4.1951203456847e-05,2.8708464014925994e-05
8.310672274092212e-05,-6.848391785752028e-05,3.353029387653805e-05,1.2491952475102153e-05,-4.3101161281811073e-05,-2.8270617349335225e-06
8.990510832518339e-05,-6.585852679563686e-05,2.964241139125079e-05,1.0776202543638647e-05,-4.3418225686764345e-05,-8.74425040819915e-06
8.668949158163741e-05,-6.359474355122074e-05,2.5670444301795214e-05,1.4065592040424235e-05,-4.339039514889009e-05,1.8337706933380105e-05
7.740230648778379e-05,-6.111423135735095e-05,2.7148205845151097e-05,1.7293470591539517e-05,-4.0079547034110874e-05,4.9136880988953635e-05
5.506155503098853e-05,-5.527962639462203e-05,3.178567567374557e-05,1.4312141502159648e-05,-3.2989290048135445e-05,6.393716466845945e-05
1.952915408764966e-05,-5.0957805797224864e-05,3.5799512261291966e-05,7.576743882964365e-06,-2.3102771592675708e-05,6.525719800265506e-05
-1.4309058315120637e-05,-5.106928074383177e-05,3.7236786738503724e-05,9.157349268207327e-06,-4.4931439333595335e-06,5.695179061149247e-05
-3.840802673948929e-05,-5.058024180470966e-05,3.5972036130260676e-05,2.0785661035915837e-05,2.1881252905586734e-05,4.4787047954741865e-05
-5.093703657621518e-05,-4.517246634350158e-05,3.5557513911044225e-05,3.206097608199343e-05,4.733480454888195e-05,3.0496654289891012e-05
-4.9715210479917005e-05,-4.1902632801793516e-05,3.360166010679677e-05,3.816309981630184e-05,7.054745947243646e-05,2.5203692644026887e-07
-2.8232352633494884e-05,-4.3118736357428133e-05,2.9047541829640977e-05,3.980617111665197e-05,8.882606198312715e-05,-2.9363749490585178e-05
1.497644461778691e-05,-4.3413710955064744e-05,2.667829903657548e-05,4.7128909500315785e-05,9.304514242103323e-05,-3.3924799936357886e-05
5.604854231933132e-05,-4.398040255182423e-05,2.7551424864213914e-05,6.377335375873372e-05,8.635192352812737e-05,-1.9632572730188258e-05
7.725989416940138e-05,-4.790362800122239e-05,3.1895728170638904e-05,7.431865378748626e-05,7.303501479327679e-05,1.2224106285430025e-05
8.132737275445834e-05,-5.511428025783971e-05,3.6852157791145146e-05,7.406597433146089e-05,5.512208736035973e-05,5.2642404625657946e-05
6.804490112699568e-05,-6.2713967054151e-05,3.665326221380383e-05,6.552498234668747e-05,3.52062561432831e-05,8.926082955440506e-05
3.5682340239873156e-05,-6.322728586383164e-05,3.212266165064648e-05,5.2952127589378506e-05,1.7302072592428885e-05,0.00011402300879126415
-9.26930079003796e-06,-5.2948274969821796e-05,2.905369365180377e-05,3.925760029233061e-05,3.164555664625368e-06,0.0001272827066713944
-4.421214907779358e-05,-3.907140489900485e-05,2.896570003940724e-05,2.9991328119649552e-05,-7.916789400042035e-06,0.00012931482342537493
-6.0388058045646176e-05,-2.8928034225828014e-05,2.8468361051636748e-05,2.7890844648936763e-05,-1.4670667042082641e-05,0.00012463975872378796
-6.920343003002927e-05,-2.3045813577482477e-05,2.8179872970213182e-05,2.9246350095490925e-05,-1.807754233595915e-05,0.00011948574683628976
-6.933249096618965e-05,-2.243621383968275e-05,2.76088212558534e-05,2.8613801987376064e-05,-2.0008890714962035e-05,0.00011642405297607183
-5.484565190272406e-05,-2.548061456764117e-05,2.4399942049058154e-05,2.5513454602332786e-05,-2.259238317492418e-05,0.00011501916742417961
-3.0487120966427028e-05,-2.9703844120376743e-05,2.132636473106686e-05,2.288128962391056e-05,-2.2662296032649465e-05,0.0001101194357033819
3.5164403016096912e-06,-3.6551016819430515e-05,2.2106039978098124e-05,2.3681321181356907e-05,-2.0734813006129116e-05,0.0001012194697977975
4.7563586122123525e-05,-4.59272887383122e-05,2.6275680284015834e-05,3.088002995355055e-05,-1.999575033551082e-05,9.322756523033604e-05
8.04506562417373e-05,-5.466323273140006e-05,2.9550537874456495e-05,4.1210234485333785e-05,-2.0486988432821818e-05,9.094111737795174e-05
8.403268293477595e-05,-6.078306250856258e-05,2.9598784749396145e-05,4.7333156544482335e-05,-2.1623372958856635e-05,8.895492646843195e-05
6.873489473946393e-05,-6.617061444558203e-05,2.7713454983313568e-05,4.396511212689802e-05,-2.6916261049336754e-05,8.326309762196615e-05
4.934466051054187e-05,-7.093332533258945e-05,2.9630042263306677e-05,3.68649598385673e-05,-3.614247543737292e-05,7.49938772059977e-05
2.6704767151386477e-05,-7.159909000620246e-05,3.496769568300806e-05,3.239572106394917e-05,-4.309639552957378e-05,6.609896081499755e-05
-2.308713192178402e-06,-6.574795406777412e-05,3.7699883250752464e-05,2.6410105419927277e-05,-4.5701632188865915e-05,5.557012991630472e-05
-3.154654768877663e-05,-5.527765097212978e-05,3.670372097985819e-05,1.4388859199243598e-05,-4.522578456089832e-05,4.451853965292685e-05
-4.422981874085963e-05,-4.390647882246412e-05,3.386411117389798e-05,2.7082417091151e-06,-4.550471203401685e-05,4.641481064027175e-05
-2.7990787202725187e-05,-3.6561497836373746e-05,3.152151475660503e-05,-1.212500956171425e-05,-4.895799793303013e-05,7.029443077044562e-05
2.6207262635580264e-05,-3.162494977004826e-05,2.940154263342265e-05,-2.4519042199244723e-05,-4.8441030230605975e-05,9.438042616238818e-05
9.132591367233545e-05,-2.9153636205592193e-05,3.0188035452738404e-05,-1.7945370927918702e-05,-4.418230673763901e-05,9.217429033014923e-05
0.00010291315265931189,-2.8694181310129352e-05,3.1405372283188626e-05,-8.541769602743443e-06,-3.855240356642753e-05,7.04827907611616e-05
7.092692248988897e-05,-3.294652924523689e-05,2.7054995371145196e-05,-1.519950819783844e-05,-3.143637513858266e-05,5.631823660223745e-05
4.516079570748843e-05,-4.3336705857655033e-05,2.4534787371521816e-05,-2.72202833002666e-05,-2.7760837838286534e-05,3.956379077862948e-05
2.7854257496073842e-05,-5.728524411097169e-05,2.956030766654294e-05,-3.694751285365783e-05,-2.5610255761421286e-05,7.790708878019359e-06
1.2782723388227168e-05,-7.089269638527185e-05,3.584969090297818e-05,-4.159892341704108e-05,-1.9725124730030075e-05,-2.0937581211910583e-05
-5.526389031729195e-06,-7.626961451023817e-05,3.646248296718113e-05,-4.003435969934799e-05,-1.136942591983825e-05,-2.4345705242012627e-05
-1.780570346454624e-05,-7.151305180741474e-05,3.2136613299371675e-05,-3.408261181903072e-05,-2.997986257469165e-06,-3.910731265932554e-06
-1.59504543262301e-05,-5.8345238358015195e-05,2.7223559300182387e-05,-2.2211568648344837e-05,7.204458142950898e-06,1.3787176612822805e-05
-4.053135398862651e-06,-4.574314516503364e-05,2.486585253791418e-05,5.426816642284393e-06,1.4468127119471319e-05,1.6966660041362047e-05
5.763622539234348e-06,-3.6999590520281345e-05,2.4897983166738413e-05,4.7362191253341734e-05,1.4504640603263397e-05,1.8538532458478585e-05
2.277498651892529e-06,-2.9601284040836617e-05,2.4824712454574183e-05,9.028006752487272e-05,5.6323888202314265e-06,3.1265735742636025e-05
-9.40270911087282e-06,-2.0191546354908496e-05,2.4190818294300698e-05,0.00012689351569861174,-5.67934966966277e-06,4.1947241697926074e-05
-1.4878533875162248e-05,-1.1296153388684615e-05,2.2634907509200275e-05,0.0001486173423472792,-1.3143301657692064e-05,4.135215567657724e-05
-2.8996071250730893e-06,-7.312357865885133e-06,2.0760262486874126e-05,0.00014794649905525148,-1.6053139916039072e-05,4.643430656869896e-05
2.265304465254303e-05,-1.0430238035041839e-05,2.166374724765774e-05,0.00012703353422693908,-1.6686626622686163e-05,6.608059629797935e-05
5.0025897508021444e-05,-2.0626288460334763e-05,2.5363295208080672e-05,0.00010237096284981817,-1.6775626136222854e-05,8.61105727381073e-05
6.76797644700855e-05,-3.3235195587622e-05,2.908607348217629e-05,8.199268631869927e-05,-1.3478384062182158e-05,0.00010060787462862208
7.589886809000745e-05,-4.5852015318814665e-05,3.3094729587901384e-05,6.280672096181661e-05,-6.273165126913227e-06,0.00011425444245105609
7.899189222371206e-05,-5.988576594972983e-05,3.6785437259823084e-05,4.607058872352354e-05,-2.3091893126547802e-06,0.00012304438860155642
7.701275899307802e-05,-7.611145701957867e-05,3.827056207228452e-05,3.504980122670531e-05,-4.9951386245083995e-06,0.0001239742705365643
7.18332375981845e-05,-8.65152251208201e-05,3.856703551718965e-05,2.5254379579564556e-05,-5.9318144849385135e-06,0.00011994610395049676
7.083662785589695e-05,-8.82780077517964e-05,3.673528044600971e-05,1.090089699573582e-05,-4.378188805276295e-06,0.0001108159267459996
6.512887921417132e-05,-8.363644883502275e-05,3.675894913612865e-05,-3.839512828562874e-06,-2.830393896147143e-06,9.536869765724987e-05
4.515614273259416e-05,-7.333874964388087e-05,3.868433486786671e-05,-8.762359357206151e-06,-2.4876342195057077e-06,7.0118774601724e-05
1.9580647858674638e-05,-6.029028008924797e-05,3.785452281590551e-05,2.6970894850819604e-06,-4.776375590154203e-06,4.2933170334436e-05
-6.8277358877821825e-06,-4.963120591128245e-05,3.736930011655204e-05,2.542968104535248e-05,-4.639427970687393e-06,1.5551595424767584e-05
-3.278379517723806e-05,-4.072722003911622e-05,3.373505751369521e-05,4.191307380096987e-05,-2.976619725814089e-06,-1.1394872672099154e-05
-3.5003678931389004e-05,-3.514306808938272e-05,3.058882066397928e-05,4.296114275348373e-05,-1.95603661268251e-06,-2.4495557227055542e-05
-1.663248440308962e-05,-3.383062721695751e-05,3.008606654475443e-05,3.3519459975650534e-05,1.1679493354677106e-06,-2.903614949900657e-05
-6.96293318469543e-06,-3.371034108567983e-05,3.025604019057937e-05,1.4924575225450099e-05,2.8853205549239647e-06,-1.6204472558456473e-05
-8.998300472740084e-06,-3.5003900848096237e-05,2.8034066417603754e-05,-5.228063400863903e-06,1.0334952094126493e-06,1.5550107491435483e-05
-1.2303588846407365e-05,-3.433133679209277e-05,2.5230821847799234e-05,-1.2755883290083148e-05,-1.4998535107224598e-06,3.592311259126291e-05
-5.688808869308559e-06,-3.4230208257213235e-05,2.409455191809684e-05,-3.90791774407262e-06,-1.5730877294117818e-06,4.064772656420246e-05
7.087586709531024e-06,-3.6004559660796076e-05,2.218859299318865e-05,1.9547260308172554e-05,-1.9327894733578432e-06,4.578461084747687e-05
1.7158223272417672e-05,-3.656656190287322e-05,2.54056831181515e-05,4.822540722670965e-05,-4.2632386794139165e-06,5.542583312490024e-05
2.2096355678513646e-05,-3.7381203583208844e-05,3.298182491562329e-05,7.172251207521185e-05,-7.71943450672552e-06,6.064426270313561e-05
2.5405975975445472e-05,-4.1209546907339245e-05,4.188573802821338e-05,8.384498505620286e-05,-1.328893267782405e-05,6.889426003908738e-05
2.4113656763802283e-05,-4.801727118319832e-05,4.8691323172533885e-05,8.682259795023128e-05,-1.7898901205626316e-05,8.633072866359726e-05
2.2558015189133584e-05,-5.536597018362954e-05,5.325179881765507e-05,8.417083154199645e-05,-1.782426261343062e-05,0.00010813369590323418
3.205503890058026e-05,-6.302356632659212e-05,5.2688890718854964e-05,8.099875412881374e-05,-1.5423385775648057e-05,0.0001200312763103284
5.447431612992659e-05,-6.961442704778165e-05,4.839106622966938e-05,7.773547986289486e-05,-1.285695361730177e-05,0.00010893049329752102
7.882476347731426e-05,-7.256811659317464e-05,4.3135245505254716e-05,7.033334259176627e-05,-1.0356222446716856e-05,8.225436613429338e-05
8.920025720726699e-05,-7.092851592460647e-05,3.95343558921013e-05,5.800392682431266e-05,-9.314211638411507e-06,5.6977263739099726e-05
7.79555703047663e-05,-6.889645737828687e-05,3.819882476818748e-05,4.147033905610442e-05,-1.1289666872471571e-05,3.792941788560711e-05
4.889636693405919e-05,-6.869454955449328e-05,3.6620844184653834e-05,2.5288853066740558e-05,-1.591801265021786e-05,1.9926350432797335e-05
1.7863940229290165e-05,-6.414132076315582e-05,3.477977588772774e-05,1.2616357707884163e-05,-1.9627041183412075e-05,8.988029549072962e-06
-2.2951144273974933e-06,-5.1151680963812396e-05,3.340522016515024e-05,4.284435817680787e-06,-2.0648174540838227e-05,8.0020818131743e-06
-1.1063983038184233e-05,-3.5714590921998024e-05,3.10815084958449e-05,2.5793367512960685e-06,-2.0821973521378823e-05,1.1939139767491724e-05
-1.1864619409607258e-05,-2.7608402888290584e-05,2.625487650220748e-05,8.485425496473908e-06,-1.9665265426738188e-05,1.5704867109889165e-05
-9.659523129812442e-06,-3.219221980543807e-05,2.369152025494259e-05,1.396240622852929e-05,-1.7405209291609935e-05,1.5438439731951803e-05
-4.891338448942406e-06,-4.0228125726571307e-05,2.6707155484473333e-05,1.359257112198975e-05,-1.4500190445687622e-05,1.2177624739706516e-05
9.758337000675965e-06,-4.49406034022104e-05,3.291778557468206e-05,7.734156497463118e-06,-1.1828489732579328e-05,2.7032496291212738e-05
3.217887569917366e-05,-4.626479494618252e-05,3.4433040127623826e-05,2.7161506750417175e-06,-1.2303889889153652e-05,6.787016172893345e-05
7.417776942020282e-05,-4.863267531618476e-05,3.351163468323648e-05,-2.5460357733209094e-07,-1.5967498256941326e-05,0.00010536847548792139
0.00013681137352250516,-5.713669452234171e-05,3.33346652041655e-05,2.0775221400981536e-06,-2.127989864675328e-05,0.00011132426152471453
0.0001760032173478976,-6.760145333828405e-05,3.104214192717336e-05,1.2401354979374446e-05,-2.368132845731452e-05,0.00010425869550090283
0.00016340096772182733,-7.892154098954052e-05,2.9809860279783607e-05,2.0395387764438055e-05,-2.126175786543172e-05,0.00010428023233544081
0.00010972342715831473,-8.574198727728799e-05,3.196904799551703e-05,1.7148011465906166e-05,-1.5049455214466434e-05,0.00010981897503370419
3.4141507057938725e-05,-8.7302818428725e-05,3.173283039359376e-05,8.139526471495628e-06,-1.0276960892952047e-05,0.00011142820585519075
-4.238636392983608e-05,-8.029022865230218e-05,2.9249084036564454e-05,6.06431785854511e-06,-9.173734724754468e-06,0.00010250179911963642
-9.543063788441941e-05,-6.64804974803701e-05,2.809040051943157e-05,1.4515333532472141e-05,-7.1285594458458945e-06,9.594403672963381e-05
-0.00010727339395089075,-5.708878597943112e-05,2.6836105462280102e-05,2.199893060605973e-05,-4.284897840989288e-06,9.164510265691206e-05
-8.882202382665128e-05,-5.6013610446825624e-05,2.5165441911667585e-05,2.326021967746783e-05,-4.121590336580994e-06,9.345185389975086e-05
-5.645709461532533e-05,-5.773494194727391e-05,2.5588407879695296e-05,2.4042772565735504e-05,-5.833342129335506e-06,0.00010320541332475841
-2.3305005015572533e-05,-5.6458990002283826e-05,2.894995122915134e-05,3.005120925081428e-05,-5.867399977432797e-06,0.00010433148418087512
-2.1547662072407547e-06,-5.07823824591469e-05,3.1565552490064874e-05,3.42875937349163e-05,-3.0977748792793136e-06,8.784267993178219e-05
6.242783001653152e-06,-4.115814954275265e-05,2.8596688935067505e-05,3.209978967788629e-05,3.3220052841897996e-07,6.254032632568851e-05
6.045302598067792e-06,-3.2743311749072745e-05,2.1387069864431396e-05,2.783832860586699e-05,4.739672476716805e-07,4.5426520955516025e-05
-9.591924481355818e-07,-2.6951100153382868e-05,1.4939706488803495e-05,2.323471380805131e-05,-3.385990339666023e-06,3.957020089728758e-05
-1.4076216757530347e-05,-2.3266125936061144e-05,1.4861008821753785e-05,1.8907407138613053e-05,-8.434299161308445e-06,3.0663253710372373e-05
-2.343582673347555e-05,-2.3905306079541333e-05,2.3507569494540803e-05,1.8650634956429712e-05,-1.3839690836903173e-05,1.3551038136938587e-05
-1.4274924069468398e-05,-3.17073063342832e-05,3.171903153997846e-05,2.755932291620411e-05,-1.8433371224091388e-05,-3.5243729712419736e-08
8.343624358531088e-06,-4.1203944419976324e-05,3.2141681003849953e-05,3.749867755686864e-05,-2.1006640963605605e-05,-2.280106855323538e-06
2.212350045738276e-05,-4.4011441787006333e-05,2.717745883273892e-05,3.941889008274302e-05,-2.067713467113208e-05,6.658297934336588e-06
2.4622344426461495e-05,-4.120070661883801e-05,2.3343140128417872e-05,3.6525561881717294e-05,-1.8942429960588925e-05,1.777273246261757e-05
2.5615963750169612e-05,-4.060879655298777e-05,2.394095281488262e-05,3.518510129651986e-05,-2.0755671357619576e-05,2.6318433810956776e-05
3.0406827136175707e-05,-4.533011087914929e-05,2.5271765480283648e-05,3.054808621527627e-05,-2.3304586648009717e-05,3.675787229440175e-05
3.5669319913722575e-05,-5.553921073442325e-05,2.6135285224881954e-05,2.2661741240881383e-05,-2.0411127479746938e-05,5.215307464823127e-05
4.0985600207932293e-05,-6.568092794623226e-05,2.663922896317672e-05,1.857866664067842e-05,-1.5409923435072415e-05,6.847003533039242e-05
4.528884528554045e-05,-7.119632937246934e-05,2.766339275694918e-05,2.023788692895323e-05,-1.578217234055046e-05,7.005202496657148e-05
4.362902109278366e-05,-7.349063525907695e-05,2.9183376682340167e-05,3.0155808417475782e-05,-1.8978933439939283e-05,5.6044944358291104e-05
4.191900370642543e-05,-6.718042277498171e-05,3.1435658456757665e-05,4.1036935726879165e-05,-1.3738730558543466e-05,4.280658686184324e-05
3.726506110979244e-05,-5.3744388424092904e-05,3.430659489822574e-05,4.1501993109704927e-05,-4.10724032917642e-06,3.073423795285635e-05
2.7566686185309663e-05,-4.460820127860643e-05,3.154783189529553e-05,3.755326179089025e-05,5.352214884624118e-07,3.0185106879798695e-05
2.4028782718232833e-05,-4.4106858695158735e-05,2.6231507945340127e-05,3.116694642812945e-05,2.0289905933168484e-06,5.496952871908434e-05
3.379484769538976e-05,-4.3265426938887686e-05,2.5070230549317785e-05,2.3806125682312995e-05,5.421498826763127e-06,9.507975482847542e-05
4.755732879857533e-05,-3.856908733723685e-05,2.8619189833989367e-05,1.575870373926591e-05,1.2630096534849145e-05,0.00012909722863696516
4.960592923453078e-05,-3.533826020429842e-05,3.364294389029965e-05,1.3169449630368035e-05,1.893946682685055e-05,0.00013740787107963115
4.242037175572477e-05,-3.430237848078832e-05,3.572179775801487e-05,2.0162889995845035e-05,2.055977711279411e-05,0.00012231353321112692
3.183351509505883e-05,-3.7759724364150316e-05,3.3591448300285265e-05,2.85757560050115e-05,1.5559890016447753e-05,9.47588705457747e-05
2.3763261197018437e-05,-4.221046037855558e-05,2.8892058253404684e-05,3.096087311860174e-05,7.811391697032377e-06,7.025609374977648e-05
1.9801216694759205e-05,-4.5342836529016495e-05,2.6479630832909606e-05,2.322953696420882e-05,1.4606034426378756e-07,5.10935606143903e-05
1.6170719391084276e-05,-4.798355439561419e-05,2.831018719007261e-05,7.689749509154353e-06,-6.363131888065254e-06,3.8609763578278944e-05
1.3507769835996442e-05,-5.109544872539118e-05,3.2131785701494664e-05,-7.367314537987113e-06,-1.6190879250643775e-05,4.162376717431471e-05
1.5122936019906774e-05,-5.367210178519599e-05,3.498150181258097e-05,-1.1041969628422521e-05,-2.9565046133939177e-05,5.99281738686841e-05
2.2815753254690208e-05,-5.4267489758785814e-05,3.404563540243544e-05,-3.7164691093494184e-06,-4.1077702917391434e-05,8.704448555363342e-05
3.469328657956794e-05,-5.637655340251513e-05,3.061338429688476e-05,6.521963769046124e-06,-4.929464921588078e-05,0.00011586736218305305
4.758274008054286e-05,-6.177929026307538e-05,2.854689046216663e-05,1.0253280379401986e-05,-5.7438672229181975e-05,0.00014053053746465594
6.32324954494834e-05,-6.976569420658052e-05,2.890609175665304e-05,9.380854862683918e-06,-6.654531898675486e-05,0.00015329555026255548
8.258236630354077e-05,-7.673465006519109e-05,3.0322878956212662e-05,1.254916514881188e-05,-7.07174331182614e-05,0.00014927492884453386
9.27988876355812e-05,-7.902249490143731e-05,3.181422289344482e-05,2.2294403606792912e-05,-6.454021786339581e-05,0.00012589657853823155
8.382305531995371e-05,-7.575048948638141e-05,3.2149473554454744e-05,3.4056920412695035e-05,-4.6238030336098745e-05,9.277622302761301e-05
6.019630018272437e-05,-6.975478754611686e-05,3.2914835173869506e-05,4.3304178689140826e-05,-2.2312775399768725e-05,6.738741649314761e-05
3.2364190701628104e-05,-6.475170812336728e-05,3.393132647033781e-05,5.08454795635771e-05,1.5906528005871223e-06,4.7715093387523666e-05
5.677105036738794e-06,-6.353740172926337e-05,3.4012315154541284e-05,5.845634950674139e-05,2.689859684323892e-05,8.906064067559782e-06
-1.998079642362427e-05,-6.397790275514126e-05,3.532316259224899e-05,6.247455166885629e-05,4.943269959767349e-05,-5.185182089917362e-05
-4.4295869884081185e-05,-6.361148552969098e-05,3.8304242480080575e-05,5.709696779376827e-05,5.831672751810402e-05,-0.00010863391071325168
-5.375047112465836e-05,-5.900417090742849e-05,3.771172487176955e-05,4.16968650824856e-05,5.82079665036872e-05,-0.0001532911555841565
-4.615325087797828e-05,-5.624588447972201e-05,3.246090273023583e-05,2.441727338009514e-05,5.243216219241731e-05,-0.0001732703240122646
-3.312569606350735e-05,-5.6333476095460355e-05,3.0270632123574615e-05,5.300350494508166e-06,4.45875630248338e-05,-0.00014495060895569623
-8.584006536693778e-06,-5.866582068847492e-05,3.156637467327528e-05,-1.3570982446253765e-05,3.855001341435127e-05,-8.263823110610247e-05
4.128415457671508e-05,-6.540141475852579e-05,3.320224641356617e-05,-1.9638362573459744e-05,3.0029328627279028e-05,-1.5698813513154164e-05
8.795824396656826e-05,-7.141139212762937e-05,3.527574517647736e-05,-1.965277988347225e-06,2.1318988729035482e-05,4.0074366552289575e-05
9.053941903403029e-05,-7.104722317308187e-05,3.4691227483563125e-05,3.3545828046044335e-05,1.3974708963360172e-05,7.932422158773988e-05
5.878812226001173e-05,-6.261548696784303e-05,3.1561361538479105e-05,6.649376155110076e-05,5.532605882763164e-06,9.315941133536398e-05
2.4382330593653023e-05,-5.503913416760042e-05,2.9132419513189234e-05,8.605146285844967e-05,-5.4062447816249914e-06,8.737985626794398e-05
4.9241166379943024e-06,-4.9703037802828476e-05,2.54240476351697e-05,8.775505557423458e-05,-1.2673742276092526e-05,8.165825420292094e-05
-1.0068892152048647e-05,-4.2929787014145404e-05,2.4860904886736535e-05,7.437855674652383e-05,-1.3075686183583457e-05,8.755292947171256e-05
-3.269823719165288e-05,-3.2965122954919934e-05,2.9215581889729947e-05,5.003683327231556e-05,-1.1797979823313653e-05,9.672620217315853e-05
-5.638810762320645e-05,-2.6903053367277607e-05,3.280817691120319e-05,1.913225969474297e-05,-8.78170340001816e-06,0.00010175532224820927
-6.215887697180733e-05,-2.764491546258796e-05,3.424870010348968e-05,-7.276140422618482e-06,-8.49268508318346e-06,0.00010467084211995825
-4.1128401790047064e-05,-3.065828786930069e-05,3.5638699046103284e-05,-1.7344533262075856e-05,-1.4897909750288818e-05,0.000103342070360668
-5.3800777095602825e-06,-3.319358438602649e-05,3.62374194082804e-05,-9.406456229044124e-06,-2.139032403647434e-05,9.596697782399133e-05
2.662798942765221e-05,-3.769772592931986e-05,3.277926589362323e-05,8.382879059354309e-06,-2.3426113330060616e-05,9.017291449708864e-05
5.218908700044267e-05,-4.599954263539985e-05,2.922685416706372e-05,2.2205094865057617e-05,-2.4844908693921752e-05,9.705797856440768e-05
8.29214186524041e-05,-5.475209763972089e-05,3.0212362617021427e-05,2.7446041713119484e-05,-2.737486283876933e-05,0.00011307940440019593
0.00011681611795211211,-5.788186172139831e-05,3.361877679708414e-05,3.335858855280094e-05,-2.7972677344223484e-05,0.00012585651711560786
0.00013435303117148578,-5.3143026889301836e-05,3.339407339808531e-05,4.48817627329845e-05,-2.7683496227837168e-05,0.00012627377873286605
0.00011596436524996534,-4.3990810809191316e-05,3.159435073030181e-05,5.4546566389035434e-05,-2.926618435594719e-05,0.00011891296890098602
6.706180283799767e-05,-3.335224755574018e-05,3.0485591196338646e-05,5.372516898205504e-05,-3.0497312764055096e-05,0.00010868551908060908
1.5094212358235382e-05,-2.6336669179727323e-05,2.9589848054456525e-05,5.330577550921589e-05,-2.989195672853384e-05,9.451444202568382e-05
-1.795066418708302e-05,-1.841308403527364e-05,3.257680145907216e-05,6.487992504844442e-05,-3.0057792173465714e-05,7.79825568315573e-05
-3.32668460032437e-05,-7.704858035140205e-06,3.886694321408868e-05,7.599124364787713e-05,-3.183733861078508e-05,5.650051753036678e-05
-3.91268367820885e-05,-1.1813764331236598e-06,4.1495954064885154e-05,7.169629679992795e-05,-3.4433254768373445e-05,3.07466798403766e-05
-3.596350143197924e-05,-1.2288012274375149e-10,3.8536421925527975e-05,4.9100915930466726e-05,-3.355044827912934e-05,1.7255984857911244e-05
-2.5238441594410688e-05,-5.500254474100075e-07,3.555028888513334e-05,2.8544391170726158e-05,-2.854315607692115e-05,2.2754366000299342e-05
-1.4554218068951741e-05,-2.6128191166208126e-06,3.244750769226812e-05,2.888243761844933e-05,-2.030257564911153e-05,4.403633647598326e-05
-6.257742370507913e-06,-1.3403076991380658e-05,2.8855434720753692e-05,4.379431629786268e-05,-1.0534056855249219e-05,6.336368096526712e-05
4.991050900571281e-06,-2.9291581085999496e-05,2.633846816024743e-05,5.917545422562398e-05,-2.6765874281409197e-06,7.190756150521338e-05
2.1416084564407356e-05,-4.327237911638804e-05,2.76477567240363e-05,6.148670945549384e-05,-2.131543851646711e-06,6.88497384544462e-05
3.9183949411381036e-05,-5.944474833086133e-05,2.9687023925362155e-05,4.7662542783655226e-05,-1.0546516932663508e-05,6.220611976459622e-05
5.0741036830004305e-05,-7.068319246172905e-05,3.0169623641995713e-05,3.1796782423043624e-05,-1.753285869199317e-05,6.555806612595916e-05
5.1755039748968557e-05,-7.398612069664523e-05,3.271442619734444e-05,2.610774026834406e-05,-1.50680589285912e-05,7.368346996372566e-05
4.674484807765111e-05,-7.57066227379255e-05,3.3932756196008995e-05,2.8725815354846418e-05,-9.85788483376382e-06,7.492369331885129e-05
3.951494727516547e-05,-7.624237332493067e-05,3.2433112210128456e-05,3.454452598816715e-05,-9.197207873512525e-06,6.33358649793081e-05
2.9360697226366028e-05,-7.16940630809404e-05,3.101167021668516e-05,3.138768806820735e-05,-1.1747155440389179e-05,4.8225276259472594e-05
2.0199164282530546e-05,-6.587775715161115e-05,3.2980882679112256e-05,1.8475122487870976e-05,-1.5272622476913966e-05,3.9986014598980546e-05
2.60985270870151e-05,-6.31723232800141e-05,3.525009742588736e-05,4.975372121407418e-06,-1.6148569557117298e-05,3.562380879884586e-05
5.383642201195471e-05,-6.233227759366855e-05,3.1650448363507167e-05,-3.4529759886936517e-06,-1.367957429465605e-05,2.2962733055464923e-05
8.74475299497135e-05,-6.080019011278637e-05,2.513368053769227e-05,-5.445039278129116e-06,-1.1508885108924005e-05,6.019188731443137e-06
0.00010089661373058334,-5.699018947780132e-05,2.328538175788708e-05,6.565043690898165e-07,-1.3529215721064247e-05,5.492915988725144e-06
8.298429747810587e-05,-5.134159800945781e-05,2.542035872465931e-05,1.091554804588668e-05,-1.5303856343962252e-05,2.503937685105484e-05
4.277713378542103e-05,-4.717483534477651e-05,2.6907906431006268e-05,1.771954703144729e-05,-1.0437505807203706e-05,4.3749478209065273e-05
-1.086978613784595e-06,-4.835930303670466e-05,2.80638942058431e-05,1.6793181202956475e-05,-2.467299509589793e-06,4.733706373372115e-05
-3.102934351773001e-05,-5.355648681870662e-05,3.2020023354562e-05,1.0783720426843502e-05,-4.276494962596189e-07,4.375456410343759e-05
-4.205812365398742e-05,-6.275789201026782e-05,3.821359860012308e-05,8.985111890069675e-06,-5.462794433697127e-06,4.7187764721456915e-05
-4.237759276293218e-05,-7.249587361002341e-05,4.012377394246869e-05,1.2342289664957207e-05,-1.0296066648152191e-05,5.3534924518316984e-05
-3.9509286580141634e-05,-7.546888809883967e-05,4.014217120129615e-05,1.688088377704844e-05,-1.0991530871251598e-05,6.224404933163896e-05
-3.752495103981346e-05,-7.083843956934288e-05,4.2662817577365786e-05,1.8068170902552083e-05,-9.497170140093658e-06,7.19044910511002e-05
-3.28153619193472e-05,-6.110691901994869e-05,4.464428639039397e-05,2.1479449060279876e-05,-9.855762073129881e-06,7.021555211395025e-05
-2.3932794647407718e-05,-4.767671998706646e-05,4.589447780745104e-05,2.677642805792857e-05,-1.2748908375215251e-05,6.199914059834555e-05
-3.3458378311479464e-05,-3.086755168624222e-05,4.320502921473235e-05,2.7225278245168738e-05,-1.1662810720736161e-05,6.325323192868382e-05
-4.8172725655604154e-05,-1.728845563775394e-05,3.606396057875827e-05,2.2172358512762003e-05,-6.712872163916472e-06,8.475172217004001e-05
-2.763113116088789e-05,-1.4068547898204997e-05,3.1370709621114656e-05,1.892226646305062e-05,-3.6025123790750513e-06,0.0001084880277630873
1.3467890312313102e-05,-1.7029511582222767e-05,3.0535098630934954e-05,2.2761261789128184e-05,-2.2706135496264324e-06,0.00011116469977423549
4.320285370340571e-05,-2.5659939637989737e-05,3.206544351996854e-05,3.369304249645211e-05,-3.216160394003964e-06,9.376356319990009e-05
5.616071939584799e-05,-3.275923154433258e-05,3.549518442014232e-05,4.7134526539593935e-05,-3.338413534947904e-06,8.316198363900185e-05
6.340270192595199e-05,-3.587933679227717e-05,3.5441280488157645e-05,4.836443258682266e-05,-2.2457732029579347e-06,9.261168452212587e-05
7.835944416001439e-05,-3.924014890799299e-05,3.1950890843290836e-05,3.7242451071506366e-05,1.3992168987897458e-06,9.912547102430835e-05
8.898545638658106e-05,-4.3772768549388275e-05,3.112690319539979e-05,2.0439878426259384e-05,1.986363486139453e-06,9.876080002868548e-05
7.604217535117641e-05,-4.6548102545784786e-05,3.158752588205971e-05,8.427045941061806e-06,-4.981358415534487e-06,9.586630039848387e-05
4.327635178924538e-05,-4.403282582643442e-05,3.1198876968119293e-05,8.321553650603164e-06,-1.3707208381674718e-05,8.269523095805198e-05
1.5962255929480307e-05,-4.0039394662017e-05,2.760381539701484e-05,1.7636804841458797e-05,-1.9602019165176898e-05,5.451830293168314e-05
8.689818969287444e-06,-3.971533078583889e-05,2.1770410967292264e-05,2.937896533694584e-05,-2.4317925635841675e-05,3.4310567571083084e-05
1.156290545623051e-05,-4.1129052988253534e-05,1.9667812011903152e-05,4.1128925658995286e-05,-2.8631264285650104e-05,4.045898458571173e-05
9.93639878288377e-06,-4.167400402366184e-05,2.4293856768053956e-05,5.5590429838048294e-05,-2.649029192980379e-05,5.247782246442512e-05
3.8073674204497365e-06,-4.1806262743193656e-05,2.9677574275410734e-05,7.360297604463995e-05,-1.818241798900999e-05,4.144373815506697e-05
2.095844820360071e-06,-3.944665877497755e-05,3.146221206407063e-05,9.197842882713303e-05,-1.0906794159382116e-05,8.08255936135538e-06
6.754741662007291e-06,-3.642366937128827e-05,3.2078332878882065e-05,9.806558227865025e-05,-1.0356502571085002e-05,-2.8019785531796515e-05
1.6827601939439774e-05,-3.7217196222627535e-05,3.216602635802701e-05,8.620939479442313e-05,-1.3371489330893382e-05,-4.17218470829539e-05
2.9028959033894353e-05,-4.247748802299611e-05,3.1396793929161504e-05,6.518792361021042e-05,-1.476357374485815e-05,-1.4403051864064764e-05
3.704146365635097e-05,-4.64404838567134e-05,3.1673778721597046e-05,4.981951497029513e-05,-1.4093533536652103e-05,4.0954801079351455e-05
3.95792922063265e-05,-4.8802878154674545e-05,3.232521339668892e-05,4.008875839645043e-05,-1.3229197065811604e-05,9.464286995353177e-05
4.129591616219841e-05,-5.17276166647207e-05,3.115693471045233e-05,2.6576944947009906e-05,-1.2658803825615905e-05,0.00012604841322172433
4.181309850537218e-05,-5.526740642380901e-05,3.0059225537115708e-05,5.983397386444267e-06,-1.110837547457777e-05,0.00012713734759017825
4.039363193442114e-05,-6.025914990459569e-05,2.8643049517995678e-05,-1.1806850125140045e-05,-9.229068382410333e-06,0.00010846222721738741
3.700980232679285e-05,-6.33386880508624e-05,2.5244420612580143e-05,-1.788448207662441e-05,-1.0904270311584696e-05,9.370484622195363e-05
3.3426927984692156e-05,-6.13572119618766e-05,2.137535557267256e-05,-1.4283303244155832e-05,-1.18561765702907e-05,8.707254164619371e-05
3.191964060533792e-05,-6.345940346363932e-05,2.1532152459258214e-05,-8.72543387231417e-06,-1.4812178051215596e-05,7.21915130270645e-05
2.9379649276961572e-05,-6.744085112586617e-05,2.538009539421182e-05,-4.792745130544063e-06,-1.653265098866541e-05,5.344783858163282e-05
2.7751419111154974e-05,-6.605805538129061e-05,2.743154254858382e-05,6.401631367225491e-07,-1.44062505569309e-05,4.861482375417836e-05
3.670613295980729e-05,-6.390600901795551e-05,2.6717914806795307e-05,4.153831469011493e-06,-1.5342864571721293e-05,5.242545739747584e-05
5.194110781303607e-05,-6.332220073090866e-05,2.719852636801079e-05,3.402083734727057e-07,-1.542202699056361e-05,5.668619633070193e-05
6.343717541312799e-05,-6.471609231084585e-05,3.210141585441306e-05,-6.2805734160065185e-06,-1.5218369298963808e-05,5.360520299291238e-05
7.716539403190836e-05,-6.986107473494485e-05,3.9178044971777126e-05,-7.815740900696255e-06,-1.5080197954375762e-05,5.3090905566932634e-05
9.661295916885138e-05,-7.89560072007589e-05,4.273176091373898e-05,1.5431929796250188e-06,-1.4270623069023713e-05,5.988637713016942e-05
0.00010505376849323511,-8.488023013342172e-05,4.1253417293773964e-05,2.1291267330525443e-05,-1.3080717508273665e-05,7.414358697133139e-05
8.976832759799436e-05,-8.607448398834094e-05,3.791437120526098e-05,4.473943045013584e-05,-1.1812158845714293e-05,8.81025698618032e-05
5.283328937366605e-05,-8.395336772082373e-05,3.693926919368096e-05,6.231756560737267e-05,-1.0115440090885386e-05,9.877642150968313e-05
7.59668637329014e-06,-7.874649600125849e-05,4.035326128359884e-05,6.134555587777868e-05,-7.528499281761469e-06,0.00011116295354440808
-2.6338419047533534e-05,-7.137840293580666e-05,4.607531082001515e-05,3.8906451663933694e-05,-3.1121462598093785e-06,0.0001215833326568827
-4.346332934801467e-05,-6.289834709605202e-05,4.77974972454831e-05,1.319663533649873e-05,-4.286247445861591e-08,0.00011886682477779686
-4.65374905616045e-05,-5.677721856045537e-05,4.332002208684571e-05,2.593756562419003e-06,-2.4364192086068215e-06,9.550104005029425e-05
-3.8542726542800665e-05,-5.303678699419834e-05,3.6860114050796255e-05,7.176587587309768e-06,-7.278028988366714e-06,6.341221887851134e-05
-2.5206629288732074e-05,-4.826758231502026e-05,3.1430878152605146e-05,1.9348024579812773e-05,-6.417192253138637e-06,3.300040407339111e-05
-1.2666595466725994e-05,-4.227797035127878e-05,2.672206210263539e-05,3.1204865081235766e-05,8.715568355910364e-07,3.8056803077779477e-06
-3.6509993606159696e-06,-3.728918090928346e-05,2.3038846848066896e-05,4.026072201668285e-05,5.165195943845902e-06,-2.8597652999451384e-05
1.4160788168737781e-06,-3.355433000251651e-05,2.1011826902395114e-05,4.7503966925432906e-05,1.8440889562043594e-06,-4.55134613730479e-05
4.418109256221214e-06,-3.135069346171804e-05,2.073039831884671e-05,5.142936061020009e-05,-1.1169900062668603e-06,-2.0260944438632578e-05
7.017465122771682e-06,-3.1874009437160566e-05,1.982017965929117e-05,5.225229688221589e-05,2.1565231236309046e-06,3.5151395422872156e-05
1.060541490005562e-05,-3.590267806430347e-05,1.9294973753858358e-05,5.538161349250004e-05,3.1970944291970227e-06,7.165460556279868e-05
1.5830852134968154e-05,-4.1051443986361846e-05,2.2895183064974844e-05,6.119391036918387e-05,-3.7287099985405803e-06,7.13580593583174e-05
2.2519217964145355e-05,-4.458945841179229e-05,2.7727352062356658e-05,6.919450243003666e-05,-1.1777963663917035e-05,5.2247021812945604e-05
2.536974716349505e-05,-4.768852886627428e-05,3.0050676286919042e-05,7.652416388737038e-05,-1.5053667084430344e-05,3.225896580261178e-05
1.6904206859180704e-05,-4.8893820348894224e-05,3.160361302434467e-05,8.466556027997285e-05,-1.639869333303068e-05,1.6615280401310883e-05
8.501814590999857e-06,-4.907231414108537e-05,3.270624074502848e-05,9.328789747087285e-05,-1.7067488442989998e-05,1.5581921388729825e-06
1.050753598974552e-05,-4.8466710723005235e-05,3.382940121809952e-05,8.651716780150309e-05,-1.3846441106579732e-05,-1.0434596333652735e-05
1.9441673430264927e-05,-4.847154195886105e-05,3.053320324397646e-05,6.57512282487005e-05,-1.100858389690984e-05,-3.2632494821882574e-06
2.6449779397808015e-05,-5.269908797345124e-05,2.386800042586401e-05,4.287682531867176e-05,-1.1276923032710329e-05,2.11136484722374e-05
2.765098361123819e-05,-5.3976102208252996e-05,2.2724079826730303e-05,1.8682374502532184e-05,-1.0919704436673783e-05,4.444465594133362e-05
4.057101978105493e-05,-5.633248292724602e-05,2.5219644157914445e-05,-3.1630252124159597e-06,-9.796359336178284e-06,5.568801861954853e-05
6.869791832286865e-05,-6.128469249233603e-05,2.97655860777013e-05,-1.3680565643880982e-05,-8.827017154544592e-06,6.031334851286374e-05
9.02487154235132e-05,-6.199237395776436e-05,2.9830383937223814e-05,-9.176107596431393e-06,-1.1161864676978439e-05,6.797017704229802e-05
8.952702046371996e-05,-5.828711437061429e-05,2.544926064729225e-05,3.1815584407013375e-06,-1.352340495941462e-05,7.188738527474925e-05
7.495372119592503e-05,-5.664424315909855e-05,2.187398240494076e-05,1.1953421562793665e-05,-1.2967958355147857e-05,6.814389053033665e-05
6.405495514627546e-05,-5.9205907746218145e-05,2.3708174921921454e-05,1.4007778190716635e-05,-1.2166617125330959e-05,6.978997407713905e-05
5.149533171788789e-05,-6.173484871396795e-05,3.0211796911316924e-05,1.8451222786097787e-05,-1.5587198504363187e-05,7.503879896830767e-05
2.043457789113745e-05,-6.0141119320178404e-05,3.6637866287492216e-05,2.8409687729435973e-05,-2.0525008949334733e-05,7.279265264514834e-05
-1.8456794350640848e-05,-5.2657214837381616e-05,3.9612747059436515e-05,3.8089761801529676e-05,-2.1670097339665517e-05,7.108503632480279e-05
-3.299138552392833e-05,-4.470967542147264e-05,3.9063899748725817e-05,4.062658626935445e-05,-1.7502399714430794e-05,8.222328324336559e-05
-1.809773857530672e-05,-3.868669591611251e-05,3.75194831576664e-05,3.588294566725381e-05,-1.208619141834788e-05,9.955347195500508e-05
6.964025374145422e-07,-3.491240204311907e-05,3.488981019472703e-05,2.936303280876018e-05,-6.639375897066202e-06,0.00010791587556013837
-2.6569773936557795e-08,-3.202091102139093e-05,3.000117067131214e-05,2.604765904834494e-05,-5.297279130900279e-07,0.00010494055459275842
-1.1060074939450715e-05,-2.831134588632267e-05,2.3737349692964926e-05,2.11020542337792e-05,3.0016403798072133e-06,9.942347969627008e-05
7.976900207040671e-08,-2.4100880182231776e-05,1.9611225070548244e-05,9.796448466659058e-06,8.595729354965442e-07,9.340537508251145e-05
3.6987716157455e-05,-2.3275335479411297e-05,1.8106093193637207e-05,-3.630727178460802e-06,-4.25185226049507e-06,7.902534707682207e-05
6.481304444605485e-05,-2.7096311896457337e-05,1.890953899419401e-05,-1.0723999366746284e-05,-7.207644102891209e-06,5.6780521845212206e-05
6.03018888796214e-05,-3.45199769071769e-05,2.1204066797508858e-05,-6.521272553072777e-06,-1.05030630948022e-05,3.3457727113272995e-05
3.183855733368546e-05,-4.087805427843705e-05,2.6825135137187317e-05,3.9948386074684095e-06,-1.3788590877084062e-05,2.0194045646348968e-05
2.2693102437187918e-06,-4.488265767577104e-05,3.164487861795351e-05,1.2975518075108994e-05,-1.6025600416469388e-05,1.5260993677657098e-05
-5.157675786904292e-06,-4.962978346156888e-05,3.210348222637549e-05,1.7259028027183376e-05,-1.794240961316973e-05,1.5118693227123003e-05
1.8144899513572454e-05,-5.845964915351942e-05,3.171138814650476e-05,1.9806391719612293e-05,-1.579181116539985e-05,2.538706576160621e-05
4.9837435653898865e-05,-7.689123594900593e-05,3.5487100831232965e-05,2.5264982468797825e-05,-1.3376107744988985e-05,4.3323419959051535e-05
7.236147939693183e-05,-0.00010242511052638292,4.320295556681231e-05,3.0000252081663348e-05,-1.51922031363938e-05,5.849596709595062e-05
8.78294522408396e-05,-0.00012160088226664811,5.105664240545593e-05,3.1245446734828874e-05,-1.6323630916303955e-05,7.204184657894075e-05
8.497718954458833e-05,-0.0001239310804521665,5.02601069456432e-05,3.686886702780612e-05,-1.9082326616626233e-05,8.008344593690708e-05
6.429934728657827e-05,-0.00011263598571531475,4.470737621886656e-05,4.381590406410396e-05,-1.9029357645194978e-05,7.132085738703609e-05
3.7467612855834886e-05,-9.821059938985854e-05,4.427834937814623e-05,5.050647450843826e-05,-1.330679970124038e-05,5.623377728625201e-05
-7.437834483425831e-06,-8.33259618957527e-05,4.678294135374017e-05,4.882790017290972e-05,-6.602910161745967e-06,5.158272324479185e-05
-7.633014320163056e-05,-6.606636452488601e-05,4.7120578528847545e-05,3.250032750656828e-05,-3.5292189295432763e-06,6.190076237544417e-05
-0.00013134043547324836,-4.53001593996305e-05,4.006379458587617e-05,6.486308393505169e-06,-2.796988383124699e-06,8.737065945751965e-05
-0.0001380394387524575,-2.4140641471603885e-05,2.8102756914449856e-05,-1.5338375305873342e-05,-2.802037180060779e-08,0.000123109421110712
-0.00010943543020403013,-8.339695341419429e-06,2.1411786292446777e-05,-2.5260000256821513e-05,5.096432232676307e-06,0.0001570103777339682
-7.683481817366555e-05,1.8832366777132847e-06,2.225317803095095e-05,-2.6426088879816234e-05,7.345838639594149e-06,0.00016996248450595886
-5.5454882385674864e-05,1.0476665920577943e-05,2.2857693693367764e-05,-1.915199936775025e-05,8.380270628549624e-06,0.0001525089464848861
-4.610723044606857e-05,2.0894543922622688e-05,1.870781125035137e-05,-2.553168769736658e-06,1.0118912541656755e-05,0.00010979571379721165
-3.7972589780110866e-05,2.735536872933153e-05,1.2999113096157089e-05,1.587173574080225e-05,1.039631479216041e-05,5.582868107012473e-05
-1.8859469491872005e-05,2.182503703807015e-05,1.2497977877501398e-05,2.5203386030625552e-05,4.829636054637376e-06,1.2240917385497596e-05
8.904245987650938e-06,3.2014902444643667e-06,1.956997948582284e-05,2.8725198717438616e-05,-1.082408198271878e-05,1.6407888097091927e-06
3.3216165320482105e-05,-1.9103443264611997e-05,2.9285316486493684e-05,3.189409471815452e-05,-3.462762833805755e-05,1.626423909328878e-05
4.7339286538772285e-05,-3.510285387164913e-05,3.636291148723103e-05,3.998319880338386e-05,-5.7119654229609296e-05,2.2219999664230272e-05
5.25567629665602e-05,-4.3552223360165954e-05,4.2306422983529046e-05,5.679883906850591e-05,-6.987437518546358e-05,4.626954705599928e-06
6.124101491877809e-05,-4.770280793309212e-05,4.606809307006188e-05,8.159667777363211e-05,-7.284786261152476e-05,-1.5745819837320596e-05
8.560207788832486e-05,-4.875526065006852e-05,4.50367369921878e-05,0.00010249755723634735,-6.621949432883412e-05,-8.88331214810023e-06
0.00010841545736184344,-4.70636659883894e-05,4.178905510343611e-05,0.00011278137390036136,-5.185449481359683e-05,2.925534499809146e-05
0.00010932493751170114,-4.770366649609059e-05,4.0630504372529685e-05,0.0001132414472522214,-3.451381780905649e-05,7.360881863860413e-05
8.792521839495748e-05,-5.2652238082373515e-05,3.771456977119669e-05,0.00010110160656040534,-2.1922662199358456e-05,0.00010082652443088591
5.718953980249353e-05,-5.564936145674437e-05,3.605954407248646e-05,8.210693340515718e-05,-7.1819904405856505e-06,0.0001164223940577358
3.3877378882607445e-05,-5.9529378631850705e-05,3.8595713704125956e-05,7.113592437235638e-05,1.0210061191173736e-05,0.00012089932715753093
2.168802711821627e-05,-6.717586074955761e-05,3.7475958379218355e-05,6.282250978983939e-05,2.450486135785468e-05,0.00011531841300893575
1.6809752196422778e-05,-7.249416375998408e-05,3.679479050333612e-05,5.5343763960991055e-05,3.493712574709207e-05,0.0001019237024593167
1.2601142771018203e-05,-7.482880755560473e-05,3.8122700061649084e-05,4.5212429540697485e-05,4.063223605044186e-05,6.86056591803208e-05
1.0344839211029466e-05,-7.328711944865063e-05,3.624684177339077e-05,2.962846883747261e-05,3.966476651839912e-05,1.9015160432900302e-05
1.0120411388925277e-05,-6.799921538913622e-05,2.994440910697449e-05,2.191677958762739e-05,3.443331297603436e-05,-2.166100421163719e-05
6.933832082722802e-06,-6.240708171389997e-05,2.428640982543584e-05,1.4175983778841328e-05,2.883817614929285e-05,-3.1266510632121935e-05
-7.365331953224086e-07,-5.4232801630860195e-05,2.3363332729786634e-05,-2.5661561267043e-06,2.4007274987525307e-05,-8.09210632723989e-06
-9.061895980266854e-06,-4.63099786429666e-05,2.3747710656607524e-05,-2.2518868718179874e-05,2.3420556317432784e-05,1.893060289148707e-05
-5.730623797717271e-06,-4.2692165152402595e-05,2.3422589947585948e-05,-3.1809300708118826e-05,2.4739407308516093e-05,2.6665071345632896e-05
9.826379937294405e-06,-4.0587172406958416e-05,2.4667795514687896e-05,-2.2807307686889544e-05,2.1705272956751287e-05,2.8497483071987517e-05
2.7392394258640707e-05,-3.9571030356455594e-05,2.8314869268797338e-05,-3.7447641716426006e-06,1.4799830751144327e-05,3.713782280101441e-05
3.579616532078944e-05,-4.338223880040459e-05,3.2428972190245986e-05,1.054799577104859e-05,9.162908099824563e-06,4.9363457947038114e-05
3.9508035115431994e-05,-5.298681935528293e-05,3.623074007919058e-05,2.0316903828643262e-05,4.153314421273535e-06,5.630962914437987e-05
4.7042747610248625e-05,-6.355754157993942e-05,3.6706780520034954e-05,3.217216726625338e-05,-2.273774498462444e-06,5.4269377869786695e-05
5.839762161485851e-05,-6.81046731187962e-05,3.3913493098225445e-05,4.74798544018995e-05,-7.158286280173343e-06,5.657495421473868e-05
6.645760731771588e-05,-6.501270399894565e-05,3.2286061468767e-05,5.999324275762774e-05,-8.66107438923791e-06,7.562592509202659e-05
6.374694930855185e-05,-5.920738840359263e-05,3.391400241525844e-05,6.770994514226913e-05,-1.2425978638930246e-05,0.00010058621410280466
5.4657681175740436e-05,-5.421950845629908e-05,3.7014651752542704e-05,7.703890150878578e-05,-2.1135931092430837e-05,0.00010576267231954262
5.4183667089091614e-05,-5.334962406777777e-05,4.0559614717494696e-05,8.792832522885874e-05,-2.6797333703143522e-05,8.724090730538592e-05
6.973688141442835e-05,-5.579366552410647e-05,4.4382981286616996e-05,9.078010043594986e-05,-2.5652832846390083e-05,6.611541903112084e-05
9.073381079360843e-05,-5.776793113909662e-05,4.704787352238782e-05,7.98907276475802e-05,-2.295181548106484e-05,5.802993837278336e-05
9.949398372555152e-05,-5.6597491493448615e-05,4.304250251152553e-05,5.971901919110678e-05,-2.014403980865609e-05,6.210914580151439e-05
8.621525921626016e-05,-5.79035040573217e-05,3.3280048228334635e-05,3.4996934118680656e-05,-1.6313859305228107e-05,7.527240813942626e-05
5.6878419854911044e-05,-6.328291783574969e-05,2.7268833946436644e-05,1.1259121492912527e-05,-1.3949344065622427e-05,9.106340439757332e-05
3.1107821996556595e-05,-6.839085108367726e-05,3.024011130037252e-05,-3.5168523027095944e-06,-1.2466372027120087e-05,0.00010086682596011087
1.9885685105691664e-05,-7.181929686339572e-05,3.392415237613022e-05,-6.129163921286818e-06,-8.511172381986398e-06,0.00010936881153611466
9.759114618645981e-06,-7.217523670988157e-05,3.202409789082594e-05,-1.0338045285607222e-05,-4.238415840518428e-06,0.0001232152571901679
-1.3686227248399518e-05,-7.159467349993065e-05,3.234693576814607e-05,-1.744746623444371e-05,-6.884449703647988e-07,0.000116490620712284
-4.339855877333321e-05,-6.617906910832971e-05,3.717447179951705e-05,-1.2835504094255157e-05,-1.145099872701394e-06,6.065161869628355e-05
-5.703589704353362e-05,-5.48905081814155e-05,4.2630406824173406e-05,6.306623163254699e-06,-5.265802428766619e-06,-8.585678187955637e-06
-5.604518446489237e-05,-3.934323831344955e-05,4.272403020877391e-05,2.3090109607437626e-05,-6.5597600951150525e-06,-3.716380160767585e-05
-5.2693794714286923e-05,-2.0714076526928693e-05,3.617276161094196e-05,2.4610000764369033e-05,-6.969944479351398e-06,-2.162288910767529e-05
-3.7683759728679433e-05,-5.864539616595721e-06,2.7006706659449264e-05,2.0383400624268688e-05,-7.54429993321537e-06,-9.345543503513909e-07
-5.794575372419786e-06,5.20255092339994e-08,2.1264168026391417e-05,2.2396683561964892e-05,-5.952697392785922e-06,7.061601991154021e-06
2.1913516320637427e-05,1.3846565707353875e-06,1.9517250620992854e-05,2.622219835757278e-05,-5.284496637614211e-06,2.235171450593043e-05
2.9015793188591488e-05,9.852399216470076e-07,1.704592796158977e-05,2.4723858587094583e-05,-1.1134259693790227e-05,5.021801189286634e-05
2.558463347668294e-05,-5.403767318057362e-06,1.6840987882460468e-05,2.3027427232591435e-05,-1.8507269487599842e-05,6.922019383637235e-05
3.082412513322197e-05,-1.4963443391025066e-05,2.2627678845310584e-05,2.8876807846245356e-05,-2.0799125195480883e-05,7.303387246793136e-05
4.219322727294639e-05,-2.301972017448861e-05,3.206268229405396e-05,3.730251046363264e-05,-2.0801820937776938e-05,8.177689596777782e-05
4.7389934479724616e-05,-2.836873500200454e-05,3.8442267396021634e-05,3.372138962731697e-05,-2.1161898985155858e-05,0.00010387664224253967
3.832346192211844e-05,-3.319332608953118e-05,3.793787254835479e-05,1.544776387163438e-05,-2.0403766029630788e-05,0.0001294837420573458
2.021382715611253e-05,-3.8027239497751e-05,3.652025407063775e-05,-1.9839574179059127e-06,-1.7951020709006116e-05,0.0001518032659078017
6.8729282247659285e-06,-4.487510886974633e-05,3.83532969863154e-05,-4.705504125013249e-06,-1.533377326268237e-05,0.00016698501713108271
