1.7486267097410746e-05,-4.994866321794689e-05,3.40006772603374e-05,7.647084203199483e-06,6.163014768389985e-05,6.399438279913738e-05
1.770935887179803e-05,-5.263225102680735e-05,3.526870204950683e-05,-8.250874998338986e-06,6.127081724116579e-05,6.255864718696102e-05
1.837944728322327e-05,-5.162191519048065e-05,3.387287142686546e-05,-1.8189939510193653e-05,5.784068343928084e-05,6.339464016491547e-05
1.4403774002857972e-05,-4.94476844323799e-05,3.0109813451417722e-05,-1.5193083527265117e-05,4.823717608815059e-05,6.916892743902281e-05
1.0615239261824172e-05,-4.719456410384737e-05,2.6727100703283213e-05,-3.600209993237513e-06,3.116339576081373e-05,6.741252582287416e-05
1.132120996771846e-05,-4.771979365614243e-05,2.779543683573138e-05,8.777052244113293e-06,5.517914814845426e-06,5.2998162573203444e-05
1.332420561084291e-05,-5.101941860630177e-05,2.8292008209973574e-05,1.969855475181248e-05,-1.9879020328517072e-05,3.7504167266888544e-05
1.7254134945687838e-05,-5.250134927337058e-05,2.6576984964776784e-05,2.9703398467972875e-05,-3.8721318560419604e-05,3.89336419175379e-05
2.0080406102351844e-05,-5.1899947720812634e-05,2.5681945771793835e-05,3.3353564504068345e-05,-4.705218452727422e-05,5.463019260787405e-05
2.3551376216346398e-05,-5.301991768646985e-05,2.3510634491685778e-05,3.0123625037958845e-05,-4.5591903472086415e-05,6.917842256370932e-05
2.686287734832149e-05,-5.65299233130645e-05,2.2699472538079135e-05,3.170116542605683e-05,-3.8461254007415846e-05,7.325120532186702e-05
2.906080408138223e-05,-5.751924618380144e-05,2.4681396098458208e-05,3.991320409113541e-05,-3.208914495189674e-05,6.860068970127031e-05
2.942386709037237e-05,-5.5978169257286936e-05,2.78644438367337e-05,4.6221895900089294e-05,-2.7684514861903153e-05,6.343739369185641e-05
2.779215355985798e-05,-5.3942541853757575e-05,3.0200815672287717e-05,4.230528065818362e-05,-2.257717824249994e-05,6.0443700931500643e-05
2.5468249077675864e-05,-5.266203879727982e-05,3.061392635572702e-05,3.007940176757984e-05,-1.695024002401624e-05,6.049804142094217e-05
2.4204524379456416e-05,-5.2401555876713246e-05,2.74364574579522e-05,1.6163223335752264e-05,-9.898870303004514e-06,6.417395343305543e-05
2.612104253785219e-05,-5.279147080727853e-05,2.3206044716062024e-05,7.490863936254755e-06,-2.823958311637398e-06,7.195348007371649e-05
2.9465069019352086e-05,-5.2088467782596126e-05,2.2236486984184012e-05,5.874376256542746e-06,1.6533150528630358e-06,8.056172373471782e-05
3.147565803374164e-05,-4.9841815780382603e-05,2.842195135599468e-05,9.363300705444999e-06,2.8778881642210763e-06,8.579126006225124e-05
2.9795188311254606e-05,-4.5600532757816836e-05,3.646879122243263e-05,1.2353430975053925e-05,4.12822646467248e-06,8.32021760288626e-05
2.6216870537609793e-05,-4.390157846501097e-05,3.931293394998647e-05,1.2996278201171663e-05,3.1916063107928494e-06,7.316822302527726e-05
2.1899073544773273e-05,-4.679878838942386e-05,3.8356080040102825e-05,1.5444027667399496e-05,1.0705884960771073e-06,5.943030191701837e-05
1.9860148313455284e-05,-4.9060374294640496e-05,3.457185812294483e-05,1.9625291315605864e-05,1.1183178685314488e-06,5.023820631322451e-05
2.242725713585969e-05,-4.698761040344834e-05,3.230452421121299e-05,2.1573896447080187e-05,3.699230319398339e-06,5.303489160723984e-05
2.8487351301009767e-05,-4.5809385483153164e-05,3.605005986173637e-05,2.0758523533004336e-05,2.9626121431647334e-06,5.504311775439419e-05
3.302489494672045e-05,-4.69424448965583e-05,4.070105933351442e-05,2.430431413813494e-05,-3.4952684018207947e-06,4.9443835450802e-05
3.217045741621405e-05,-4.455684756976552e-05,4.147715662838891e-05,3.1531690183328465e-05,-9.477540515945293e-06,5.144510942045599e-05
2.7056032195105217e-05,-4.4958946091355756e-05,3.740788815775886e-05,3.5652083170134574e-05,-1.4548294529959094e-05,6.03355911152903e-05
1.9985636754427105e-05,-4.839453686145134e-05,3.4022319596260786e-05,3.752154952962883e-05,-2.249236604257021e-05,5.835895717609674e-05
1.6552476154174656e-05,-5.2511823014356196e-05,3.179498162353411e-05,3.6281559005146846e-05,-3.0162185794324614e-05,5.48603966308292e-05
1.911206891236361e-05,-5.351028812583536e-05,3.0160625101416372e-05,3.6748773709405214e-05,-3.103916242253035e-05,6.125277286628261e-05
2.2470463591162115e-05,-4.90124621137511e-05,3.550509427441284e-05,4.342627653386444e-05,-2.7275784304947592e-05,6.689515430480242e-05
2.3960623366292566e-05,-4.648182584787719e-05,4.613866258296184e-05,4.854321377933957e-05,-2.5060508050955832e-05,7.064906094456092e-05
2.483290882082656e-05,-4.617151353158988e-05,4.739414725918323e-05,4.773488763021305e-05,-2.32963702728739e-05,7.323094905586913e-05
2.5459723474341445e-05,-4.871855708188377e-05,3.861955337924883e-05,4.1353287087986246e-05,-2.1515568732866086e-05,7.019859185675159e-05
2.5877621737890877e-05,-5.260104444460012e-05,3.417555126361549e-05,3.326083970023319e-05,-2.0138175386819057e-05,6.77188509143889e-05
2.7393531127017923e-05,-5.3129369916860014e-05,3.313612978672609e-05,2.8210131858941168e-05,-1.866276579676196e-05,6.622048385906965e-05
2.8398768336046487e-05,-5.1742070354521275e-05,3.1859788578003645e-05,2.5886998628266156e-05,-1.6283511286019348e-05,6.425665924325585e-05
2.6481824534130283e-05,-5.2934792620362714e-05,3.060658855247311e-05,2.6405574317323044e-05,-1.6616195352980867e-05,6.250591832213104e-05
2.3186546968645416e-05,-5.551196227315813e-05,3.144760194118135e-05,3.0061532015679404e-05,-1.867506762209814e-05,5.876292925677262e-05
2.2734693629899994e-05,-5.523849176825024e-05,3.1541370844934136e-05,3.950143945985474e-05,-1.6989257346722297e-05,5.720014814869501e-05
2.339379716431722e-05,-5.1886472647311166e-05,3.1114464945858344e-05,5.042778866481967e-05,-1.4798957636230625e-05,5.829916335642338e-05
2.133128873538226e-05,-4.843241549679078e-05,3.16429250233341e-05,5.2829851483693346e-05,-1.641637209104374e-05,5.9541613154578954e-05
1.8759594240691513e-05,-4.546126729110256e-05,3.29536669596564e-05,4.674365482060239e-05,-1.8206172171630897e-05,6.186072278069332e-05
1.84045475180028e-05,-4.452108623809181e-05,3.286523133283481e-05,3.9694969018455595e-05,-1.4842844393569976e-05,6.586097879335284e-05
1.7943371858564205e-05,-4.72360297862906e-05,3.16985824611038e-05,3.5410295822657645e-05,-9.450440302316565e-06,7.10619060555473e-05
1.5916029951767996e-05,-5.027176666771993e-05,3.101648326264694e-05,3.44933032465633e-05,-7.069878847687505e-06,7.40655668778345e-05
1.4202908459992614e-05,-5.1056314987363294e-05,3.0147642974043265e-05,3.8524187402799726e-05,-4.8451834118168335e-06,6.999794277362525e-05
1.432698900316609e-05,-4.948435162077658e-05,3.028902028745506e-05,4.4106884161010385e-05,-1.0238063623546623e-06,6.02225300099235e-05
1.5874175005592406e-05,-4.6705317799933255e-05,3.2109332096297294e-05,4.6240107621997595e-05,-2.518474275348126e-06,5.374490865506232e-05
1.6613659681752324e-05,-4.578649895847775e-05,3.459257277427241e-05,4.467058533919044e-05,-8.581000656704418e-06,5.453736230265349e-05
1.576300201122649e-05,-4.764366167364642e-05,3.478241342236288e-05,3.9497113903053105e-05,-1.3696794667339418e-05,5.54865000594873e-05
1.418957890564343e-05,-5.17717344337143e-05,3.081502654822543e-05,2.9940943932160735e-05,-1.7756572560756467e-05,5.4573483794229105e-05
1.433463239663979e-05,-5.880876778974198e-05,2.5950839699362405e-05,2.420967211946845e-05,-2.280958324263338e-05,5.3594842029269785e-05
1.5668192645534873e-05,-6.108493107603863e-05,2.748633960436564e-05,2.3848164346418343e-05,-2.6051746317534707e-05,5.606303966487758e-05
1.3659689102496486e-05,-5.6067296100081876e-05,3.2051313610281795e-05,2.3824075469747186e-05,-2.712426066864282e-05,5.895589492865838e-05
1.0317861779185478e-05,-4.969068322679959e-05,3.309316889499314e-05,2.0918123482260853e-05,-2.3492842956329696e-05,5.558174234465696e-05
1.4418329556065146e-05,-4.882293433183804e-05,3.066660792683251e-05,5.463537490868475e-06,-1.2797915587725583e-05,5.001768295187503e-05
2.1929981812718324e-05,-5.1179064030293375e-05,2.9633396479766816e-05,-1.3532221601053607e-05,-3.3516273560962873e-06,4.654137956094928e-05
2.6970930775860325e-05,-5.0763144827215e-05,3.213690797565505e-05,-1.0675835255824495e-05,-1.0687275562304421e-06,4.9514939746586606e-05
2.7706846594810486e-05,-5.051790867582895e-05,3.482356260064989e-05,1.974864790099673e-05,-5.101956958242226e-06,5.0454891606932506e-05
2.3150390916271135e-05,-5.285406587063335e-05,3.45318803738337e-05,5.5645479733357206e-05,-1.0341634151700418e-05,4.80829767184332e-05
1.8578803064883687e-05,-5.5236851039808244e-05,3.182304499205202e-05,7.821332837920636e-05,-1.1338267540850211e-05,5.14411622134503e-05
1.8792343325912952e-05,-5.2559997129719704e-05,3.061359529965557e-05,9.294674237025902e-05,-8.176361916412134e-06,5.427067299024202e-05
2.3718579541309737e-05,-4.7570880269631743e-05,3.374035077285953e-05,0.00010394606943009421,-1.9293042896606494e-06,5.279029210214503e-05
2.9108026865287684e-05,-4.37106064055115e-05,3.827811815426685e-05,0.00010852092236746103,4.644969067157945e-06,5.6707969633862376e-05
3.1273677450371906e-05,-4.169698877376504e-05,4.151989196543582e-05,0.00010246723832096905,7.424599971272983e-06,6.643402593908831e-05
2.743090590229258e-05,-4.135443305131048e-05,4.220643677399494e-05,8.661958418088034e-05,4.060154878970934e-06,7.422857015626505e-05
2.143256824638229e-05,-4.43532298959326e-05,4.3765550799435005e-05,6.906237831572071e-05,-1.8351551034356817e-06,7.232734787976369e-05
1.8558004740043543e-05,-5.060310650151223e-05,4.424950748216361e-05,5.7449880841886625e-05,-5.361333933251444e-06,5.714351573260501e-05
1.9065408196183853e-05,-5.750109630753286e-05,4.085861655767076e-05,4.783527765539475e-05,-7.94544303062139e-06,3.7379690184025094e-05
2.0718431187560782e-05,-6.099092206568457e-05,3.632283551269211e-05,3.364769509062171e-05,-1.4483980521617923e-05,2.6456100385985337e-05
1.9360788428457454e-05,-6.16627003182657e-05,3.2215157261816785e-05,1.8424319932819344e-05,-2.3843045710236765e-05,2.550942917878274e-05
1.4059829481993802e-05,-6.167832907522097e-05,2.6653409804566763e-05,9.649604180594906e-06,-2.829757795552723e-05,2.2680769689031877e-05
8.459714081254788e-06,-5.90821000514552e-05,2.1779569578939117e-05,8.731894922675565e-06,-2.2891874323249795e-05,2.059753387584351e-05
5.276764113659738e-06,-5.690625766874291e-05,2.2074998923926614e-05,1.030258135870099e-05,-1.4398182429431472e-05,2.6832049115910195e-05
4.736811206385028e-06,-5.547536056837998e-05,2.710031549213454e-05,1.786179927876219e-05,-1.205932585435221e-05,3.588848630897701e-05
7.512732736358885e-06,-5.199833321967162e-05,3.481996463960968e-05,3.593802830437198e-05,-1.5084377992025111e-05,4.2138730350416154e-05
1.4844634279143065e-05,-4.873902798863128e-05,3.981279951403849e-05,5.740803317166865e-05,-1.8059112335322425e-05,4.870826523983851e-05
2.2209607777767815e-05,-4.6160250349203125e-05,4.040117346448824e-05,6.507139914901927e-05,-1.6960913853836246e-05,5.928303289692849e-05
2.335683529963717e-05,-4.33488457929343e-05,3.612077853176743e-05,5.5513210099888965e-05,-1.3511060387827456e-05,6.795418448746204e-05
2.0128170945099555e-05,-4.298101339372806e-05,3.140186163363978e-05,4.020444248453714e-05,-1.1591700058488641e-05,7.06109349266626e-05
1.731990050757304e-05,-4.544831972452812e-05,3.0227434763219208e-05,2.5155837647616863e-05,-1.2429423804860562e-05,6.991087866481394e-05
1.6517566109541804e-05,-4.819889727514237e-05,2.997837873408571e-05,1.3344076251087245e-05,-1.4258193004934583e-05,6.254101754166186e-05
1.5930645531625487e-05,-4.6506800572387874e-05,2.9555025321315043e-05,7.182103672676021e-06,-1.6809986846055835e-05,5.7929813920054585e-05
1.7433936591260135e-05,-4.4094285840401426e-05,2.7370095267542638e-05,-8.134412610161235e-07,-1.5668952983105555e-05,6.18647609371692e-05
1.9305738533148542e-05,-4.337231075624004e-05,2.4837027012836188e-05,-2.1152802219148725e-05,-1.1639272997854277e-05,6.361101986840367e-05
1.9143280951539055e-05,-4.5090906496625394e-05,2.3701504687778652e-05,-4.156715658609755e-05,-5.9915455494774505e-06,5.9455087466631085e-05
1.9197834262740798e-05,-4.786809950019233e-05,2.279222826473415e-05,-4.662567880586721e-05,-1.4373546264323522e-07,5.285888255457394e-05
1.8681590518099256e-05,-5.028351370128803e-05,2.4555789423175156e-05,-3.7070101825520396e-05,9.392941251462616e-07,4.548906872514635e-05
1.7322672647424042e-05,-5.1681774493772537e-05,2.61147888522828e-05,-2.112856600433588e-05,-1.8766605762721156e-06,4.094393807463348e-05
1.547579449834302e-05,-4.942857049172744e-05,2.7249054255662486e-05,-4.724460723082302e-06,-5.2094069360464346e-06,4.108103166799992e-05
1.393322781950701e-05,-4.680920756072737e-05,2.976707946800161e-05,1.4387163901119493e-05,-9.46875661611557e-06,4.485675526666455e-05
1.1627621461229865e-05,-4.6928991650929675e-05,3.1414067052537575e-05,3.092480619670823e-05,-1.6448959286208265e-05,5.030363900004886e-05
1.09711663753842e-05,-5.011530083720572e-05,3.0020160920685157e-05,4.0334380173590034e-05,-2.4105651391437277e-05,5.4775966418674216e-05
1.3591841707238927e-05,-5.32056437805295e-05,2.7720549041987397e-05,4.464830635697581e-05,-2.757529182417784e-05,5.7644669141154736e-05
1.5727706340840086e-05,-5.407387652667239e-05,2.4886838218662888e-05,4.510394865064882e-05,-2.5417961296625435e-05,5.9773065004264936e-05
1.5474259271286428e-05,-5.4373438615584746e-05,2.1888667106395587e-05,3.9377140637952834e-05,-2.143943311239127e-05,6.508750811917707e-05
1.4443430700339377e-05,-5.44037829968147e-05,2.260856854263693e-05,3.205805842299014e-05,-1.914688982651569e-05,7.216475933091715e-05
1.4298331734607928e-05,-5.208891161601059e-05,2.507776844140608e-05,2.8840735467383638e-05,-1.90343962458428e-05,7.452425052179024e-05
1.538307151349727e-05,-4.912754229735583e-05,2.2931046260055155e-05,2.453253182466142e-05,-1.8646464013727382e-05,7.066762918839231e-05
1.647659155423753e-05,-4.8434838390676305e-05,1.904263990581967e-05,1.4562279829988256e-05,-1.7789254343369976e-05,6.767080049030483e-05
1.8937706045107916e-05,-5.05844691360835e-05,1.8469323549652472e-05,7.159634606068721e-06,-1.6159869119292125e-05,6.4841027779039e-05
2.2608704966842197e-05,-5.3671446949010715e-05,1.824188802856952e-05,1.0193479283771012e-05,-1.4424578694161028e-05,5.706031515728682e-05
2.3705531930318102e-05,-5.449683158076368e-05,1.768489892128855e-05,1.6658828826621175e-05,-1.3019072866882198e-05,4.6707180445082486e-05
2.3109683752409182e-05,-5.248767774901353e-05,2.041847983491607e-05,1.6625570424366742e-05,-8.262499250122346e-06,4.208443351672031e-05
2.167526508856099e-05,-5.170446092961356e-05,2.4786131689324975e-05,1.3620488971355371e-05,-3.240932073822478e-06,4.712323425337672e-05
2.2567033738596365e-05,-5.2938106819055974e-05,2.5514778826618567e-05,8.583131602790672e-06,2.164309080399107e-06,5.718484680983238e-05
2.8793481760658324e-05,-4.9395504902349785e-05,2.5222749172826298e-05,-9.090243111131713e-06,9.198379302688409e-06,6.514874985441566e-05
3.542742706486024e-05,-4.143125988775864e-05,2.5970461138058454e-05,-2.74208105111029e-05,1.3729246347793378e-05,6.628471601288766e-05
3.876843038597144e-05,-3.862674566335045e-05,2.6326062652515247e-05,-2.8657805160037242e-05,1.749586772348266e-05,6.650792056461796e-05
3.7413374229799956e-05,-4.1544299165252596e-05,2.4282378944917582e-05,-6.585895334865199e-06,1.4748600733582862e-05,6.241224036784843e-05
3.277423093095422e-05,-4.5953049266245216e-05,2.1751831809524447e-05,2.751429747149814e-05,5.042485099693295e-06,5.147002957528457e-05
3.2289772207150236e-05,-4.836554580833763e-05,2.454677814966999e-05,5.4091247875476256e-05,-1.7526640476717148e-06,4.8646441427990794e-05
3.513765841489658e-05,-4.729063221020624e-05,3.133009158773348e-05,6.987468077568337e-05,7.79869651523768e-07,5.446162322186865e-05
3.680462759803049e-05,-4.7425186494365335e-05,3.543270577210933e-05,7.501053187297657e-05,4.290021479391726e-06,6.16338656982407e-05
3.7071327824378386e-05,-4.7946010454325005e-05,3.548711538314819e-05,7.100176298990846e-05,9.207777793562855e-07,6.493533874163404e-05
3.8079768273746595e-05,-4.4475211325334385e-05,3.134738653898239e-05,5.948500620434061e-05,-8.783671546552796e-06,6.53733077342622e-05
3.626847319537774e-05,-3.842693695332855e-05,2.8248798116692342e-05,4.475466630537994e-05,-1.780240927473642e-05,6.77408097544685e-05
3.360578921274282e-05,-3.633941014413722e-05,2.7373898774385452e-05,3.425875911489129e-05,-2.0082923583686352e-05,7.30337924323976e-05
3.3333137253066525e-05,-4.041894862893969e-05,2.684176797629334e-05,3.054314584005624e-05,-1.743419124977663e-05,8.035747305257246e-05
3.239979560021311e-05,-4.503121817833744e-05,2.6257217541569844e-05,3.098071465501562e-05,-1.4449359696300235e-05,8.220812742365524e-05
3.1232200853992254e-05,-4.5970224164193496e-05,2.6503623303142376e-05,2.9780376280541532e-05,-1.245092698809458e-05,7.617058145115152e-05
2.9717042707488872e-05,-4.1982504626503214e-05,2.8306756576057523e-05,2.5571900550858118e-05,-9.116175533563364e-06,6.83370089973323e-05
2.911313458753284e-05,-3.915990237146616e-05,2.9001470466027968e-05,2.3264950868906453e-05,-5.0489979912526906e-06,6.716003554174677e-05
3.079570524278097e-05,-4.068583803018555e-05,2.8741927962983027e-05,2.3824642994441092e-05,1.21174934974988e-06,7.378400914603844e-05
3.349266989971511e-05,-4.317261846153997e-05,3.004196878464427e-05,2.4066406695055775e-05,7.480513886548579e-06,8.294001600006595e-05
3.378510882612318e-05,-4.5086449972586706e-05,3.2251758966594934e-05,2.261014742543921e-05,1.2215095921419561e-05,8.950675692176446e-05
3.195360113750212e-05,-4.6507873776135966e-05,3.282706529716961e-05,2.0317900634836406e-05,1.5514224287471734e-05,9.003051673062146e-05
2.9472766982507892e-05,-4.6428907808149233e-05,3.1259780371328816e-05,2.115332245011814e-05,1.4791641660849564e-05,8.23349691927433e-05
3.012397064594552e-05,-4.6603207010775805e-05,2.7675754608935677e-05,2.897392369050067e-05,9.273589967051521e-06,7.457013271050528e-05
3.229058347642422e-05,-4.913612065138295e-05,2.696742558327969e-05,3.821291829808615e-05,6.448298790928675e-06,7.274163363035768e-05
3.135119186481461e-05,-5.3246854804456234e-05,2.6771091143018566e-05,4.210911720292643e-05,6.992629096203018e-06,7.582459511468187e-05
3.013803143403493e-05,-5.582999438047409e-05,2.6979227186529897e-05,4.2821509850909933e-05,6.969365131226368e-06,8.285060903290287e-05
3.0272336516645737e-05,-5.2513638365780935e-05,2.7679894628818147e-05,4.310374424676411e-05,5.248820798442466e-06,8.110124326776713e-05
2.9305809221114032e-05,-4.732137676910497e-05,2.941307502624113e-05,4.174567948211916e-05,1.9807089302048553e-06,6.456412666011602e-05
2.6903728212346323e-05,-4.699484270531684e-05,3.358191315783188e-05,3.7597121263388544e-05,-3.2766015465313103e-06,4.577121580950916e-05
2.5766983526409604e-05,-5.080037226434797e-05,3.40414117090404e-05,3.099883542745374e-05,-6.320397005765699e-06,3.542776175891049e-05
2.340770333830733e-05,-5.2818668336840346e-05,3.3272317523369566e-05,1.9698296455317177e-05,-6.255301286728354e-06,4.135341077926569e-05
2.0627239791792817e-05,-5.426705683930777e-05,3.401568756089546e-05,8.798037924862001e-06,-6.480946012743516e-06,5.735002559958957e-05
1.9229428289690986e-05,-5.625832636724226e-05,3.451287921052426e-05,4.096663815289503e-06,-7.463530891982373e-06,6.447814666898921e-05
1.4626201846112963e-05,-5.721357956645079e-05,3.345853474456817e-05,3.601775006245589e-06,-1.3384316844167188e-05,5.7827553973766044e-05
9.555699762131553e-06,-5.784299719380215e-05,3.0236560633056797e-05,-3.729956574716198e-07,-2.291477721882984e-05,4.6141212806105614e-05
6.148629381641513e-06,-5.850510569871403e-05,2.7337246137904003e-05,-6.416078122128965e-06,-2.9641290893778205e-05,3.8938473153393716e-05
5.9591184253804386e-06,-5.7989520428236574e-05,3.0341599995153956e-05,-6.308283900580136e-06,-2.9651000659214333e-05,3.639571150415577e-05
6.055893663869938e-06,-5.69912044738885e-05,3.708416625158861e-05,1.2448325605873833e-06,-2.6483334295335226e-05,3.7096422602189705e-05
5.812221843370935e-06,-5.727048119297251e-05,4.076079130754806e-05,1.7890415620058775e-05,-2.6171188437729143e-05,3.922160613001324e-05
7.2330099101236556e-06,-5.74126243009232e-05,4.088485729880631e-05,4.539694054983556e-05,-3.1255091016646475e-05,4.410438850754872e-05
9.219148523698095e-06,-5.692462946171872e-05,3.930030652554706e-05,6.776588270440698e-05,-3.612729051383212e-05,5.157502891961485e-05
1.0463912985869683e-05,-5.6592125474708155e-05,3.9345854020211846e-05,6.907820352353156e-05,-3.325151919852942e-05,6.094447962823324e-05
1.0985647350025829e-05,-5.55122533114627e-05,4.226010059937835e-05,5.6091539590852335e-05,-2.398702963546384e-05,6.810956983827055e-05
1.2919873370265123e-05,-5.316472743288614e-05,4.790803723153658e-05,4.351449751993641e-05,-1.649630030442495e-05,6.952526746317744e-05
1.4968260984460358e-05,-5.0881037168437615e-05,5.2101768233114854e-05,3.75029121642001e-05,-1.3817911167279817e-05,6.484536424977705e-05
1.5879157217568718e-05,-4.904545494355261e-05,5.065101504442282e-05,3.83822298317682e-05,-1.543630423839204e-05,6.171098357299343e-05
1.4368406482390128e-05,-4.692704533226788e-05,4.5817490899935365e-05,4.062467996845953e-05,-2.0196628611302003e-05,6.576540181413293e-05
1.3946742001280654e-05,-4.5138087443774566e-05,4.199648537905887e-05,3.305697828182019e-05,-2.2263411665335298e-05,7.271456706803292e-05
1.4342010217660572e-05,-4.416122828843072e-05,3.855019167531282e-05,1.586244070495013e-05,-2.119530108757317e-05,7.445259689120576e-05
1.2067254829162266e-05,-4.324951078160666e-05,3.483028194750659e-05,1.3346452760742977e-06,-2.121154648193624e-05,7.203078712336719e-05
6.982334980421001e-06,-4.2314655729569495e-05,3.4706401493167505e-05,-2.8713434403471183e-06,-2.2265468942350708e-05,7.741230365354568e-05
3.678318762467825e-06,-4.027520117233507e-05,3.740817919606343e-05,-3.73987518287322e-06,-2.5683555577415973e-05,7.704169547650963e-05
2.862170504158712e-06,-4.057506885146722e-05,3.9697657484794036e-05,-1.3062954167253338e-05,-3.088236917392351e-05,6.562994531122968e-05
3.518815105962858e-07,-4.439582698978484e-05,3.952989573008381e-05,-3.931440369342454e-05,-3.150616612401791e-05,5.9381833125371486e-05
-1.1611795116550638e-06,-4.601549153449014e-05,3.44765285262838e-05,-6.74754919600673e-05,-3.1841598683968186e-05,5.199105726205744e-05
1.3336216397874523e-06,-4.568983058561571e-05,3.064704651478678e-05,-6.892425153637305e-05,-3.5036890039918944e-05,3.5206259781261906e-05
5.33159391125082e-06,-4.590678508975543e-05,2.9529721359722316e-05,-4.2845738789765164e-05,-4.090787115273997e-05,1.6246383893303573e-05
9.129798854701221e-06,-4.628907481674105e-05,2.90259558823891e-05,1.2815720538128517e-06,-5.2648734708782285e-05,2.45417299993278e-06
1.571702705405187e-05,-4.73030777357053e-05,3.033821121789515e-05,5.218463047640398e-05,-6.230483268154785e-05,-9.496721418145171e-07
2.140258948202245e-05,-4.707639163825661e-05,3.380501948413439e-05,8.797500049695373e-05,-6.572096754098311e-05,7.352860507126024e-07
2.2898748284205794e-05,-4.583132249535993e-05,3.67236825695727e-05,0.00010490952263353392,-6.165405648062006e-05,8.164642167685088e-06
2.603760367492214e-05,-4.72094579890836e-05,3.5458768252283335e-05,0.00010662829299690202,-4.666038876166567e-05,2.1697929696529172e-05
2.966010470117908e-05,-4.8081485147122294e-05,3.395008752704598e-05,0.00010460291377967224,-2.1490099243237637e-05,3.820034908130765e-05
3.2491705496795475e-05,-4.602054468705319e-05,3.3320025977445766e-05,0.00010543542157392949,1.0032386853708886e-05,4.844455179409124e-05
3.176810787408613e-05,-4.315314436098561e-05,3.5649478377308697e-05,0.00010683749133022502,4.0447699575452134e-05,5.167147173779085e-05
2.878419036278501e-05,-4.2614396079443395e-05,4.05162172683049e-05,0.00010279933485435322,6.280463276198134e-05,5.5913285905262455e-05
2.8967859179829247e-05,-4.446852472028695e-05,4.370134774944745e-05,9.382149437442422e-05,7.48986640246585e-05,6.364312866935506e-05
3.413948797970079e-05,-4.517468551057391e-05,4.077416087966412e-05,8.5237312305253e-05,7.691391510888934e-05,7.222335989354178e-05
3.922672112821601e-05,-4.413342321640812e-05,3.732010009116493e-05,7.70391125115566e-05,7.100914081092924e-05,7.574553455924615e-05
4.0068276575766504e-05,-4.3290132452966645e-05,3.8244361348915845e-05,6.591223791474476e-05,6.125879008322954e-05,7.636108057340607e-05
3.854029637295753e-05,-4.3320229451637715e-05,3.943363481084816e-05,5.325506208464503e-05,4.860529224970378e-05,7.698382978560403e-05
3.682206443045288e-05,-4.275850733392872e-05,3.774732613237575e-05,4.520960646914318e-05,3.2621850550640374e-05,7.827112131053582e-05
3.6136832932243124e-05,-4.0856204577721655e-05,3.5435376048553735e-05,4.124319093534723e-05,1.7198910427396186e-05,8.159330900525674e-05
3.421001019887626e-05,-3.852416557492688e-05,3.449722134973854e-05,3.97175426769536e-05,7.74068303144304e-06,8.606191840954125e-05
3.115078288828954e-05,-3.86467290809378e-05,3.332659252919257e-05,3.882294549839571e-05,1.3008569794692448e-06,8.161654841387644e-05
2.764543933153618e-05,-4.119159348192625e-05,3.303626726847142e-05,3.671332888188772e-05,-7.272514267242514e-06,7.325445039896294e-05
2.546110044931993e-05,-4.1513889300404117e-05,3.213935633539222e-05,2.9428179914248176e-05,-1.6791227608337067e-05,7.463726797141135e-05
2.3294654965866357e-05,-3.897436909028329e-05,2.961221252917312e-05,2.3074082491802983e-05,-2.153007881133817e-05,7.941002695588395e-05
2.2799442376708612e-05,-4.200887997285463e-05,3.019780524482485e-05,2.4149720047716983e-05,-2.0546043742797337e-05,7.385716889984906e-05
2.662914812390227e-05,-4.842784255743027e-05,3.072500476264395e-05,2.922490966739133e-05,-2.1758893126389012e-05,5.774255623691715e-05
2.98616687359754e-05,-4.920279752695933e-05,2.8525091693154536e-05,3.168474722770043e-05,-2.6860448997467756e-05,4.49575309175998e-05
2.9887140044593252e-05,-4.6264423872344196e-05,2.9977962185512297e-05,3.4937129385070875e-05,-3.207087138434872e-05,4.3514894059626386e-05
2.7106312700198032e-05,-4.520601578406058e-05,3.5112694604322314e-05,3.938614099752158e-05,-3.574196307454258e-05,3.6012042983202264e-05
2.295487684023101e-05,-4.490568971959874e-05,3.719199958140962e-05,3.8122649129945785e-05,-3.781478517339565e-05,2.6701245587901212e-05
2.137196497642435e-05,-4.448254549060948e-05,3.561233097570948e-05,2.2444695787271485e-05,-3.975185609306209e-05,2.913882417487912e-05
2.0376077372930013e-05,-4.453792644198984e-05,3.447671406320296e-05,-3.884221314365277e-06,-4.434121728991158e-05,3.841967190965079e-05
2.0322717318776995e-05,-4.487903061090037e-05,3.1338586268248037e-05,-2.526170646888204e-05,-5.397739005275071e-05,5.2802744903601706e-05
2.1442871002363972e-05,-4.773225373355672e-05,2.9366610760916956e-05,-3.022748751391191e-05,-6.112943810876459e-05,6.70672015985474e-05
2.1842188289156184e-05,-4.917151454719715e-05,2.8192740501253866e-05,-1.7235741324839182e-05,-5.985174357192591e-05,7.519074279116467e-05
2.0390600184327923e-05,-4.9720289098331705e-05,2.783011586870998e-05,3.7004526802775217e-06,-5.152774974703789e-05,7.074470340739936e-05
1.9761157091124915e-05,-5.161404624232091e-05,2.924263390013948e-05,1.992673242057208e-05,-3.997761814389378e-05,5.017977673560381e-05
2.150959517166484e-05,-5.526497261598706e-05,3.169256524415687e-05,2.8397111236699857e-05,-2.7469710403238423e-05,2.1857584215467796e-05
2.4501965526724234e-05,-5.902961493120529e-05,3.243588071200065e-05,3.0029033950995654e-05,-1.54077606566716e-05,1.2532636901596561e-05
2.756061076070182e-05,-5.799051359645091e-05,3.0071489163674414e-05,2.6807912945514545e-05,-2.7980563572782557e-06,3.1274881621357054e-05
2.8175199986435473e-05,-5.258392047835514e-05,2.810061960190069e-05,2.2953279767534696e-05,1.0187210136791691e-05,6.240638322196901e-05
2.695056718948763e-05,-4.9438800488132983e-05,2.8640299206017517e-05,2.3048351067700423e-05,1.9981092918897048e-05,8.429845911450684e-05
2.4100931113935076e-05,-5.1272192649776116e-05,3.0920087738195434e-05,2.584464346000459e-05,2.447192855470348e-05,8.801724470686167e-05
2.1335843484848738e-05,-5.470972610055469e-05,3.351922350702807e-05,2.6054685804410838e-05,2.5460314645897597e-05,8.521964628016576e-05
2.1074683900224045e-05,-5.902524208067916e-05,3.599166666390374e-05,2.2759979401598684e-05,2.50362263614079e-05,8.49923599162139e-05
2.3617762053618208e-05,-6.30756258033216e-05,3.591724453144707e-05,2.1850330085726455e-05,2.3377249817713164e-05,8.098407852230594e-05
2.56807998084696e-05,-6.460113218054175e-05,3.2190953788813204e-05,2.6744975912151858e-05,2.172822132706642e-05,6.698090146528557e-05
2.71384087682236e-05,-6.47138585918583e-05,2.6061523385578766e-05,3.042292155441828e-05,1.922876253956929e-05,5.3306495829019696e-05
2.7165620849700645e-05,-6.402534199878573e-05,2.232223232567776e-05,2.8026603104081005e-05,1.555556445964612e-05,4.8252120905090123e-05
2.509227670088876e-05,-5.9945552493445575e-05,2.6269133741152473e-05,2.474921348039061e-05,1.259224063687725e-05,4.89088888571132e-05
2.402401514700614e-05,-5.559870623983443e-05,3.247144559281878e-05,2.9496413844753988e-05,9.528521331958473e-06,5.328465340426192e-05
2.4763912733760662e-05,-5.5307973525486887e-05,3.2261501473840326e-05,3.54291005351115e-05,2.937666749858181e-06,5.702953058062121e-05
2.263751594000496e-05,-5.638906077365391e-05,2.8775728424079716e-05,3.377294342499226e-05,-5.466351467475761e-06,5.561735815717839e-05
1.800395875761751e-05,-5.5783340940251946e-05,2.615061566757504e-05,3.308302621007897e-05,-1.2148644600529224e-05,5.300708289723843e-05
1.818205782910809e-05,-5.481288462760858e-05,2.5918947358150035e-05,3.427042247494683e-05,-1.667569267738145e-05,4.9581500206841156e-05
1.8704424292081967e-05,-5.2982952183810994e-05,2.552052137616556e-05,3.0005903681740165e-05,-2.2471678676083684e-05,4.969557630829513e-05
1.5866326066316105e-05,-5.041248368797824e-05,2.5244791686418466e-05,2.6908206564257853e-05,-2.93826906272443e-05,5.505922672455199e-05
1.2495468581619207e-05,-4.937469566357322e-05,2.362220038776286e-05,2.6163696020375937e-05,-3.277664654888213e-05,6.207859405549243e-05
1.2013988452963531e-05,-5.11072066728957e-05,2.4455088350805454e-05,2.5008686861838214e-05,-3.0550421797670424e-05,6.477847637142986e-05
1.2663370398513507e-05,-5.2792202041018754e-05,3.0179118766682222e-05,2.4335304260603152e-05,-2.6698937290348113e-05,6.55348485452123e-05
1.1774978702305816e-05,-5.3895346354693174e-05,3.523188570397906e-05,2.5309433112852275e-05,-2.353230956941843e-05,6.684034451609477e-05
1.3143654541636351e-05,-5.726723247789778e-05,3.501218088786118e-05,2.2498692487715743e-05,-2.1534158804570325e-05,5.7055494835367426e-05
1.7013064280035906e-05,-5.928245445829816e-05,3.163414658047259e-05,1.815665564208757e-05,-2.0529789253487252e-05,4.356523641035892e-05
2.1450758140417747e-05,-5.819157013320364e-05,2.9850207283743657e-05,1.7389998902217485e-05,-1.8987728253705427e-05,4.215539593133144e-05
2.170104744436685e-05,-5.7942121202358976e-05,2.8560440114233643e-05,1.634269574424252e-05,-1.6234067516052164e-05,5.008344669477083e-05
1.8918181012850255e-05,-5.9803162002936006e-05,2.6729940145742148e-05,1.216433520312421e-05,-1.4611615370085929e-05,5.686371514457278e-05
1.6461939594591968e-05,-6.0627593484241515e-05,2.3169986889115535e-05,1.0307713637303095e-05,-1.5841338608879596e-05,6.175337330205366e-05
1.667138349148445e-05,-5.799775681225583e-05,2.1804406060255133e-05,1.3556034900830127e-05,-1.9737231923500076e-05,6.844034942332655e-05
1.6960908396868035e-05,-5.445395800052211e-05,2.271131052111741e-05,1.6443449567304924e-05,-2.2276377421803772e-05,7.036822353256866e-05
1.5547037037322298e-05,-5.3435287554748356e-05,2.2433272533817217e-05,1.7695960195851512e-05,-2.427449908282142e-05,6.429137283703312e-05
1.4876827663101722e-05,-5.529529880732298e-05,2.1173689674469642e-05,2.070579103019554e-05,-3.0128047001198865e-05,5.944779695710167e-05
1.4766636013519019e-05,-5.796269397251308e-05,2.1655636373907328e-05,2.6834279196918942e-05,-3.69616573152598e-05,6.376853707479313e-05
1.5488143617403693e-05,-5.93566510360688e-05,2.2297390387393534e-05,2.9312755941646174e-05,-3.796735836658627e-05,7.181623368524015e-05
1.6135336409206502e-05,-6.045115878805518e-05,2.247416523459833e-05,2.3868029529694468e-05,-3.1809140637051314e-05,7.325877231778577e-05
1.7471102182753384e-05,-5.9507150581339374e-05,2.751447755144909e-05,1.5229639757308178e-05,-2.592987584648654e-05,7.066757825668901e-05
1.931398583110422e-05,-5.5830452765803784e-05,3.527455191942863e-05,8.864359188009985e-06,-1.9868140952894464e-05,6.978033343330026e-05
2.0221390514052473e-05,-5.09711098857224e-05,3.7295227230060846e-05,4.60771343568922e-06,-1.1577080840652343e-05,6.998721073614433e-05
1.9039112885366194e-05,-4.7067027480807155e-05,3.6659908801084384e-05,1.0207529157924e-05,-4.411706868268084e-06,7.232842472149059e-05
1.7233958715223707e-05,-4.861928027821705e-05,3.770526382140815e-05,3.320621544844471e-05,-1.6708559087419417e-06,7.368101796600968e-05
1.740646803227719e-05,-5.164597314433195e-05,3.933813059120439e-05,6.389946793206036e-05,-1.6801203628347139e-06,7.350453233812004e-05
1.8438837287249044e-05,-5.1740429626079276e-05,4.234585503581911e-05,8.925949077820405e-05,2.3702450562268496e-06,7.540125079685822e-05
1.848080319177825e-05,-4.792955951415934e-05,4.5172902900958434e-05,9.415437671123073e-05,1.1334084774716757e-05,7.679205009480938e-05
1.762239662639331e-05,-4.4062828237656504e-05,4.323510802350938e-05,7.265643944265321e-05,1.907779005705379e-05,7.8051452874206e-05
1.9210920072509907e-05,-4.242700742906891e-05,3.9030488551361486e-05,4.372335024527274e-05,2.174311339331325e-05,7.08654843037948e-05
2.1925399778410792e-05,-4.0445673221256584e-05,3.700751040014438e-05,2.2672424165648408e-05,1.8671242287382483e-05,5.3227526223054156e-05
2.0872554159723222e-05,-4.105754487682134e-05,3.7440233427332714e-05,1.4274206478148699e-05,1.553735819470603e-05,4.168534360360354e-05
1.9918332327506505e-05,-4.205061122775078e-05,4.049105700687505e-05,1.7016587662510574e-05,1.3726247743761633e-05,4.9030779337044805e-05
2.095365744025912e-05,-4.3208499846514314e-05,4.403769344207831e-05,2.505394513718784e-05,1.3153736290405504e-05,6.541924085468054e-05
2.0072964616701938e-05,-4.6271194150904194e-05,4.3172698497073725e-05,2.9206637918832712e-05,1.5493436876568012e-05,7.297172851394862e-05
1.4907722288626246e-05,-5.225605855230242e-05,3.4404860343784094e-05,2.2956532120588236e-05,1.5075526789587457e-05,7.033893052721396e-05
9.025849976751488e-06,-5.622118987957947e-05,2.6366114980191924e-05,5.967023753328249e-06,8.78878290677676e-06,6.582988862646744e-05
9.357517228636425e-06,-5.263045386527665e-05,2.5251214538002387e-05,-9.012623195303604e-06,1.601646545168478e-06,6.54363539069891e-05
1.617249654373154e-05,-4.656096643884666e-05,3.000211108883377e-05,-7.0732062340539414e-06,-2.0269756078050705e-06,6.115101132309064e-05
2.1241396098048426e-05,-4.5385291741695255e-05,3.5982418921776116e-05,1.3005417713429779e-05,-4.320765583543107e-06,4.6112552809063345e-05
2.146610313502606e-05,-5.031159525969997e-05,3.877550261677243e-05,3.608199403970502e-05,-8.234246706706472e-06,3.338700844324194e-05
1.807723310776055e-05,-5.679200330632739e-05,3.642008232418448e-05,4.4662698201136664e-05,-1.4281141375249717e-05,3.810786074609496e-05
1.4148526133794803e-05,-5.912599226576276e-05,3.303216726635583e-05,3.8362410123227164e-05,-2.0429588403203525e-05,5.124367817188613e-05
1.2209986380185e-05,-5.460093598230742e-05,3.4179298381786793e-05,2.8786023904103786e-05,-2.5044129870366305e-05,5.721745401388034e-05
1.1319885743432678e-05,-4.921985964756459e-05,3.816847311099991e-05,2.6336871087551117e-05,-2.7678235710482113e-05,4.903045919490978e-05
1.1245188034081366e-05,-4.808812082046643e-05,3.8694335671607405e-05,3.008649218827486e-05,-2.6782381610246375e-05,3.328308594063856e-05
1.4404400644707493e-05,-4.9816433602245525e-05,3.2070427550934255e-05,3.039704643015284e-05,-2.274889629916288e-05,2.6749405151349492e-05
1.9379453078727238e-05,-5.193547622184269e-05,2.4837461751303636e-05,2.2905351215740666e-05,-2.1540314264711924e-05,3.424584792810492e-05
2.0653882529586554e-05,-5.42375237273518e-05,2.2596510461880825e-05,1.1853148862428498e-05,-2.5115816242760047e-05,4.0770206396700814e-05
1.815369978430681e-05,-5.408243305282667e-05,2.3768841856508516e-05,-1.0884212997552822e-06,-2.426707578706555e-05,3.66679705621209e-05
1.544436781841796e-05,-5.163477544556372e-05,2.717121969908476e-05,-1.1120221643068362e-05,-1.6864056306076236e-05,3.639587157522328e-05
1.6888665413716808e-05,-4.974821422365494e-05,2.9841792638762854e-05,-6.900658718222985e-06,-9.031392437464092e-06,4.7591529437340796e-05
2.0688919903477654e-05,-4.696423638961278e-05,2.923641659435816e-05,1.2091179087292403e-05,-3.862211997329723e-06,5.9721605794038624e-05
2.24839477596106e-05,-4.578263542498462e-05,2.886853508243803e-05,2.8304932129685767e-05,-2.9218090276117437e-06,6.445191684179008e-05
2.1346046196413226e-05,-4.7312143578892574e-05,2.7435038646217436e-05,3.1688603485235944e-05,-3.9684596231381875e-06,6.877174018882215e-05
2.0985828086850233e-05,-4.486816396820359e-05,2.919795224443078e-05,2.005060923693236e-05,-2.972629090436385e-06,7.147146970964968e-05
2.3940785467857495e-05,-4.315004844102077e-05,3.566843952285126e-05,3.140493390674237e-06,-2.7586488613451365e-06,6.58122226013802e-05
2.5254403226426803e-05,-4.453207293408923e-05,3.663113238872029e-05,-1.1619909855653532e-05,-5.7684455896378495e-06,5.467723894980736e-05
2.161112570320256e-05,-4.4599237298825756e-05,3.425933391554281e-05,-2.690808287297841e-05,-7.997064130904619e-06,4.436251037986949e-05
1.8805585568770766e-05,-4.2114010284421965e-05,3.4886510547949e-05,-2.9856961191399023e-05,-7.259168341988698e-06,3.92536458093673e-05
1.7868747818283737e-05,-3.909080260200426e-05,3.5308821679791436e-05,-1.3952874724054709e-05,-7.680381713726092e-06,3.948378434870392e-05
1.669564881012775e-05,-3.785494118346833e-05,3.200679202564061e-05,9.370085535920225e-06,-1.2023476301692426e-05,4.798730878974311e-05
1.6493388102389872e-05,-3.832505171885714e-05,2.6553027055342682e-05,3.6065081076230854e-05,-1.447050817660056e-05,6.131105328677222e-05
1.641764356463682e-05,-4.02477198804263e-05,2.4062057491391897e-05,6.201853102538735e-05,-1.3576020137406886e-05,7.632758934050798e-05
1.8097262000082992e-05,-4.014082514913753e-05,2.494986983947456e-05,7.917285984149203e-05,-1.1828738934127614e-05,9.165941446553916e-05
2.2592324967263266e-05,-4.0529634134145454e-05,2.688974200282246e-05,8.768025145400316e-05,-1.105334195017349e-05,0.00010789469524752349
2.6658972274162807e-05,-4.267608528607525e-05,2.851452154573053e-05,9.103497723117471e-05,-1.1581553735595662e-05,0.0001151369942817837
2.8151602236903273e-05,-4.7358098527183756e-05,2.904875327658374e-05,8.498839451931417e-05,-1.2510873602877837e-05,0.00010297357221134007
2.8809437935706228e-05,-5.1195340347476304e-05,2.7913931262446567e-05,7.099816866684705e-05,-1.449009869247675e-05,7.246238965308294e-05
3.086042488575913e-05,-4.999999873689376e-05,2.654522359080147e-05,5.945906013948843e-05,-1.6379555745515972e-05,3.7822981539648026e-05
3.4157743357354775e-05,-4.481697760638781e-05,2.860600761778187e-05,5.5803971918066964e-05,-1.557681753183715e-05,2.249992758152075e-05
3.6359353543957695e-05,-4.113046816200949e-05,3.2361298508476466e-05,5.694885476259515e-05,-1.3589931768365204e-05,2.741335083555896e-05
3.8561902329092845e-05,-4.256654210621491e-05,3.1206855055643246e-05,5.723947469959967e-05,-1.4144149645289872e-05,3.81630816264078e-05
4.110171357751824e-05,-4.6625184040749446e-05,2.7083515306003392e-05,5.293367576086894e-05,-1.6663534552208148e-05,4.5284319639904425e-05
4.252387225278653e-05,-5.0066562835127115e-05,2.6795058147399686e-05,4.833144703297876e-05,-1.7574331650394015e-05,4.436580275068991e-05
4.272912337910384e-05,-5.221033643465489e-05,2.9473998438334092e-05,5.044104909757152e-05,-1.8356862710788846e-05,3.4251061151735485e-05
4.2711366404546425e-05,-5.126168252900243e-05,3.166807800880633e-05,5.485157817020081e-05,-1.895640161819756e-05,2.776183646346908e-05
4.335889025242068e-05,-4.8480658733751625e-05,3.276198185631074e-05,5.291783236316405e-05,-1.7493934137746692e-05,3.4484630305087194e-05
4.125600753468461e-05,-4.7753124817973e-05,3.454089164733887e-05,4.743628596770577e-05,-1.9505894670146517e-05,5.0302845920668915e-05
3.5482858947943896e-05,-4.948487185174599e-05,3.564894723240286e-05,5.086775854579173e-05,-2.2988917407928966e-05,6.979221507208422e-05
3.068391379201785e-05,-4.922354855807498e-05,3.24088177876547e-05,6.0522455896716565e-05,-2.299768129887525e-05,8.731066918699071e-05
3.042958451260347e-05,-4.505959805101156e-05,2.9154965886846185e-05,6.737148942193016e-05,-1.9527607946656644e-05,8.597215492045507e-05
2.954656520159915e-05,-4.269689816283062e-05,3.118088352493942e-05,6.784896686440334e-05,-1.5480158253922127e-05,7.015369919827208e-05
3.0559553124476224e-05,-3.9942045987118036e-05,3.471501258900389e-05,6.2706480093766e-05,-1.3875202057533897e-05,5.75500052946154e-05
3.341731644468382e-05,-3.849672066280618e-05,3.5427296097623184e-05,5.240920290816575e-05,-1.3765056792180985e-05,5.894383866689168e-05
3.466810085228644e-05,-3.848179039778188e-05,3.60790581908077e-05,4.272616206435487e-05,-1.2786640581907704e-05,7.348136568907648e-05
3.618905248004012e-05,-3.981772533734329e-05,3.775777076953091e-05,3.325608486193232e-05,-9.732217222335748e-06,8.511781197739765e-05
3.747550363186747e-05,-4.172356057097204e-05,3.4271564800292253e-05,2.5846831704257056e-05,-7.440498393407324e-06,8.808982238406315e-05
4.019001789856702e-05,-4.3392232328187674e-05,2.9100208848831244e-05,1.714467362035066e-05,-7.2972957241290715e-06,8.730459376238286e-05
3.9713067963020876e-05,-4.627526504918933e-05,2.486698576831259e-05,9.814864370127907e-07,-8.993848496174905e-06,8.584473835071549e-05
3.3698834158713e-05,-5.005039929528721e-05,2.0125016817473806e-05,-1.938645073096268e-05,-1.0190311513724737e-05,7.397003355436027e-05
2.5850182282738388e-05,-5.3040203056298196e-05,1.900710049085319e-05,-4.057599289808422e-05,-7.625776106578996e-06,6.105804641265422e-05
2.232948099845089e-05,-5.334612069418654e-05,2.3264386982191354e-05,-5.282052734401077e-05,-5.5074592637538444e-06,5.5248696298804134e-05
1.9735052774194628e-05,-5.335358582669869e-05,2.9123877538950182e-05,-4.825459109270014e-05,-7.947810445330106e-06,5.058398892288096e-05
1.5054582036100328e-05,-5.5222328228410333e-05,3.1866169592831284e-05,-2.7358290026313625e-05,-1.222666378453141e-05,4.9191006837645546e-05
1.1176701264048461e-05,-5.674261410604231e-05,2.9705590350204147e-05,-2.583780997156282e-06,-1.229261852131458e-05,6.135365401860327e-05
9.327358384325635e-06,-5.5311204050667584e-05,2.5431218091398478e-05,1.5130989595490973e-05,-7.256167009472847e-06,8.616858394816518e-05
7.498731974919792e-06,-5.164006142877042e-05,2.4229428163380362e-05,2.0723446141346358e-05,-2.3166830942500383e-06,0.00010208424646407366
4.790412731381366e-06,-4.808193625649437e-05,2.6583704311633483e-05,1.4465479580394458e-05,-1.3970441159472102e-06,9.357811359222978e-05
4.018652361992281e-06,-4.748965511680581e-05,2.969843626488e-05,4.379624442663044e-06,-4.082008672412485e-06,7.291485962923616e-05
4.029175215691794e-06,-4.9818998377304524e-05,3.058097354369238e-05,4.947406523569953e-06,-7.323075806198176e-06,5.475980287883431e-05
4.555801751848776e-06,-5.1967508625239134e-05,2.91371216007974e-05,2.0105102521483786e-05,-8.825736586004496e-06,3.0025115847820416e-05
6.38068922853563e-06,-5.113727456773631e-05,2.9653383535332978e-05,3.956140426453203e-05,-8.889162927516736e-06,-4.496329893299844e-06
7.253320745803649e-06,-4.903173612547107e-05,3.265055056544952e-05,5.1010454626521096e-05,-9.129494173976127e-06,-3.3420714316889644e-05
6.4384312281617895e-06,-5.017535659135319e-05,3.401362482691184e-05,5.136238905834034e-05,-1.3185938769311178e-05,-4.5370292355073616e-05
8.656635145598557e-06,-5.765032256022096e-05,3.530063258949667e-05,4.801983232027851e-05,-2.216872962890193e-05,-3.857474075630307e-05
1.1400746188883204e-05,-6.0713380662491545e-05,3.95326605939772e-05,3.913953696610406e-05,-2.90367297566263e-05,-1.4643424947280437e-05
1.1741428352252115e-05,-5.612787208519876e-05,4.154638008913025e-05,2.849236989277415e-05,-3.46541237377096e-05,8.51015738589922e-06
9.74216527538374e-06,-5.595519542112015e-05,3.878288407577202e-05,2.8795484467991628e-05,-4.149559754296206e-05,2.283963476656936e-05
8.007373253349215e-06,-5.9537273045862094e-05,3.6235389416106045e-05,3.5649267374537885e-05,-4.042526052216999e-05,4.237658140482381e-05
9.736610991240013e-06,-5.476695514516905e-05,3.5757257137447596e-05,3.8437101466115564e-05,-2.9706339773838408e-05,7.042233482934535e-05
1.4296697372628842e-05,-4.9090871470980346e-05,3.860153810819611e-05,3.266004932811484e-05,-1.745889676385559e-05,9.81582998065278e-05
1.9239658286096528e-05,-4.8837828217074275e-05,3.777568417717703e-05,2.9781536795780994e-05,-5.713502559956396e-06,0.00012058927677571774
1.9522956790751778e-05,-4.971512680640444e-05,3.210165596101433e-05,3.6483419535215944e-05,4.509306108957389e-06,0.0001352996623609215
1.786752909538336e-05,-5.326113387127407e-05,2.906651934608817e-05,4.537930362857878e-05,1.0478683179826476e-05,0.00014213442045729607
1.6844525816850364e-05,-5.6582091929158196e-05,2.8522485081339255e-05,4.760757292388007e-05,1.392244485032279e-05,0.00014057551743462682
1.7177118934341706e-05,-5.9265035815769807e-05,2.854857848433312e-05,4.491328581934795e-05,1.7667171050561592e-05,0.00012580971815623343
1.8878126866184175e-05,-5.857617361471057e-05,2.7369913368602283e-05,3.948153243982233e-05,2.245466021122411e-05,9.954102279152721e-05
1.8332173567614518e-05,-5.494189099408686e-05,2.827790376613848e-05,2.5437617296120152e-05,2.7865527954418212e-05,7.420978363370523e-05
1.660398811509367e-05,-5.2186878747306764e-05,3.254579132772051e-05,9.150963705906179e-06,3.0746687116334215e-05,5.541671998798847e-05
1.6871719708433375e-05,-5.197235805098899e-05,3.377415850991383e-05,1.4211442476153024e-06,2.9294853447936475e-05,3.89869419450406e-05
2.009082709264476e-05,-5.2589453844120726e-05,2.9887612981838174e-05,9.61018758971477e-06,2.4511076844646595e-05,2.745321035035886e-05
2.3411877918988466e-05,-5.344486271496862e-05,2.655661228345707e-05,2.8615893825190142e-05,1.7722559277899563e-05,2.775900429696776e-05
2.3823184164939448e-05,-5.6698678235989064e-05,2.7247944672126323e-05,4.475113018997945e-05,9.551706170896068e-06,3.650272628874518e-05
2.2343087039189413e-05,-5.96684476477094e-05,2.957350261567626e-05,4.924737731926143e-05,1.6935293842834653e-06,4.4424214138416573e-05
2.3373524527414702e-05,-5.994626189931296e-05,3.177333564963192e-05,4.599745079758577e-05,-3.5070638659817632e-06,4.507778794504702e-05
2.66867737082066e-05,-5.7821649534162134e-05,3.2991392799885944e-05,4.2720184865174815e-05,-5.940931259829085e-06,4.66435267298948e-05
2.986248000524938e-05,-5.495417644851841e-05,3.3872842323035e-05,4.2385592678328976e-05,-8.952810276241507e-06,5.5655815231148154e-05
3.0367633371497504e-05,-5.290961780701764e-05,3.424863825784996e-05,4.118312062928453e-05,-1.3583356121671386e-05,6.248823046917096e-05
2.9460888981702738e-05,-5.253010749584064e-05,3.385899981367402e-05,3.762681080843322e-05,-1.8357453882345e-05,6.127401866251603e-05
3.1020044843899086e-05,-5.327534017851576e-05,3.415906394366175e-05,3.488157017272897e-05,-2.0974046492483467e-05,5.834933108417317e-05
3.411265061004087e-05,-5.454918937175535e-05,3.525542706483975e-05,3.3189833629876375e-05,-1.9689821783686057e-05,5.623150718747638e-05
3.504285996314138e-05,-5.217059515416622e-05,3.636502515291795e-05,3.5654808016261086e-05,-1.7997948816628195e-05,5.08418888784945e-05
3.201105209882371e-05,-4.893351797363721e-05,3.430275683058426e-05,3.881719021592289e-05,-1.579904528625775e-05,4.831050318898633e-05
2.9294362320797518e-05,-4.8141653678612784e-05,3.106921576545574e-05,3.968294186051935e-05,-1.326388337474782e-05,5.2730567404069006e-05
3.0277948098955676e-05,-4.7316196287283674e-05,3.044020922970958e-05,4.332026946940459e-05,-1.5244098904076964e-05,5.622371463687159e-05
3.2990141335176304e-05,-4.568660369841382e-05,3.478633880149573e-05,4.530760270426981e-05,-2.12047543755034e-05,5.592668094323017e-05
3.307814404251985e-05,-4.641433770302683e-05,3.740617466974072e-05,4.552354948827997e-05,-2.5316854589618742e-05,5.404469629866071e-05
2.9962819098727778e-05,-4.7873545554466546e-05,3.4468343073967844e-05,4.472985165193677e-05,-2.855224192899186e-05,5.1992374210385606e-05
2.750337080215104e-05,-4.694248491432518e-05,3.403833761694841e-05,4.018505205749534e-05,-3.330835170345381e-05,5.489565955940634e-05
2.628505535540171e-05,-4.9003123422153294e-05,3.5068787838099524e-05,3.2364951039198786e-05,-3.813441071542911e-05,5.8004818129120395e-05
2.461174881318584e-05,-5.17891239724122e-05,3.365051816217601e-05,2.5406223358004354e-05,-4.2515035602264106e-05,5.568415144807659e-05
2.5225688659702428e-05,-5.0888844270957634e-05,3.1079351174412295e-05,2.5538007321301848e-05,-4.800192982656881e-05,5.243334817350842e-05
2.695861076063011e-05,-4.642153362510726e-05,2.8347605621092953e-05,2.8678943635895848e-05,-5.503188003785908e-05,5.300268094288185e-05
2.559972199378535e-05,-4.384318890515715e-05,2.6719189918367192e-05,3.029372965102084e-05,-6.24931271886453e-05,5.082799179945141e-05
2.0998371837777086e-05,-4.4210759369889274e-05,2.7292775484966114e-05,2.6381079806014895e-05,-6.825578748248518e-05,4.5462820708053187e-05
1.721644184726756e-05,-4.500766590354033e-05,2.8877611839561723e-05,1.8913680833065882e-05,-7.019904296612367e-05,4.327634451328777e-05
1.7884807675727643e-05,-4.513758176472038e-05,2.9906741474405862e-05,1.4200502846506424e-05,-6.420564750442281e-05,4.5762386434944347e-05
2.039894570771139e-05,-4.6055149141466245e-05,2.896343357861042e-05,1.3466344171320088e-05,-4.941803854308091e-05,5.08034136146307e-05
1.9765564502449706e-05,-4.8806192353367805e-05,2.8994025342399254e-05,1.4862217540212441e-05,-2.8238386221346445e-05,6.0596383264055476e-05
1.6949485143413767e-05,-5.0504189857747406e-05,3.1125586247071624e-05,1.2998270904063247e-05,-1.1184563390997937e-06,7.474313315469772e-05
1.592980515852105e-05,-4.7035617171786726e-05,3.2350515539292246e-05,3.6238204756955383e-06,3.035215377167333e-05,8.679457823745906e-05
1.7992793800658546e-05,-4.071275543537922e-05,3.212282172171399e-05,-9.276129276258871e-06,5.9685902670025826e-05,9.164206858258694e-05
1.992497891478706e-05,-3.7273825000738725e-05,3.090816244366579e-05,-1.2469421562855132e-05,7.745964103378356e-05,8.888183947419748e-05
1.6422955013695173e-05,-3.852397276205011e-05,3.09997376461979e-05,-2.382211278018076e-06,7.967801502672955e-05,8.497863018419594e-05
1.0179185665037949e-05,-4.213609645375982e-05,3.490601375233382e-05,8.567722034058534e-06,6.881177250761539e-05,8.45530885271728e-05
8.745051673031412e-06,-4.3494819692568853e-05,3.809030386037193e-05,1.4072401427256409e-05,5.4126288887346163e-05,8.575344691053033e-05
1.2075369340891484e-05,-4.492527659749612e-05,3.5290835512569174e-05,1.9194800188415684e-05,4.382217593956739e-05,8.222360338550061e-05
1.3581384337157942e-05,-4.9002323066815734e-05,2.8369802748784423e-05,2.3913813492981717e-05,3.493326948955655e-05,7.34380300855264e-05
1.1838830687338486e-05,-5.394896288635209e-05,2.3606264221598394e-05,2.5481080228928477e-05,2.294605474162381e-05,6.722979742335156e-05
1.1212875506316777e-05,-5.5686010455247015e-05,2.653752380865626e-05,2.6078603696078062e-05,1.2354127647995483e-05,7.0631765993312e-05
1.3772459169558715e-05,-5.482788765220903e-05,3.398982516955584e-05,2.8771459255949594e-05,3.431943468967802e-06,7.536679913755506e-05
1.8394355720374733e-05,-5.203912587603554e-05,3.8522910472238436e-05,2.928654612333048e-05,-5.12687984155491e-06,6.907235365360975e-05
2.052845411526505e-05,-4.836867447011173e-05,3.591202403185889e-05,2.8798100174753927e-05,-1.0072851182485465e-05,5.761705688200891e-05
1.824560786189977e-05,-4.676482058130205e-05,3.401103458600119e-05,3.1125571695156395e-05,-1.4506132174574304e-05,5.717912063119002e-05
1.8625511074787937e-05,-4.463348523131572e-05,3.5782537452178076e-05,3.116386869805865e-05,-1.663002149143722e-05,5.7891873439075425e-05
2.528689037717413e-05,-4.444888691068627e-05,3.63465296686627e-05,2.9787328458041884e-05,-1.5212616744975094e-05,5.164557296666317e-05
3.0198794775060378e-05,-4.6923363697715104e-05,3.575707887648605e-05,2.9724296837230213e-05,-1.637503555684816e-05,4.8321617214241996e-05
2.92255608655978e-05,-4.814922431251034e-05,3.440205910010263e-05,3.2435815228382125e-05,-1.9513161532813683e-05,4.720923971035518e-05
2.7188483727513812e-05,-4.7543297114316374e-05,3.623117663664743e-05,3.496429417282343e-05,-2.3570268240291625e-05,5.0115409976569936e-05
2.6068786610267125e-05,-4.139179509365931e-05,4.0198316128226e-05,3.602141805458814e-05,-2.5703187930048443e-05,5.704568684450351e-05
2.7006028176401742e-05,-3.731298056663945e-05,4.245023592375219e-05,3.5086988646071404e-05,-2.56131879723398e-05,6.0903130361111835e-05
2.9190536224632524e-05,-3.940100214094855e-05,4.239737245370634e-05,3.601566641009413e-05,-2.569431126175914e-05,6.22212392045185e-05
2.8003027182421647e-05,-4.400449324748479e-05,4.249627818353474e-05,3.9562550227856264e-05,-2.621823841764126e-05,5.9297872212482616e-05
2.291816781507805e-05,-4.6432734961854294e-05,4.374201307655312e-05,3.984115755883977e-05,-2.6008665372501127e-05,5.511954441317357e-05
2.0870667867711745e-05,-4.322762106312439e-05,4.4542222894961014e-05,3.587946412153542e-05,-2.6146826712647453e-05,5.517831596080214e-05
2.2815531337982975e-05,-3.9367860154015943e-05,4.1639843402663246e-05,3.47392306139227e-05,-3.1228231819113716e-05,5.776635589427315e-05
2.3451577362720855e-05,-3.9089394704205915e-05,3.616817048168741e-05,3.906540587195195e-05,-4.232737046550028e-05,5.603238241747022e-05
2.2972255464992486e-05,-4.2496823880355805e-05,3.149141775793396e-05,4.191489642835222e-05,-5.000994497095235e-05,5.1091927161905915e-05
2.3338285245699808e-05,-4.7280133003368974e-05,2.955044874397572e-05,4.007997995358892e-05,-4.905864625470713e-05,4.8717829486122355e-05
2.4124799892888404e-05,-5.055329529568553e-05,2.9866092518204823e-05,3.8344634958775714e-05,-4.516920671449043e-05,4.8399626393802464e-05
2.4441500499960966e-05,-4.964239269611426e-05,2.8794436730095185e-05,3.998992906417698e-05,-4.1673232772154734e-05,4.9104619392892346e-05
2.27458294830285e-05,-4.733792957267724e-05,2.702327401493676e-05,3.804174411925487e-05,-3.733746780198999e-05,4.862223795498721e-05
1.895221612358e-05,-4.7665784222772345e-05,2.60143460764084e-05,3.236113116145134e-05,-3.0478078770102002e-05,4.773068576469086e-05
1.6308507838402875e-05,-5.26420735695865e-05,2.472024061717093e-05,3.2440657378174365e-05,-2.174839573854115e-05,4.651566268876195e-05
1.8449041817802936e-05,-5.6503737141611055e-05,2.1814974388689734e-05,3.8006692193448544e-05,-1.2035160580126103e-05,4.513768362812698e-05
2.362187296967022e-05,-5.5360338592436165e-05,1.981111927307211e-05,4.006860763183795e-05,-2.847150199158932e-06,4.653586438507773e-05
2.7224034056416713e-05,-5.32514532096684e-05,2.0050503735546954e-05,3.863367601297796e-05,5.0005178309220355e-06,5.5822409194661304e-05
2.6847608751268126e-05,-5.442011388367973e-05,2.3347054593614303e-05,3.5463595850160345e-05,1.0676259989850223e-05,6.467180355684832e-05
2.2800521037424915e-05,-5.3248641052050516e-05,2.7687563488143496e-05,3.736013240995817e-05,1.3145524462743197e-05,6.174786540213972e-05
2.084198422380723e-05,-4.8099573177751154e-05,3.1062150810612366e-05,4.2292253056075424e-05,1.1664199519145768e-05,5.5278065701713786e-05
1.819510907807853e-05,-4.455764064914547e-05,3.076715438510291e-05,4.0626175177749246e-05,8.338304724020418e-06,5.369022619561292e-05
1.886144673335366e-05,-4.580283348332159e-05,2.678945747902617e-05,3.3444943255744874e-05,3.6405631362868007e-06,5.481451080413535e-05
2.425870297884103e-05,-5.2711504395119846e-05,2.5368759452248923e-05,2.6323185011278838e-05,9.614318514650222e-07,5.365263859857805e-05
2.517444227123633e-05,-5.771850192104466e-05,2.728045183175709e-05,2.3919354134704918e-05,7.212284458546492e-07,4.976760828867555e-05
2.3162938305176795e-05,-5.769279596279375e-05,2.8856635253760032e-05,2.8858185032731853e-05,-2.7206228878640104e-06,4.855871884501539e-05
2.091285386995878e-05,-5.5005246395012364e-05,3.002379889949225e-05,3.8827933167340234e-05,-8.900113243726082e-06,5.5362350394716486e-05
1.9520231944625266e-05,-5.481017069541849e-05,3.148442556266673e-05,4.2520216084085405e-05,-1.605065517651383e-05,6.623318768106401e-05
1.639438960410189e-05,-5.6644614232936874e-05,3.0670205887872726e-05,3.5758919693762437e-05,-2.2249452740652487e-05,7.291509245987982e-05
1.4896450920787174e-05,-5.90021772950422e-05,2.8986280085518956e-05,2.7087773560197093e-05,-2.2874817659612745e-05,7.568052387796342e-05
1.5510060620727018e-05,-5.967824108665809e-05,2.847215364454314e-05,2.069885522359982e-05,-2.110419336531777e-05,7.615501817781478e-05
1.4449417903961148e-05,-5.5282805988099426e-05,3.086144715780392e-05,1.444293502572691e-05,-2.1769768864032812e-05,7.879501208662987e-05
1.1347292456775904e-05,-5.191875243326649e-05,3.3436492230976e-05,7.418501809297595e-06,-2.315466190339066e-05,8.573331433581188e-05
7.800565072102472e-06,-5.237942605162971e-05,3.567075327737257e-05,6.082889740355313e-06,-2.1518219000427052e-05,9.438137931283563e-05
5.9847689044545405e-06,-5.181052620173432e-05,3.724668931681663e-05,1.3618845514429267e-05,-1.76495286723366e-05,0.00010221546835964546
6.351837328111287e-06,-4.961153899785131e-05,3.609186751418747e-05,1.9095008610747755e-05,-1.447407794330502e-05,0.00010941586515400559
8.234137567342259e-06,-5.1661187171703205e-05,3.318929884699173e-05,1.2316402717260644e-05,-1.1716375411197077e-05,0.00011410681327106431
9.813729775487445e-06,-5.8714165788842365e-05,3.0736078770132735e-05,1.4576519333786564e-06,-9.022749509313144e-06,0.00010997732169926167
1.2404464541759808e-05,-6.41873266431503e-05,2.956508797069546e-05,-4.5248236801853636e-07,-8.52965604281053e-06,9.185999806504697e-05
1.6571040760027245e-05,-6.151306297397241e-05,2.8827436835854314e-05,2.1261073470668634e-06,-5.7448460211162455e-06,6.248915451578796e-05
1.884605808299966e-05,-5.410614176071249e-05,2.7658066755975597e-05,-8.556106877222192e-06,4.2362230487924535e-06,2.878399391192943e-05
2.043424865405541e-05,-4.945773252984509e-05,2.6128591343876906e-05,-3.524293060763739e-05,1.5061109479574952e-05,1.8324667507840786e-06
2.5364295652252622e-05,-4.950691800331697e-05,2.7572610633797012e-05,-5.759063787991181e-05,1.8051063307211734e-05,-1.2432174116838723e-05
2.8805327019654214e-05,-5.1393006287980825e-05,2.9486913263099268e-05,-6.0619688156293705e-05,1.1617054951784667e-05,-1.7766848031897098e-05
2.673829294508323e-05,-5.301883720676415e-05,3.223432577215135e-05,-4.2063787986990064e-05,6.8966678554716054e-06,-1.719382453302387e-05
2.3219899958348833e-05,-5.399646033765748e-05,3.3149768569273874e-05,-1.474507007515058e-05,5.306464572640834e-06,-1.3311056136444677e-05
2.483152275090106e-05,-5.523735308088362e-05,3.2403881050413474e-05,9.326753570348956e-06,1.3623700851894682e-06,-3.674862227853737e-06
2.96237449219916e-05,-5.4968983022263274e-05,3.2966821891022846e-05,2.7495885660755448e-05,-2.0627192043320974e-06,4.241327587806154e-06
3.4511536796344444e-05,-5.080861592432484e-05,3.4431166568538174e-05,4.887529939878732e-05,-1.9372469068912324e-06,7.211909633042524e-06
3.6019522667629644e-05,-4.765313497046009e-05,3.5930144804297015e-05,7.446701783919707e-05,-7.451527608282049e-07,1.5485167068618466e-06
3.551329064066522e-05,-4.833386265090667e-05,3.238583303755149e-05,9.350603068014607e-05,-1.4498893960990245e-06,-9.449624485569075e-06
3.639697752078064e-05,-4.853798236581497e-05,2.7169244276592508e-05,0.00010454216680955142,-1.494042521699157e-06,-1.6874689663382014e-06
3.701649984577671e-05,-4.5776785555062816e-05,2.8402646421454847e-05,0.00010396518337074667,-2.8367726372380275e-06,3.128011303488165e-05
3.923802069039084e-05,-4.259197157807648e-05,3.256940908613615e-05,9.630009299144149e-05,-5.177593720873119e-06,6.92421235726215e-05
4.1807077650446445e-05,-4.2188738007098436e-05,3.287445360911079e-05,8.825540135148913e-05,-8.063451787165832e-06,8.770564454607666e-05
4.092282324563712e-05,-4.463042569113895e-05,3.220002690795809e-05,8.684672502567992e-05,-1.3028539797232952e-05,8.857931970851496e-05
3.516133801895194e-05,-4.639433609554544e-05,3.3128475479315966e-05,9.445600881008431e-05,-1.5458354027941823e-05,9.051898814504966e-05
2.7545951525098644e-05,-4.647451714845374e-05,3.686168565764092e-05,0.00010151995957130566,-1.4777312571823131e-05,9.877701086224988e-05
2.253076854685787e-05,-4.6972483687568456e-05,4.1214563680114225e-05,9.824051812756807e-05,-1.2766101463057566e-05,0.00010482560901436955
2.1012252545915544e-05,-4.781825919053517e-05,4.269582495908253e-05,8.373144373763353e-05,-1.147229613707168e-05,0.00010344383917981759
2.0389970813994296e-05,-4.7033892769832164e-05,4.088703644811176e-05,6.155110168037936e-05,-1.4111316886555869e-05,8.938289829529822e-05
1.919155147334095e-05,-4.646234810934402e-05,3.77515098080039e-05,3.8469661376439035e-05,-2.166410740755964e-05,6.198221672093496e-05
1.7566067981533706e-05,-4.757910210173577e-05,3.371820639586076e-05,2.2315294700092636e-05,-2.719165240705479e-05,3.722853216459043e-05
1.6276255337288603e-05,-4.70042105007451e-05,2.9765173167106695e-05,1.5522693502134643e-05,-2.622757529024966e-05,3.409518831176683e-05
1.5966055798344314e-05,-4.574012928060256e-05,2.745608435361646e-05,1.624297146918252e-05,-2.2436559447669424e-05,4.7809386160224676e-05
1.6584281183895655e-05,-4.7661542339483276e-05,2.6039904696517624e-05,1.9360018995939754e-05,-2.035812212852761e-05,5.666528522851877e-05
1.6660489563946612e-05,-5.060711191617884e-05,2.5763894882402383e-05,2.3234941181726754e-05,-2.0958908862667158e-05,5.6561690144008026e-05
1.5269455616362393e-05,-5.04545823787339e-05,2.6734996936284006e-05,2.5445076971664093e-05,-2.1613579519907944e-05,5.7760855270316824e-05
1.5393647117889486e-05,-5.110503116156906e-05,2.8626775019802153e-05,2.0095661966479383e-05,-2.1077832570881583e-05,6.162454519653693e-05
1.7779575500753708e-05,-5.322924698702991e-05,3.173822915414348e-05,6.576733085239539e-06,-2.2225254724617116e-05,6.599912012461573e-05
1.8655538951861672e-05,-5.2031551604159176e-05,3.6967703636037186e-05,-5.869054348295322e-06,-2.6639298084774055e-05,6.650396244367585e-05
1.7532302081235684e-05,-5.0626902520889416e-05,3.861769801005721e-05,-1.1185140465386212e-05,-3.0805775168119e-05,5.971629434498027e-05
2.0203257008688524e-05,-4.918911508866586e-05,3.579177428036928e-05,-1.285883172386093e-05,-2.9393466320470907e-05,5.6042503274511546e-05
2.4772438337095082e-05,-4.857065141550265e-05,3.13836608256679e-05,-8.694518328411505e-06,-2.3542852432001382e-05,6.239685171749443e-05
2.076100281556137e-05,-4.9874335672939196e-05,2.797549677779898e-05,-5.41514168617141e-07,-1.952179809450172e-05,6.848092016298324e-05
1.279468688153429e-05,-5.035645517637022e-05,2.7872090868186206e-05,4.176086804363877e-06,-1.39024941745447e-05,7.336290582315996e-05
6.862464488222031e-06,-5.0076007028110325e-05,2.7606152798398398e-05,1.303897261095699e-05,-4.851964149565902e-06,8.151609654305503e-05
2.4547016437281854e-06,-5.049432365922257e-05,2.5290271878475323e-05,2.089955705741886e-05,8.850990411701787e-07,7.53194690332748e-05
3.9525143620267045e-06,-5.029244130128063e-05,2.3822987714083865e-05,2.007155489991419e-05,1.896359890452004e-06,5.006585342925973e-05
8.461078323307447e-06,-5.1919421821366996e-05,2.57464616879588e-05,1.3545968613470905e-05,3.1672238947066944e-06,2.5869188903016038e-05
1.0634956197463907e-05,-5.396173582994379e-05,2.701756966416724e-05,9.049349500855897e-06,6.322502940747654e-06,2.8286693122936413e-05
1.3933604350313544e-05,-5.346135003492236e-05,2.5543267838656902e-05,8.937156962929294e-06,1.0899408152909018e-05,5.307662286213599e-05
1.9025430447072722e-05,-5.311230052029714e-05,2.2508640540763736e-05,9.733578735904302e-06,1.3811372809868772e-05,8.131463982863352e-05
2.18953937292099e-05,-5.078044341644272e-05,2.2545591491507366e-05,1.2526705177151598e-05,1.476868874306092e-05,9.976562432711944e-05
2.250633406220004e-05,-4.799745147465728e-05,2.836920612026006e-05,1.6624206182314083e-05,1.3105905964039266e-05,0.00010669605399016291
2.3594579033670016e-05,-4.678247569245286e-05,3.449988435022533e-05,2.14646352105774e-05,7.158553216868313e-06,0.00010760444274637848
2.5607858333387412e-05,-4.7469966375501826e-05,3.510560418362729e-05,2.734328700171318e-05,6.839113666501362e-07,0.00010419949103379622
2.455658614053391e-05,-4.88158839289099e-05,3.214148091501556e-05,3.4110969863832e-05,-4.0165314203477465e-06,9.620021592127159e-05
1.8856986571336165e-05,-4.961084414389916e-05,3.058229049202055e-05,3.6918168916599825e-05,-7.073963843140518e-06,8.152522059390321e-05
1.4002975149196573e-05,-4.731475928565487e-05,3.0867624445818365e-05,3.8672282244078815e-05,-9.336644325230736e-06,6.325473077595234e-05
1.6639392924844287e-05,-4.3992036808049306e-05,3.1442861654795706e-05,4.35050533269532e-05,-1.2995773431612179e-05,4.4877349864691496e-05
2.374189170950558e-05,-4.4133754272479564e-05,3.18135462293867e-05,4.72137144242879e-05,-1.945396616065409e-05,3.535453288350254e-05
2.806032534863334e-05,-4.6029694203753024e-05,3.4297943784622476e-05,4.787039870279841e-05,-2.8156317057437263e-05,2.9509119485737756e-05
2.8557446057675406e-05,-4.764736877405085e-05,3.803136132773943e-05,4.753519897349179e-05,-4.170740066911094e-05,2.144321297237184e-05
2.7639804102363996e-05,-4.9246522394241765e-05,3.877352719428018e-05,4.245114905643277e-05,-5.990166755509563e-05,2.00150279852096e-05
2.7379939638194628e-05,-5.121171489008702e-05,3.634641325334087e-05,3.433821984799579e-05,-7.563077087979764e-05,3.09165807266254e-05
2.700328332139179e-05,-5.429183875094168e-05,3.543694401741959e-05,2.6798603357747197e-05,-8.661080210004002e-05,3.805318192462437e-05
2.477564339642413e-05,-5.599040014203638e-05,3.505275890347548e-05,2.0534611394396052e-05,-8.978073310572654e-05,2.2104803065303713e-05
2.266698720632121e-05,-5.434869308373891e-05,3.217386256437749e-05,1.779450940375682e-05,-8.46730763441883e-05,3.7983120364515344e-06
2.2969772544456646e-05,-5.22322952747345e-05,3.1649899028707296e-05,1.7162621588795446e-05,-7.641231059096754e-05,1.607150989002548e-05
2.2461630578618497e-05,-4.8990150389727205e-05,3.152099088765681e-05,1.5365492799901403e-05,-6.10090974078048e-05,4.519728827290237e-05
2.1073630705359392e-05,-4.7582310799043626e-05,2.8479480533860624e-05,1.5713167158537544e-05,-3.206904511898756e-05,6.020688670105301e-05
2.177316855522804e-05,-4.751011510961689e-05,2.6205185349681415e-05,2.0936262444593012e-05,7.77407331042923e-06,6.022041634423658e-05
2.2330781575874425e-05,-4.7723602619953454e-05,2.3681976017542183e-05,2.1641390048898757e-05,4.728056228486821e-05,5.363420495996252e-05
2.4257258701254614e-05,-4.9141872295876965e-05,2.0567988030961715e-05,1.542712743685115e-05,7.9048601037357e-05,5.2708302973769605e-05
2.383107494097203e-05,-5.073555075796321e-05,1.9892242562491447e-05,1.0860712791327387e-05,9.974018030334264e-05,6.604345253435895e-05
2.2228869056561962e-05,-5.4642296163365245e-05,2.1848574760952033e-05,6.060756732040318e-06,0.00010735057730926201,7.540983642684296e-05
2.2957974579185247e-05,-5.793791569885798e-05,2.6567879103822634e-05,2.5743304377101595e-06,9.963085176423192e-05,7.758700667181984e-05
2.1459678464452736e-05,-5.772721488028765e-05,3.099139212281443e-05,7.0313903961505275e-06,8.433196489932016e-05,7.858775643398985e-05
1.77562815224519e-05,-5.7392502640141174e-05,2.9289984013303183e-05,1.2733431503875181e-05,6.802041025366634e-05,7.806209032423794e-05
1.4749331057828385e-05,-5.78061408305075e-05,2.54760143434396e-05,1.7541129636811092e-05,5.060886905994266e-05,7.757357525406405e-05
1.5865478417254053e-05,-5.462860644911416e-05,2.381005288043525e-05,1.9540208086255006e-05,3.573066715034656e-05,7.920481584733352e-05
1.9681972844409756e-05,-4.9096954171545804e-05,2.6396226530778222e-05,1.1722936505975667e-05,2.558519918238744e-05,8.451400208286941e-05
2.292493445565924e-05,-4.6647674025734887e-05,3.0718041671207175e-05,4.230779211411573e-07,1.9207254808861762e-05,8.702414197614416e-05
2.2562540834769607e-05,-4.682976214098744e-05,3.223861494916491e-05,4.3553172872634605e-06,1.0777314855658915e-05,7.381103205261752e-05
2.0755294826813042e-05,-4.669824193115346e-05,3.258933065808378e-05,2.693161877687089e-05,-1.709362436486117e-06,4.612030534190126e-05
2.171517553506419e-05,-4.732829620479606e-05,3.358422327437438e-05,5.286314990371466e-05,-1.3454666259349324e-05,2.5965076929423958e-05
2.397128082520794e-05,-4.874496517004445e-05,3.4201373637188226e-05,6.883750029373914e-05,-2.0497191144386306e-05,2.652775037859101e-05
2.2114285457064398e-05,-4.9121656047645956e-05,3.360772461746819e-05,7.244813605211675e-05,-2.7246796889812686e-05,4.244295269018039e-05
1.7298809325438924e-05,-4.966018968843855e-05,3.1565563404001296e-05,6.783741991966963e-05,-3.366309101693332e-05,5.517184763448313e-05
1.685244933469221e-05,-5.1070350309601054e-05,3.105451833107509e-05,6.02081636316143e-05,-3.551155896275304e-05,5.955959568382241e-05
2.147717896150425e-05,-5.248439629212953e-05,3.3546952181495726e-05,5.4608684877166525e-05,-3.35165714204777e-05,6.248058343771845e-05
2.438181036268361e-05,-5.211464304011315e-05,3.421679502935149e-05,5.0247104809386656e-05,-3.0811093893134966e-05,6.485471385531127e-05
2.3485754354624078e-05,-5.165968832443468e-05,3.5428234696155414e-05,4.601589898811653e-05,-2.7825055440189317e-05,6.772077904315665e-05
2.057660822174512e-05,-5.2095423598075286e-05,3.618043410824612e-05,4.4585365685634315e-05,-2.6000368961831555e-05,6.823871080996469e-05
1.853061439760495e-05,-5.224398773862049e-05,3.729432501131669e-05,4.410436304169707e-05,-2.703973041207064e-05,6.276882049860433e-05
1.9654362404253334e-05,-5.153638630872592e-05,4.159881791565567e-05,4.043124499730766e-05,-2.7630127078737132e-05,6.496263085864484e-05
2.1082902094349265e-05,-4.777170761371963e-05,4.4571232137968764e-05,3.5234683309681714e-05,-2.428513835184276e-05,7.426128286169842e-05
2.1206618839642033e-05,-4.6128690883051604e-05,4.415920557221398e-05,3.1591931474395096e-05,-2.234295789094176e-05,8.11760692158714e-05
2.1099256628076546e-05,-4.732839806820266e-05,4.172053741058335e-05,2.4131537429639138e-05,-2.373074858041946e-05,8.174587128451094e-05
2.0681010937551036e-05,-4.7776600695215166e-05,3.959098467021249e-05,1.2551144209282938e-05,-2.714352922339458e-05,7.779611769365147e-05
2.1357978766900487e-05,-4.983324106433429e-05,3.97214425902348e-05,3.314273953947122e-06,-3.130011828034185e-05,7.666623423574492e-05
2.248106466140598e-05,-5.209355367696844e-05,3.8871250580996275e-05,5.447368948807707e-06,-3.138840838801116e-05,7.653202919755131e-05
2.1041636500740424e-05,-5.457404040498659e-05,3.29331451212056e-05,1.740486732160207e-05,-2.9854367312509567e-05,7.364046177826822e-05
1.8949960576719604e-05,-5.80468331463635e-05,2.8951071726623923e-05,2.818005668814294e-05,-2.9744314815616235e-05,7.23229895811528e-05
1.7837492123362608e-05,-5.8127181546296924e-05,3.152525459881872e-05,3.165967791574076e-05,-3.175751044182107e-05,7.634441135451198e-05
1.9760465875151567e-05,-5.476336446008645e-05,3.6750010622199625e-05,2.8433096304070204e-05,-3.103213384747505e-05,8.091462223092094e-05
2.4475803002133034e-05,-4.997733412892558e-05,3.887546336045489e-05,2.8064478101441637e-05,-2.7247653633821756e-05,8.305436494993046e-05
2.7948934075539e-05,-4.5634056732524186e-05,3.558026583050378e-05,2.811797457979992e-05,-2.3964717911439948e-05,7.87274184403941e-05
2.7379179300623946e-05,-4.634375000023283e-05,3.1040035537444055e-05,2.470867730153259e-05,-2.1369729438447393e-05,7.259754784172401e-05
2.634963129821699e-05,-5.092296123621054e-05,2.7447156753623858e-05,1.8879198250942864e-05,-2.0415718609001487e-05,6.86846105963923e-05
2.6786938178702258e-05,-5.5684333347016945e-05,2.6780693588079885e-05,1.8225489839096554e-05,-2.2226644432521425e-05,6.37651392025873e-05
2.7310816221870482e-05,-5.653858170262538e-05,2.786011464195326e-05,2.6033039830508642e-05,-2.3568971300846897e-05,5.992265505483374e-05
2.7648789910017513e-05,-5.5178308684844524e-05,2.87769507849589e-05,3.723880945472047e-05,-2.271500852657482e-05,6.169168773340061e-05
2.7947788112214766e-05,-5.366391997085884e-05,2.9395569072221406e-05,4.1117644286714494e-05,-2.100691017403733e-05,6.241391383809969e-05
2.7632821002043784e-05,-5.348238119040616e-05,2.9666402042494155e-05,3.2110558095155284e-05,-1.8645394447958097e-05,5.435981438495219e-05
2.526351818232797e-05,-5.62640416319482e-05,2.867224429792259e-05,2.0281677279854193e-05,-1.7845950424089096e-05,3.905985431629233e-05
2.1966983695165254e-05,-5.941724521107972e-05,2.6279214580426924e-05,1.7029942682711408e-05,-1.943774441315327e-05,1.9571663870010525e-05
2.1081394152133726e-05,-5.941401104792021e-05,2.4500339350197464e-05,2.4005741579458117e-05,-1.9122062440146692e-05,9.18064597499324e-06
2.395286901446525e-05,-5.5680382502032444e-05,2.6683466785470955e-05,3.4509135730331764e-05,-1.68998958542943e-05,2.7468038751976565e-05
2.6046183847938664e-05,-5.1442042604321614e-05,2.9791233828291297e-05,3.514192212605849e-05,-1.2508521649579052e-05,5.822957245982252e-05
2.491389386705123e-05,-4.598847226588987e-05,2.9210847060312517e-05,2.538696389819961e-05,-6.414108611352276e-06,6.988474342506379e-05
2.1209103579167277e-05,-4.13514171668794e-05,2.8512671633507125e-05,2.7713405870599672e-05,-4.955618805979611e-06,6.232973100850359e-05
1.6735613826313056e-05,-4.372571129351854e-05,2.7926842449232936e-05,4.670039561460726e-05,-7.9168739830493e-06,5.31881014467217e-05
1.3042549653619062e-05,-4.596693906933069e-05,3.0107814382063225e-05,6.586600648006424e-05,-1.166216861747671e-05,5.1467686716932803e-05
1.1687927326420322e-05,-4.289868229534477e-05,3.3960990549530834e-05,6.76043055136688e-05,-1.2384959518385585e-05,4.851798075833358e-05
1.396016978105763e-05,-4.1988932935055345e-05,3.541214391589165e-05,6.134252180345356e-05,-1.0557509995123837e-05,4.502353840507567e-05
1.8218877812614664e-05,-4.096700649824925e-05,3.766869485843927e-05,5.355856774258427e-05,-9.07417506823549e-06,4.662640640162863e-05
1.6943384252954274e-05,-4.1207884351024404e-05,3.922068208339624e-05,3.880326767102815e-05,-9.644144483900163e-06,4.88498953927774e-05
1.1547319445526227e-05,-4.183102282695472e-05,3.917501453543082e-05,2.5698855097289197e-05,-1.1363502380845603e-05,4.985150007996708e-05
1.0861423106689472e-05,-3.989436663687229e-05,3.869290594593622e-05,2.3463340767193586e-05,-1.5602654457325116e-05,5.1414044719422236e-05
1.3463690265780315e-05,-3.713913611136377e-05,3.7070854887133464e-05,3.1526586099062115e-05,-1.8799561075866222e-05,5.250820322544314e-05
1.7343356375931762e-05,-3.65625528502278e-05,3.4592532756505534e-05,4.057667320012115e-05,-1.9626251742010936e-05,5.7575660321163014e-05
2.020057218032889e-05,-3.898523937095888e-05,3.11590738419909e-05,4.3225798435742036e-05,-1.7956353985937312e-05,6.642864173045382e-05
2.1165989892324433e-05,-3.807703251368366e-05,3.061774987145327e-05,3.6478075344348326e-05,-1.338040419796016e-05,6.969861715333536e-05
2.250638499390334e-05,-3.587720129871741e-05,3.158230538247153e-05,2.7727504857466556e-05,-7.703474693698809e-06,6.343053246382624e-05
2.5140392608591355e-05,-3.7496749428100884e-05,3.012271918123588e-05,2.2207961592357606e-05,-4.1192049593519187e-07,5.4040348913986236e-05
2.755909190454986e-05,-4.1733950638445094e-05,2.790376493067015e-05,2.0178747945465147e-05,5.849026820214931e-06,4.699635610450059e-05
2.815750485751778e-05,-4.3960586481262e-05,2.8351074433885515e-05,2.0376503016450442e-05,6.141982794360956e-06,4.023503788630478e-05
2.5460600227233954e-05,-4.3984946387354285e-05,2.964847590192221e-05,2.046283771051094e-05,-3.326788146296167e-06,3.341769479447976e-05
2.1736883354606107e-05,-4.5026907173451036e-05,3.0816212529316545e-05,1.9917490135412663e-05,-1.792123839550186e-05,3.27296438626945e-05
2.0923562260577455e-05,-4.7844325308687985e-05,3.3639444154687226e-05,2.0455090634641238e-05,-3.1660358217777684e-05,4.0679427911527455e-05
2.157872950192541e-05,-4.921426443615928e-05,3.5203844163334e-05,2.0055906134075485e-05,-3.940827082260512e-05,5.064991273684427e-05
1.957843778654933e-05,-4.666261884267442e-05,3.223616295144893e-05,1.582203185535036e-05,-3.8802565541118383e-05,5.491314732353203e-05
1.7528107491671108e-05,-4.389671084936708e-05,2.9655602702405304e-05,7.304149676201632e-06,-3.097961234743707e-05,5.243127452558838e-05
1.676191641308833e-05,-4.342093598097563e-05,3.164279041811824e-05,-2.394454895693343e-06,-2.1601672415272333e-05,4.818705201614648e-05
1.4852364984108135e-05,-4.398507735459134e-05,3.4268887247890234e-05,1.5561749933112878e-06,-1.4757898497919086e-05,4.549580626189709e-05
1.6982252418529242e-05,-4.4230859202798456e-05,3.5651282814797014e-05,2.262950329168234e-05,-8.89607963472372e-06,5.034593414166011e-05
2.2869031454320066e-05,-4.342324973549694e-05,3.802815990638919e-05,4.5567510824184865e-05,-3.2600061672383163e-07,6.201678479555994e-05
2.7741802114178427e-05,-4.0735820221016183e-05,3.9151291275629774e-05,6.018907515681349e-05,6.921221029188018e-06,7.578077929792926e-05
2.9214879759820178e-05,-3.802755963988602e-05,3.501861647237092e-05,6.780314288334921e-05,9.028971362567972e-06,8.498202078044415e-05
3.0346001949510537e-05,-4.129711669520475e-05,3.104182178503834e-05,6.729068991262466e-05,9.096081157622393e-06,8.896132931113243e-05
3.0720832000952214e-05,-4.8057339881779626e-05,3.0196921215974726e-05,5.2844425226794556e-05,1.0969687536999118e-05,8.763968799030408e-05
2.907412090280559e-05,-5.188246359466575e-05,3.078210284002125e-05,3.422405643505044e-05,1.622523086552974e-05,7.555052434327081e-05
2.8052951165591367e-05,-5.455040809465572e-05,3.0412118576350622e-05,2.4368444428546354e-05,1.9247090676799417e-05,6.12023432040587e-05
2.8792426746804267e-05,-5.4699474276276305e-05,2.7915941245737486e-05,1.6899914044188336e-05,1.9893430362571962e-05,5.6300326832570136e-05
2.9123048079782166e-05,-5.1171060476917773e-05,2.561818837421015e-05,8.161747246049345e-06,2.0483847038121894e-05,5.765218156739138e-05
2.715742084546946e-05,-5.163130845176056e-05,2.4948112695710734e-05,5.804706688650185e-06,1.7289166862610728e-05,5.449789750855416e-05
2.691914232855197e-05,-5.450750541058369e-05,2.5678345991764218e-05,1.7552827557665296e-05,9.572684575687163e-06,4.938674464938231e-05
3.210243085050024e-05,-5.1890277973143384e-05,2.970046625705436e-05,3.707856376422569e-05,1.039576545736054e-06,5.43062633369118e-05
3.7074194551678374e-05,-4.5311815483728424e-05,3.590222695493139e-05,5.053312634117901e-05,-2.333907104912214e-06,6.80179800838232e-05
3.651788574643433e-05,-3.9443213609047234e-05,4.066449400852434e-05,5.223435437073931e-05,-1.165031676464423e-06,8.321605128003284e-05
3.4796354157151654e-05,-3.7117537431186065e-05,4.249895937391557e-05,4.4650514610111713e-05,-5.450013986774138e-07,9.323327685706317e-05
3.303990524727851e-05,-3.608199767768383e-05,4.2291925637982786e-05,3.327655213070102e-05,-2.5547321911290055e-06,9.223107190337032e-05
3.256638228776865e-05,-3.6788038414670154e-05,4.1086972487391904e-05,2.2288080799626186e-05,-7.125196589186089e-06,8.226775389630347e-05
3.190020288457163e-05,-4.0877468563849106e-05,3.7455280107678846e-05,1.2724583939416334e-05,-1.1246731446590275e-05,6.45647814963013e-05
2.805136318784207e-05,-4.838334280066192e-05,2.9794895453960635e-05,6.3806141952227335e-06,-1.3869221220375039e-05,4.143963087699376e-05
2.1395462681539357e-05,-5.6301454606000334e-05,2.010155913012568e-05,4.195816018182086e-06,-1.4343521797854919e-05,2.2499531041830778e-05
1.5951211025821976e-05,-5.9822312323376536e-05,1.4564155208063312e-05,3.873426067002583e-06,-1.236543266713852e-05,2.0365347154438496e-05
1.4413943063118495e-05,-5.9923200751654804e-05,1.6524540114915e-05,2.9563059342763154e-06,-1.1572648872970603e-05,3.7871941458433867e-05
1.470092774980003e-05,-5.840758967678994e-05,2.3779430193826556e-05,1.2499382364694611e-06,-1.5555340723949485e-05,6.457229756051674e-05
1.5448547856067307e-05,-5.490717012435198e-05,3.099643799941987e-05,-5.5835839702922385e-06,-1.787524888641201e-05,8.456930663669482e-05
1.625045479158871e-05,-5.167537892702967e-05,3.5334764106664807e-05,-2.4577379008405842e-05,-9.863484592642635e-06,8.812542364466935e-05
1.8549992091720924e-05,-4.9960188334807754e-05,3.3600241295062006e-05,-4.7346104111056775e-05,2.1509545149456244e-06,7.799777813488618e-05
2.182184107368812e-05,-4.91808787046466e-05,2.7562989998841658e-05,-5.7631987147033215e-05,6.185819074744359e-06,6.370097253238782e-05
2.102322832797654e-05,-5.276631054584868e-05,2.3209804567159154e-05,-4.871327109867707e-05,4.200708190182922e-06,5.006210267310962e-05
1.705731119727716e-05,-5.7386045227758586e-05,2.150028376490809e-05,-1.96794298972236e-05,1.0505744967304054e-06,3.873186869896017e-05
1.68686547112884e-05,-5.617359056486748e-05,2.55239774560323e-05,2.6244966647936963e-05,-2.1512987586902454e-06,3.9125759940361604e-05
2.0488045265665278e-05,-5.0176418881164864e-05,3.450066287769005e-05,8.068002352956682e-05,-3.09106826534844e-06,4.9256042984779924e-05
2.1924235625192523e-05,-4.9817044782685116e-05,3.837113035842776e-05,0.00012400568812154233,-5.453748144645942e-06,5.3992102039046586e-05
2.355390643060673e-05,-5.3707561164628714e-05,3.8343958294717595e-05,0.00014447129797190428,-1.4668339645140804e-05,4.969052315573208e-05
2.3754704670864157e-05,-4.973156683263369e-05,4.10918946727179e-05,0.00014292002015281469,-2.051820956694428e-05,4.821323454962112e-05
2.130939537892118e-05,-4.607413575286046e-05,4.200011244392954e-05,0.00012087404320482165,-1.838277057686355e-05,5.419829903985374e-05
2.24706091103144e-05,-5.000669989385642e-05,3.9768332499079406e-05,8.850683661876246e-05,-1.5626523236278445e-05,5.716393934562802e-05
2.283116009493824e-05,-5.331412467057817e-05,3.7238049117149785e-05,5.4749987612012774e-05,-1.6389794836868532e-05,5.528441761271097e-05
2.238961315015331e-05,-5.322450670064427e-05,3.57021126546897e-05,3.0362776669790037e-05,-1.669896300882101e-05,5.577929550781846e-05
2.1938380086794496e-05,-5.4229072702582926e-05,3.602439392125234e-05,1.558544499857817e-05,-1.2205963685119059e-05,6.0769118135795e-05
2.219192720076535e-05,-5.787685586255975e-05,3.781749910558574e-05,1.4396266124094836e-05,-8.532933861715719e-06,6.342140841297805e-05
2.32568181672832e-05,-5.9039288316853344e-05,3.734994970727712e-05,2.6430612706462853e-05,-9.807768037717324e-06,6.299145024968311e-05
2.4842576749506406e-05,-5.8740148233482614e-05,3.380209091119468e-05,4.006411836599e-05,-1.5028043890197296e-05,6.352364289341494e-05
2.6534920834819786e-05,-5.81211170356255e-05,3.0440251066465862e-05,4.46671292593237e-05,-1.5578954844386317e-05,6.184328958624974e-05
2.5361425286973827e-05,-5.589455031440593e-05,2.8295025913394056e-05,4.3827545596286654e-05,-1.3861507795809302e-05,5.407980643212795e-05
2.240358662675135e-05,-5.464379137265496e-05,2.639478407218121e-05,4.24073041358497e-05,-1.3812985343975015e-05,4.4895899918628857e-05
2.1877627659705468e-05,-5.558038901654072e-05,2.5175702830892988e-05,3.9754599129082635e-05,-1.2895147847302724e-05,4.3128642573719844e-05
2.3384309315588325e-05,-5.680839967681095e-05,2.5534149244776927e-05,3.387210745131597e-05,-9.015464456751943e-06,4.687712134909816e-05
2.2645341232419014e-05,-5.838498691446148e-05,2.7096592020825483e-05,1.6982679881039076e-05,-6.176229362608865e-06,4.979209916200489e-05
2.052507443295326e-05,-5.7643570471554995e-05,3.035403096873779e-05,-8.428353794442955e-06,-5.876531758985948e-06,5.208583388593979e-05
2.205240525654517e-05,-5.250301182968542e-05,3.417216066736728e-05,-2.664948442543391e-05,-4.1174530451826286e-06,5.543774022953585e-05
2.751845386228524e-05,-4.963935134583153e-05,3.683347313199192e-05,-2.8238831873750314e-05,-1.7482149132774794e-06,6.103835039539263e-05
3.152057252009399e-05,-4.9523958296049386e-05,3.819738049060106e-05,-1.8679911590879783e-05,-9.95833943306934e-07,7.026847015367821e-05
3.047716018045321e-05,-4.9272264732280746e-05,3.930543607566506e-05,-1.3795831819152227e-06,-4.676138360082405e-06,6.898561696289107e-05
2.4667480829521082e-05,-5.2334209613036364e-05,3.805130472755991e-05,1.4122306311037391e-05,-1.2240354408277199e-05,3.647100311354734e-05
2.048575333901681e-05,-5.703932765754871e-05,3.493147960398346e-05,2.492965359124355e-05,-1.935878572112415e-05,-9.757682164490689e-06
1.9130106011289172e-05,-5.605453043244779e-05,3.3273168810410425e-05,3.1565712561132386e-05,-1.91039071069099e-05,-2.018755185417831e-05
1.851515298767481e-05,-5.077007517684251e-05,3.320202085888013e-05,3.6231049307389185e-05,-1.2935363884025719e-05,4.219597940391395e-06
1.7845342881628312e-05,-4.913580778520554e-05,3.038894101337064e-05,3.746743459487334e-05,-1.168498147308128e-05,3.808246765402146e-05
1.719314604997635e-05,-5.257052180240862e-05,2.7786185455624945e-05,3.654095053207129e-05,-1.685558345343452e-05,6.060063242330216e-05
1.6818547010188922e-05,-5.6758908613119274e-05,2.9059770895401016e-05,3.6120931326877326e-05,-2.0954681531293318e-05,5.5839434935478494e-05
1.6269434127025306e-05,-5.916436930419877e-05,3.025839941983577e-05,3.7335368688218296e-05,-2.1898957129451446e-05,4.113798786420375e-05
1.5323068510042503e-05,-5.696664811694063e-05,3.064023985643871e-05,3.8213074731174856e-05,-2.2692089260090142e-05,3.2645904866512865e-05
1.5536592400167137e-05,-5.438430162030272e-05,3.001009827130474e-05,3.185663081239909e-05,-2.2898257157066837e-05,3.3282325603067875e-05
1.5860585335758515e-05,-5.167234849068336e-05,2.943362051155418e-05,2.3306140064960346e-05,-1.9592815078794956e-05,3.9116639527492225e-05
1.1878365512529854e-05,-4.899262421531603e-05,2.6615638489602134e-05,1.9138593415846117e-05,-1.7326347006019205e-05,5.3980067605152726e-05
7.049633040878689e-06,-4.822607297683135e-05,2.3371139832306653e-05,1.5660903954994865e-05,-1.635713670111727e-05,7.033847941784188e-05
4.981868187314831e-06,-4.673628063756041e-05,2.1582627596217208e-05,8.756902388995513e-06,-1.2845477613154799e-05,7.947629637783393e-05
3.7468862501555122e-06,-4.659338446799666e-05,2.1616622689180076e-05,5.0888952500827145e-06,-6.97839459462557e-06,7.961918890941888e-05
5.942959433014039e-06,-4.6267188736237586e-05,2.2788301066611893e-05,7.838226338208187e-06,-5.890724423807114e-06,7.671868661418557e-05
9.714511179481633e-06,-4.4262371375225484e-05,2.2247466404223815e-05,1.2803696336050052e-05,-9.989696991397068e-06,7.997219654498622e-05
1.1344812264724169e-05,-4.093221286893822e-05,2.249602766823955e-05,1.7694339476292953e-05,-1.436557613487821e-05,9.310396126238629e-05
1.2604728908627294e-05,-3.8751441024942324e-05,2.3919121304061264e-05,2.3334261641139165e-05,-1.6735510143917054e-05,0.00010700648999772966
1.4217063835531007e-05,-3.717683648574166e-05,2.6480958695174195e-05,3.307090446469374e-05,-1.86273900908418e-05,0.00010519921488594264
1.594254899828229e-05,-3.571965135051869e-05,2.9481509045581333e-05,4.86461867694743e-05,-2.0603287339326926e-05,9.189968841383234e-05
1.7355063391732983e-05,-3.5891203879145905e-05,3.2278159778798e-05,6.442632002290338e-05,-1.9278726540505886e-05,7.989025471033528e-05
1.744969813444186e-05,-3.7443958717631176e-05,3.3822376281023026e-05,7.155970524763688e-05,-1.779391459422186e-05,7.222437852760777e-05
1.7316810044576414e-05,-3.9248861867235973e-05,3.465207919362001e-05,6.619758642045781e-05,-1.6934314771788195e-05,6.452435627579689e-05
1.9080694983131252e-05,-4.26434344262816e-05,3.681133603095077e-05,4.751392043544911e-05,-1.3623854101751931e-05,6.100544851506129e-05
2.2430260287364945e-05,-4.6758745156694204e-05,3.857638148474507e-05,2.2460742911789566e-05,-9.696464985609055e-06,6.116864824434742e-05
2.377703094680328e-05,-4.900472777080722e-05,3.7691450415877625e-05,6.851909802207956e-06,-9.538135600450914e-06,6.205462705111131e-05
2.2320022253552452e-05,-4.9941438192036e-05,3.4829750802600756e-05,1.0437739547342062e-05,-1.4129047485766932e-05,6.903085159137845e-05
2.125589526258409e-05,-4.89135600219015e-05,3.3569471270311624e-05,2.4188657334889285e-05,-1.830803921620827e-05,8.39486310724169e-05
2.0759267499670386e-05,-4.7646219172747806e-05,3.296860813861713e-05,3.316713991807774e-05,-2.019622661464382e-05,9.464773756917566e-05
2.1165873477002606e-05,-4.956147677148692e-05,3.347800156916492e-05,3.7034827983006835e-05,-2.4149245291482657e-05,9.998271707445383e-05
2.142756784451194e-05,-5.64363035664428e-05,3.4253163903485984e-05,3.975295476266183e-05,-2.9978829843457788e-05,9.58288655965589e-05
2.2356703993864357e-05,-5.871435132576153e-05,3.031113010365516e-05,4.1220780985895544e-05,-3.1860738090472296e-05,8.787489787209779e-05
2.496834349585697e-05,-5.305553349899128e-05,2.8573780582519248e-05,4.422582424012944e-05,-2.408689761068672e-05,8.6055020801723e-05
2.8554442906170152e-05,-4.908015034743585e-05,3.0148397854645737e-05,4.662984065362252e-05,-1.4907917829987127e-05,7.720828580204397e-05
3.180465137120336e-05,-5.017020885134116e-05,3.2116709917318076e-05,4.210632323520258e-05,-6.079724244045792e-06,5.447951116366312e-05
3.45772277796641e-05,-5.2240327931940556e-05,3.3363732654834166e-05,3.2521653338335454e-05,1.8154393046643236e-06,3.500260936561972e-05
3.823496081167832e-05,-5.183494067750871e-05,3.5554159694584087e-05,2.346958535781596e-05,4.042431555717485e-06,3.6102817830396816e-05
3.8747122744098306e-05,-5.061997217126191e-05,3.660537913674489e-05,1.7195805412484333e-05,1.647159024287248e-06,4.608580638887361e-05
3.4858199796872213e-05,-5.180085645406507e-05,3.4216398489661515e-05,1.1662400538625661e-05,-1.886089535219071e-06,5.3148032748140395e-05
3.2077856303658336e-05,-5.239946403889917e-05,3.44460058840923e-05,1.1394889952498488e-05,-9.286385704854183e-08,5.794002572656609e-05
3.0446930395555682e-05,-5.031703403801657e-05,3.597763497964479e-05,2.0691064491984434e-05,4.636200628738152e-06,6.695668707834557e-05
2.7493411835166626e-05,-4.8675912694307044e-05,3.628518243203871e-05,3.3687858376652e-05,7.2865050242398866e-06,7.604252459714189e-05
2.448788109177258e-05,-4.8166693886741996e-05,3.61943784810137e-05,3.962490882258862e-05,8.458338925265707e-06,7.842823106329888e-05
2.5347559130750597e-05,-4.682585131376982e-05,3.574249058146961e-05,3.5874618333764374e-05,1.1261501640547067e-05,7.723044109297916e-05
2.771686195046641e-05,-4.58773756690789e-05,3.26130393659696e-05,2.7280495487502776e-05,1.1944008292630315e-05,7.455097511410713e-05
2.7887346732313745e-05,-4.803941919817589e-05,2.9211571018095128e-05,2.118908378179185e-05,9.58432337938575e-06,6.765986472601071e-05
2.6801430067280307e-05,-5.110150596010499e-05,2.630709423101507e-05,2.0900866729789414e-05,6.5431822804384865e-06,5.8095094573218375e-05
2.7105663320980966e-05,-5.268257518764585e-05,2.1770776584162377e-05,2.0104322175029665e-05,2.1924630289049674e-07,4.8481470003025606e-05
2.8114247470512055e-05,-5.195842823013663e-05,1.738236824166961e-05,1.5563697161269374e-05,-9.324172424385324e-06,4.407147571328096e-05
2.660891732375603e-05,-4.938575148116797e-05,1.7654972907621413e-05,1.1564353371795733e-05,-1.388378586852923e-05,4.670106136472896e-05
2.4085386030492373e-05,-4.715736213256605e-05,2.1187490347074345e-05,8.174758477252908e-06,-1.1808703675342258e-05,4.827116572414525e-05
2.1218576875980943e-05,-4.7872657887637615e-05,2.4100956579786725e-05,3.4461597806512145e-06,-1.2467552551242989e-05,4.34360554208979e-05
1.6700380001566373e-05,-5.059501563664526e-05,2.2824226107331924e-05,-3.9689055597591505e-07,-1.5314071788452566e-05,3.4878648875746876e-05
1.3624668099510018e-05,-5.1044331485172734e-05,1.9524904928402975e-05,-3.417407469896716e-06,-1.4911790458427276e-05,3.356611341587268e-05
1.3083889825793449e-05,-4.813979467144236e-05,1.8976055798702873e-05,-2.1367513909353875e-06,-1.2622283065866213e-05,3.7929996324237436e-05
1.1715687833202537e-05,-4.6485358325298876e-05,2.108549961121753e-05,8.742713362153154e-06,-9.575413969287183e-06,3.806645327131264e-05
1.0531206498853862e-05,-4.525273106992245e-05,2.3700646124780178e-05,2.58679374383064e-05,-4.252077360433759e-06,3.93789196095895e-05
1.3172296348784585e-05,-4.5617820433108136e-05,2.7105037588626146e-05,4.267684562364593e-05,1.0843288009709795e-06,4.5026132283965126e-05
1.7857249986263923e-05,-4.7409175749635324e-05,3.0375862479559146e-05,5.060993498773314e-05,-1.4719398677698337e-06,5.331321153789759e-05
2.006471186177805e-05,-4.722662561107427e-05,2.925547414633911e-05,5.025489008403383e-05,-8.279926987597719e-06,6.034731995896436e-05
1.9116519979434088e-05,-4.8182067985180765e-05,2.6880177756538615e-05,4.713566886493936e-05,-7.194464615167817e-06,6.221163494046777e-05
1.7163250959129073e-05,-4.935066681355238e-05,2.6472114768694155e-05,4.184472345514223e-05,-1.5808891475899145e-06,6.252928142203018e-05
1.8204213120043278e-05,-4.8590089136268944e-05,2.8433867555577308e-05,3.7648707802873105e-05,-3.982274847658118e-07,5.905153739149682e-05
1.822789818106685e-05,-4.715664545074105e-05,3.092857150477357e-05,3.081826071138494e-05,-2.4054509140114533e-06,5.707690434064716e-05
1.8102065951097757e-05,-4.813732084585354e-05,3.11469157168176e-05,1.9986096958746202e-05,-4.727626674139174e-06,5.803100430057384e-05
1.9578368664951995e-05,-5.0329250370850787e-05,3.224647662136704e-05,1.7602311345399357e-05,-7.865697625675239e-06,5.699985194951296e-05
2.1683033992303535e-05,-5.411683378042653e-05,3.3381573302904144e-05,3.395571548026055e-05,-1.0626963558024727e-05,5.115130261401646e-05
2.1080391888972372e-05,-5.815593613078818e-05,3.1302661227528006e-05,5.574873648583889e-05,-1.2533693734440021e-05,4.497758345678449e-05
1.884854464151431e-05,-5.872247493243776e-05,3.160190681228414e-05,6.973923154873773e-05,-1.3586606655735523e-05,4.263814116711728e-05
1.884474841062911e-05,-5.677490116795525e-05,3.517532968544401e-05,6.583701906492934e-05,-1.3006359040446114e-05,4.675805030274205e-05
1.9248514945502393e-05,-5.4969805205473676e-05,3.651177030405961e-05,4.3641786760417745e-05,-9.194331141770817e-06,5.73882571188733e-05
1.7550832126289606e-05,-5.352394509827718e-05,3.4633274481166154e-05,1.7792746803024784e-05,-5.123691607877845e-06,6.65706756990403e-05
1.4204177205101587e-05,-5.192579556023702e-05,3.402084985282272e-05,6.457687049987726e-06,-4.202625859761611e-06,6.816071254434064e-05
1.2597554814419709e-05,-4.9358241085428745e-05,3.646584082162008e-05,1.5433228327310644e-05,-5.697910637536552e-06,6.45281543256715e-05
1.2251270163687877e-05,-4.663094659917988e-05,3.918652146239765e-05,3.1902971386443824e-05,-5.634128228848567e-06,6.265752745093778e-05
1.3536561709770467e-05,-4.714484020951204e-05,3.910531086148694e-05,4.1920622606994584e-05,-2.6217239792458713e-06,6.230801955098286e-05
1.4935951185179874e-05,-4.989091394236311e-05,3.6822661058977246e-05,4.096025804756209e-05,-3.0794144549872726e-06,5.865488856215961e-05
1.329031783825485e-05,-5.227817382547073e-05,3.578326140996069e-05,3.730195385287516e-05,-9.142904673353769e-06,5.066395169706084e-05
9.17051420401549e-06,-5.2932653488824144e-05,3.4766908356687054e-05,3.295533679192886e-05,-1.7091873814933933e-05,4.2550964280962944e-05
7.213403478090186e-06,-5.12703372805845e-05,3.053152249776758e-05,2.9363318390096538e-05,-2.7043965019402094e-05,4.234549487591721e-05
6.0928000493731815e-06,-4.942802479490638e-05,2.6815221644937992e-05,3.083081901422702e-05,-3.789421680266969e-05,4.5667671656701714e-05
5.91834668739466e-06,-4.976198761141859e-05,2.7935153411817737e-05,3.361329436302185e-05,-4.672188151744194e-05,4.5797987695550546e-05
8.248372978414409e-06,-4.8334291932405904e-05,3.116967491223477e-05,3.6106648622080684e-05,-5.296252857078798e-05,5.28511154698208e-05
1.0385381756350398e-05,-4.834990977542475e-05,3.3136708225356415e-05,3.638154157670215e-05,-5.9968155255774036e-05,5.633034015772864e-05
1.0427385859657079e-05,-5.354428503778763e-05,3.532492701197043e-05,3.0361412427737378e-05,-7.062495569698513e-05,5.32404264959041e-05
1.2045286894135643e-05,-5.669020538334735e-05,3.6911787901772186e-05,3.222648228984326e-05,-7.584556442452595e-05,5.260207399260253e-05
1.6123954992508516e-05,-5.4277959861792624e-05,3.768787064473145e-05,3.715625643962994e-05,-7.200867548817769e-05,4.933780655846931e-05
1.5747269571875222e-05,-5.217734360485338e-05,3.602596916607581e-05,3.068110527237877e-05,-6.135268631624058e-05,3.889479557983577e-05
1.2306808457651641e-05,-5.282798520056531e-05,3.3175823773490265e-05,2.2629588784184307e-05,-4.2990017391275615e-05,3.200456194463186e-05
1.3166186363378074e-05,-5.237236473476514e-05,3.4639979276107624e-05,2.289873009431176e-05,-1.597878690517973e-05,3.9775313780410215e-05
1.9490646081976593e-05,-5.1259983592899516e-05,3.712567195179872e-05,2.5473696950939484e-05,1.6444915672764182e-05,5.657293877447955e-05
2.9576796805486083e-05,-5.126223913975991e-05,3.844646562356502e-05,2.742775723163504e-05,4.3477906729094684e-05,6.56428310321644e-05
3.592104258132167e-05,-5.055236033513211e-05,3.6958110285922885e-05,2.7564814445213415e-05,5.8452540542930365e-05,6.333922647172585e-05
3.5677723644766957e-05,-4.919557613902725e-05,3.429078060435131e-05,2.0874605979770422e-05,6.215083703864366e-05,6.331718032015488e-05
3.381650094524957e-05,-4.8680063628125936e-05,3.160488995490596e-05,1.3060572200629395e-05,5.808108835481107e-05,6.853395461803302e-05
3.39058278768789e-05,-4.8842695832718164e-05,3.1498679163632914e-05,1.5421446732943878e-05,4.982519749319181e-05,7.054393063299358e-05
3.4610769944265485e-05,-4.99775014759507e-05,3.50761620211415e-05,3.605475285439752e-05,4.082330269739032e-05,7.08390653016977e-05
3.24572465615347e-05,-4.9983817007159814e-05,3.8381283957278356e-05,6.41808655927889e-05,3.2340783945983276e-05,7.661959534743801e-05
2.9389193514361978e-05,-4.703394370153546e-05,3.944239506381564e-05,8.234785491367802e-05,2.445063364575617e-05,8.199534204322845e-05
2.8747368560289033e-05,-4.5970977225806564e-05,3.756598016479984e-05,8.546309254597872e-05,1.5489151337533258e-05,7.98238324932754e-05
2.9699032893404365e-05,-4.998477015760727e-05,3.4716744266916066e-05,8.02631548140198e-05,6.453721198340645e-06,7.12647961336188e-05
3.0579405574826524e-05,-5.3724987083114684e-05,3.0906216125003994e-05,6.851796206319705e-05,3.969151123328629e-07,6.353568460326642e-05
2.988602500408888e-05,-5.312083521857858e-05,2.781587500066962e-05,5.1630500820465386e-05,-3.535938958521001e-06,5.7901255786418915e-05
2.5814537366386503e-05,-5.216679710429162e-05,2.6937164875562303e-05,3.31605042447336e-05,-7.048242878227029e-06,5.091499406262301e-05
2.0746725567732938e-05,-5.2767645684070885e-05,2.529322046029847e-05,1.1436071872594766e-05,-9.913806934491731e-06,4.7419769543921575e-05
1.8059416106552817e-05,-5.2960011089453474e-05,2.0776738892891444e-05,-7.343477591348346e-06,-8.370117939193733e-06,5.749073898186907e-05
1.9102590158581734e-05,-5.2482526371022686e-05,2.0761392079293728e-05,-1.3423055861494504e-05,-4.13261795983999e-06,7.07495491951704e-05
2.598691025923472e-05,-5.093524669064209e-05,2.6101793991983868e-05,-3.73089005734073e-06,-4.128658474655822e-06,7.125472620828077e-05
3.28807182086166e-05,-4.9453083192929626e-05,3.016902701347135e-05,1.57061167556094e-05,-1.0635032595018856e-05,6.16007309872657e-05
3.0351089662872255e-05,-4.95597705594264e-05,3.2000276405597106e-05,2.9118355087121017e-05,-1.9344870452187024e-05,5.2802784921368584e-05
2.1979947632644325e-05,-4.9477024731459096e-05,3.366975215612911e-05,3.3641357731539756e-05,-2.5197556169587187e-05,5.574553506448865e-05
1.7001866581267677e-05,-4.493125743465498e-05,3.5541226679924875e-05,3.930434468202293e-05,-3.180695421178825e-05,6.84773112880066e-05
1.7211601516464725e-05,-3.991598714492284e-05,3.39629223162774e-05,4.1042014345293865e-05,-3.8184869481483474e-05,7.810001989128068e-05
1.6788502762210555e-05,-4.0853079553926364e-05,3.0917071853764355e-05,3.2004667446017265e-05,-3.714593549375422e-05,8.186810737242922e-05
1.4497773918265011e-05,-4.434877700987272e-05,2.8414926418918185e-05,2.5108745830948465e-05,-3.116449806839228e-05,8.156053081620485e-05
1.4709943570778705e-05,-4.6826404286548495e-05,2.793656130961608e-05,2.462701922922861e-05,-2.683335515030194e-05,7.838184683350846e-05
1.9777198758674785e-05,-4.8823418183019385e-05,2.7666565074468963e-05,2.182796197303105e-05,-2.523937655496411e-05,7.223763532238081e-05
2.485573168087285e-05,-4.9197926273336634e-05,2.742579090408981e-05,1.504942792962538e-05,-2.363647217862308e-05,6.662624946329743e-05
3.034511610167101e-05,-4.573986370814964e-05,3.105552605120465e-05,1.1190783880010713e-05,-1.9938672267016955e-05,6.784926517866552e-05
3.3788564905989915e-05,-4.054228702443652e-05,3.6277771869208664e-05,1.0918915904767346e-05,-1.465837522118818e-05,6.910666706971824e-05
3.281481622252613e-05,-4.045581954414956e-05,3.8410933484556153e-05,3.6688722957478603e-06,-1.0036854291683994e-05,6.389060581568629e-05
3.096258660661988e-05,-4.520030051935464e-05,3.2882526284083724e-05,-8.616737432021182e-06,-6.130151632532943e-06,5.8271747548133135e-05
3.0378962037502788e-05,-4.698831253335811e-05,2.6234774850308895e-05,-1.713676465442404e-05,-5.223388143349439e-06,5.508351750904694e-05
2.8470765755628236e-05,-4.534968320513144e-05,2.4641518393764272e-05,-1.7800035493564792e-05,-9.06616151041817e-06,5.232884723227471e-05
2.5585206458345056e-05,-4.5363874960457906e-05,2.832976679201238e-05,-1.9456214431556873e-05,-1.4406468835659325e-05,5.380998118198477e-05
2.3876107661635615e-05,-4.6637967898277566e-05,3.436207407503389e-05,-2.7806474463432096e-05,-1.3800426131638233e-05,5.692279592039995e-05
2.1129570086486638e-05,-4.783406257047318e-05,3.733497578650713e-05,-3.0991661333246157e-05,-8.779762538324576e-06,5.5043085012584925e-05
1.7217365893884562e-05,-5.18051310791634e-05,3.413732338231057e-05,-1.76901576196542e-05,-8.60606633068528e-06,4.7512236051261425e-05
1.3156890418031253e-05,-5.62414679734502e-05,2.8934195142937824e-05,4.700797489931574e-06,-1.591908403497655e-05,3.9297243347391486e-05
1.0122506864718162e-05,-5.5896638514241204e-05,2.8755448511219583e-05,2.585332367743831e-05,-2.4274633688037284e-05,3.7017489376012236e-05
9.753446647664532e-06,-5.2292078180471435e-05,3.1252326152753085e-05,4.3109841499244794e-05,-2.5856372303678654e-05,4.28051280323416e-05
1.3104170648148283e-05,-5.087135286885314e-05,3.2790194381959736e-05,5.4480475228047e-05,-2.029613096965477e-05,5.018417868996039e-05
1.432686531188665e-05,-5.278743992676027e-05,3.4849668736569583e-05,6.332638440653682e-05,-1.3894552466808818e-05,5.168378265807405e-05
1.5271574739017524e-05,-5.413203325588256e-05,3.3300089853582904e-05,7.055930473143235e-05,-1.4130080671748146e-05,5.1826031267410144e-05
1.9335442630108446e-05,-5.4751861171098426e-05,2.9551645639003254e-05,7.160148379625753e-05,-1.6253939975285903e-05,5.334380693966523e-05
2.5126122636720538e-05,-5.749721094616689e-05,3.3654967410257086e-05,6.9813548179809e-05,-1.4285597899288405e-05,4.885376984020695e-05
2.90231873805169e-05,-5.836286800331436e-05,3.719294909387827e-05,6.737650255672634e-05,-1.1332558642607182e-05,4.470795101951808e-05
2.8118722184444778e-05,-5.5023283493937925e-05,3.482804095256142e-05,6.038554056431167e-05,-1.1181270565430168e-05,4.990391607861966e-05
2.3622465960215777e-05,-5.187472197576426e-05,2.976853102154564e-05,5.3188250603852794e-05,-1.3037641110713594e-05,5.9968180721625686e-05
1.890472231025342e-05,-5.127075201016851e-05,2.7069703719462268e-05,4.8144516767933965e-05,-1.2595639418577775e-05,5.812358722323552e-05
1.559892734803725e-05,-5.251344555290416e-05,3.0023267754586414e-05,3.9208356611197814e-05,-1.0427253982925322e-05,4.613148485077545e-05
1.8256001567351632e-05,-5.149406206328422e-05,3.53464565705508e-05,2.4893428417271934e-05,-5.610304469882976e-06,3.916472996934317e-05
2.466151272528805e-05,-4.959052239428274e-05,3.917773938155733e-05,7.550474492745707e-06,2.430287622701144e-06,3.9837832446210086e-05
2.7564728952711448e-05,-4.821771290153265e-05,3.743879642570391e-05,1.2966307849637815e-06,7.056405593175441e-06,4.612714474205859e-05
2.6286865249858238e-05,-4.505742253968492e-05,3.195407407474704e-05,1.2615932973858435e-05,4.102075763512403e-06,5.490423063747585e-05
2.5550343707436696e-05,-4.110671579837799e-05,2.8964590455871075e-05,2.750756721070502e-05,-1.7855564919955214e-06,6.942336040083319e-05
2.8673068300122395e-05,-3.744914647541009e-05,3.166589158354327e-05,4.01012075599283e-05,-6.985902928136056e-06,8.819105278234929e-05
2.9061075110803358e-05,-3.833260780083947e-05,3.214225216652267e-05,4.2653900891309604e-05,-1.0589218618406449e-05,0.00010056317114504054
2.4903103621909395e-05,-4.479814015212469e-05,2.8927368475706317e-05,3.738588566193357e-05,-1.1878711120516527e-05,9.12643808987923e-05
1.9986135157523677e-05,-5.079826223663986e-05,2.7546664568944834e-05,2.748934093688149e-05,-1.1828323295048904e-05,7.428934623021632e-05
1.978942054847721e-05,-5.173886165721342e-05,2.9288195946719497e-05,1.822677040763665e-05,-1.2264425095054321e-05,6.8824396294076e-05
2.351370858377777e-05,-4.9199665227206424e-05,3.165585803799331e-05,1.5095820344868116e-05,-1.4291009392763954e-05,6.97918949299492e-05
2.8148284400231205e-05,-4.638842437998392e-05,3.2248517527477816e-05,1.4582891708414536e-05,-1.4842791642877273e-05,6.169397966004908e-05
3.0525654437951744e-05,-4.499962960835546e-05,3.155611193506047e-05,1.2214632079121657e-05,-1.7956062947632745e-05,4.1638017137302086e-05
2.9853967134840786e-05,-4.4970754970563576e-05,3.168443072354421e-05,1.2669858733715955e-05,-2.3794771550456062e-05,1.851470187830273e-05
2.786753793770913e-05,-4.4993670599069446e-05,3.3594275009818375e-05,1.9092545699095353e-05,-2.645264976308681e-05,1.7394235385381762e-07
2.5448627638979815e-05,-4.526304837781936e-05,3.514367563184351e-05,2.4600121832918376e-05,-2.56615621765377e-05,-3.4385573144390946e-07
2.3377177058137022e-05,-4.628062742995098e-05,3.674296021927148e-05,2.556977233325597e-05,-2.798658169922419e-05,1.7372962247463875e-05
2.2434733182308264e-05,-4.714052192866802e-05,3.672543243737891e-05,2.0848548956564628e-05,-3.713052501552738e-05,4.529966099653393e-05
2.2228747184271924e-05,-4.623932545655407e-05,3.290117820142768e-05,1.9885224901372567e-05,-4.81648494314868e-05,7.707966869929805e-05
2.1168531020521186e-05,-4.455711314221844e-05,2.8397536880220287e-05,2.40072713495465e-05,-4.996855932404287e-05,0.00010368224320700392
2.2729091142537072e-05,-4.69964106741827e-05,2.655659591255244e-05,2.5022667614393868e-05,-4.359478407423012e-05,0.00011182372691109776
2.5955163437174633e-05,-5.2099228923907503e-05,2.6488607545616105e-05,2.5090144845307805e-05,-3.836074029095471e-05,0.00010181752440985292
2.616746314743068e-05,-5.223938569542952e-05,2.6738496671896428e-05,2.8982687581446953e-05,-3.5767363442573696e-05,9.208341361954808e-05
2.7133763069286942e-05,-4.7177069063764066e-05,2.9141801860532723e-05,3.1258081435225904e-05,-3.3870262996060774e-05,9.813729411689565e-05
3.0733477615285665e-05,-4.3066494981758296e-05,3.303764606243931e-05,3.062289033550769e-05,-3.0440351110883057e-05,0.00011447680299170315
3.073767220485024e-05,-4.316029298934154e-05,3.119273969787173e-05,3.130643381155096e-05,-2.5320607164758258e-05,0.000120277822134085
2.6411367798573337e-05,-4.288613490643911e-05,2.7706575565389358e-05,2.721677446970716e-05,-1.7642671082285233e-05,0.00010976078920066357
1.9252462152508087e-05,-4.348902075435035e-05,2.9126455046935007e-05,2.0256664356566034e-05,-7.859892320993822e-06,9.80110780801624e-05
1.5933163012959994e-05,-4.76649911433924e-05,3.2364026992581785e-05,1.7545013179187663e-05,4.718201580544701e-06,7.114824984455481e-05
2.0855641196249053e-05,-5.1653380069183186e-05,3.41295926773455e-05,1.5371957488241605e-05,1.6720834537409246e-05,1.717801933409646e-05
2.677641350601334e-05,-5.419429362518713e-05,3.348449172335677e-05,1.5179852198343724e-05,2.690133624128066e-05,-4.498218549997546e-05
2.6736413929029368e-05,-5.3871990530751646e-05,3.366534656379372e-05,1.2077466635673773e-05,3.720281893038191e-05,-9.843744919635355e-05
2.4283026505145244e-05,-5.269238681648858e-05,3.5960678360424936e-05,1.4994129742262885e-06,4.633664866560139e-05,-0.00012626273382920772
2.3143920770962723e-05,-5.239232996245846e-05,3.718413063324988e-05,-7.71382747188909e-06,4.9248010327573866e-05,-0.00011154754611197859
2.2959806301514618e-05,-5.1986044127261266e-05,3.628334525274113e-05,1.266375647901441e-06,4.494266977417283e-05,-5.5790671467548236e-05
2.270337972731795e-05,-5.085036173113622e-05,3.665535768959671e-05,2.6763340429170057e-05,3.7789472116855904e-05,3.966810254496522e-06
2.2098436602391303e-05,-4.9194008170161396e-05,3.756011574296281e-05,5.771440191892907e-05,3.181982901878655e-05,3.823443330475129e-05
2.339591992495116e-05,-4.850667392020114e-05,3.705518611241132e-05,8.726518717594445e-05,2.6087152946274728e-05,5.1735965826082975e-05
2.58904074144084e-05,-4.9488033255329356e-05,3.4958644391736016e-05,0.000103753998700995,1.956014966708608e-05,6.0064387071179226e-05
2.766112629615236e-05,-5.182282257010229e-05,3.321127951494418e-05,0.00010053840378532186,1.3813377336191479e-05,6.895597471157089e-05
2.7850284823216498e-05,-5.341341602616012e-05,3.3978176361415535e-05,9.022771700983867e-05,7.667648787901271e-06,7.795411511324346e-05
2.7340844098944217e-05,-5.2375988161657006e-05,3.813183502643369e-05,9.044440957950428e-05,-7.655457068267424e-08,8.664008055347949e-05
2.4818644305923954e-05,-5.0920425564982e-05,4.2531075450824574e-05,0.00010115286568179727,-7.010067747614812e-06,9.276156197302043e-05
2.1282874513417482e-05,-5.180165317142382e-05,4.349747177911922e-05,0.00010958070924971253,-1.1191175872227177e-05,9.379921539220959e-05
2.072368806693703e-05,-5.300682096276432e-05,4.0865987102733925e-05,0.0001024859375320375,-1.5717174392193556e-05,8.996316319098696e-05
2.0750669136759825e-05,-5.213187978370115e-05,3.74545888917055e-05,8.221606549341232e-05,-2.0772631614818238e-05,8.509201143169776e-05
1.817522570490837e-05,-5.2226430852897465e-05,3.3417196391383186e-05,6.449760257964954e-05,-2.462567135808058e-05,8.042193803703412e-05
1.5572311895084567e-05,-5.581651203101501e-05,2.813998617057223e-05,5.0705937610473484e-05,-2.6963580239680596e-05,7.311791705433279e-05
1.319940565736033e-05,-5.8425033785169944e-05,2.4284421670017764e-05,3.6047014873474836e-05,-2.988114647450857e-05,6.620831118198112e-05
1.2540285752038471e-05,-5.6129367294488475e-05,2.515346568543464e-05,3.4606604458531365e-05,-3.038963404833339e-05,7.268486660905182e-05
1.512854578322731e-05,-5.1639672165038064e-05,3.1119354389375076e-05,3.6416397051652893e-05,-2.445335303491447e-05,8.389494178118184e-05
1.714140125841368e-05,-5.428134318208322e-05,3.480302984826267e-05,3.205826578778215e-05,-2.014375786529854e-05,7.309248030651361e-05
1.4895575077389367e-05,-6.151677371235564e-05,3.2513871701667085e-05,2.372290146013256e-05,-2.1525693227886222e-05,4.4859323679702356e-05
8.821842129691504e-06,-5.915785732213408e-05,2.5098752303165384e-05,8.698321835254319e-06,-2.200551716668997e-05,2.7450909328763373e-05
4.220848950353684e-06,-5.285909355734475e-05,1.8242610167362727e-05,-5.419135959527921e-06,-2.319978375453502e-05,3.0241992135415785e-05
5.639353275910253e-06,-5.15059036843013e-05,1.5690235159127042e-05,-8.44875739858253e-06,-3.246033884352073e-05,3.4577609767438844e-05
8.018891094252467e-06,-5.1341718062758446e-05,1.7577924154466018e-05,5.511636800292763e-07,-4.342846659710631e-05,2.9279028240125626e-05
9.676485206000507e-06,-5.293868889566511e-05,2.3131273337639868e-05,1.0642458619258832e-05,-4.5295175368664786e-05,2.330470670131035e-05
1.0370627023803536e-05,-5.4490250477101654e-05,2.8404856493580155e-05,1.4950956938264426e-05,-4.2698542529251426e-05,2.4475386453559622e-05
9.297886208514683e-06,-5.263167622615583e-05,3.0732302548130974e-05,1.0669659786799457e-05,-4.020345659228042e-05,3.462105814833194e-05
9.541799954604357e-06,-5.1656759751494974e-05,3.065819328185171e-05,3.491753659545793e-06,-3.244923573220149e-05,4.4469030399341136e-05
9.861247235676274e-06,-5.2849816711386666e-05,3.25255750794895e-05,-3.1187812510324875e-07,-2.112296897394117e-05,6.0033929912606254e-05
9.781277185538784e-06,-5.248257002676837e-05,3.504406049614772e-05,1.7563554592925357e-06,-1.0586167263682e-05,8.627177157904953e-05
1.1266329238424078e-05,-5.090886770631187e-05,3.2768642995506525e-05,6.784644938306883e-06,-2.1253358681860846e-06,0.0001071410151780583
1.734861325530801e-05,-4.971088856109418e-05,2.891605436161626e-05,1.2384000001475215e-05,4.025901034765411e-06,0.00011324448860250413
2.5248878955608234e-05,-4.921783693134785e-05,3.05002395180054e-05,1.7720114556141198e-05,8.710590918781236e-06,0.00011242485925322399
3.00786123261787e-05,-4.888667172053829e-05,3.792374627664685e-05,2.0639310605474748e-05,1.3179894267523196e-05,0.00011236855061724782
3.011772241734434e-05,-4.902982254861854e-05,4.163339690421708e-05,1.9704193618963473e-05,1.915418397402391e-05,0.00010998735524481162
2.847009636752773e-05,-4.954249379807152e-05,3.902602838934399e-05,1.4419093531614635e-05,2.376285738137085e-05,0.0001050532519002445
2.6579889890854247e-05,-4.891061325906776e-05,3.644176831585355e-05,8.208668987208512e-06,2.191636485804338e-05,0.00010182583355344832
2.438350384181831e-05,-4.7134952183114365e-05,3.6081040889257565e-05,4.1489911382086575e-06,1.442418488295516e-05,0.00010000572365242988
2.071652124868706e-05,-4.5119639253243804e-05,3.641516377683729e-05,1.339279492640344e-06,9.28007375478046e-06,9.464432514505461e-05
1.751869058352895e-05,-4.425227962201461e-05,3.4836168197216466e-05,-7.724511874585005e-07,9.316247087554075e-06,8.99524602573365e-05
1.6901154594961554e-05,-4.571563840727322e-05,3.0026647436898202e-05,7.192175530690292e-07,9.087070793611929e-06,9.018378477776423e-05
1.8198774341726676e-05,-4.894265657640062e-05,2.781859802780673e-05,3.872266916005174e-06,4.594456640916178e-06,9.084839257411659e-05
1.8993843696080148e-05,-5.224597407504916e-05,2.918681457231287e-05,9.534909622743726e-06,-1.3376503602557932e-06,8.855208579916507e-05
1.839649848989211e-05,-5.3278712584869936e-05,2.8593225579243153e-05,1.8422782886773348e-05,-5.210981726122554e-06,8.403247193200514e-05
1.9763614545809105e-05,-5.096302629681304e-05,2.8796985134249553e-05,2.8477092200773768e-05,-9.25482981983805e-06,8.196746784960851e-05
2.099605990224518e-05,-4.81627976114396e-05,3.0080000215093605e-05,3.384812589501962e-05,-1.1863068721140735e-05,8.793125743977726e-05
2.210291859228164e-05,-4.676286334870383e-05,3.115547224297188e-05,3.312496482976712e-05,-1.4424430446524639e-05,9.447362390346825e-05
2.296829188708216e-05,-4.476574031286873e-05,2.9643320885952562e-05,3.2212690712185577e-05,-1.661658097873442e-05,9.388390753883868e-05
2.3247721401276067e-05,-4.384466592455283e-05,2.7450852940091863e-05,3.305131394881755e-05,-1.749761577229947e-05,8.506737503921613e-05
2.23654988076305e-05,-4.4612461351789534e-05,2.6214338504360057e-05,3.3771026210160926e-05,-2.1151925466256216e-05,7.318385905819014e-05
2.2118356355349533e-05,-4.5050725020701066e-05,2.8076772650820203e-05,3.4385244362056255e-05,-2.4202345230150968e-05,6.653765012742952e-05
2.3759139367030002e-05,-4.6759181714151055e-05,3.177663893438876e-05,3.305673089926131e-05,-2.4922464945120737e-05,6.792205385863781e-05
2.54639580816729e-05,-4.823230119654909e-05,3.206953260814771e-05,2.480705916241277e-05,-2.2620124582317658e-05,7.300651486730203e-05
2.7253219741396606e-05,-4.769226870848797e-05,3.3928241464309394e-05,1.0061846296594013e-05,-1.9790650185314007e-05,7.617242226842791e-05
2.810855039570015e-05,-4.4802571210311726e-05,3.729913441929966e-05,-5.096550239613862e-07,-1.7963897334993817e-05,7.248238398460671e-05
2.5607469069655053e-05,-4.288887794245966e-05,3.860012293444015e-05,1.431656784234292e-07,-1.7302621927228756e-05,6.70736117172055e-05
2.1758982256869785e-05,-4.437036841409281e-05,3.793225914705545e-05,7.505626399506582e-06,-1.4017041394254193e-05,6.543691415572539e-05
2.234134080936201e-05,-4.600201646098867e-05,3.468270369921811e-05,1.3766443771601189e-05,-8.32453224575147e-06,6.464971374953166e-05
2.7731382942874916e-05,-4.2861323890974745e-05,3.055613342439756e-05,1.4341093447001185e-05,-3.2935040508164093e-06,6.207624392118305e-05
3.112138801952824e-05,-3.773586649913341e-05,2.8326834581093863e-05,1.0253366781398654e-05,-2.077967565128347e-06,5.1030656322836876e-05
3.11842086375691e-05,-3.823412407655269e-05,2.6266881832270883e-05,3.8030916584830265e-06,-5.101134320284473e-06,3.87711806979496e-05
3.069349622819573e-05,-4.529634315986186e-05,2.400697849225253e-05,8.060590062086703e-07,-7.621444638061803e-06,3.701097011798993e-05
3.073058178415522e-05,-5.161508306628093e-05,2.4208397007896565e-05,5.575904197030468e-06,-8.257025001512375e-06,4.499035276239738e-05
2.9849283237126656e-05,-5.032230546930805e-05,2.6726409487309866e-05,1.67120906553464e-05,-8.34288675832795e-06,5.456976214190945e-05
2.735045381996315e-05,-4.715373142971657e-05,3.0450351914623752e-05,2.707793282752391e-05,-1.0673025826690719e-05,5.785296161775477e-05
2.5753502995939925e-05,-4.7544395783916116e-05,3.484442277112976e-05,3.3643762435531244e-05,-1.2935905942867976e-05,5.39011562068481e-05
2.6111301849596202e-05,-4.878029358224012e-05,3.601044591050595e-05,3.7955091102048755e-05,-1.4171730072121136e-05,5.013258851249702e-05
2.7040528948418796e-05,-4.9573569413041696e-05,3.186103640473448e-05,4.2220599425490946e-05,-1.4392036973731592e-05,4.077510675415397e-05
2.8864049454568885e-05,-5.107323522679508e-05,2.9082610126351938e-05,4.7642555728089064e-05,-1.405215971317375e-05,2.4531189410481602e-05
2.8861695682280697e-05,-5.233013507677242e-05,2.8492822821135633e-05,5.4077412642072886e-05,-1.1134821761515923e-05,1.4152393305266742e-05
2.256717925774865e-05,-5.2383595175342634e-05,2.420290547888726e-05,5.621199306915514e-05,-8.56772567203734e-06,1.880376657936722e-05
1.587762926646974e-05,-5.204234548727982e-05,2.164811667171307e-05,4.688712579081766e-05,-1.0109563845617231e-05,3.5010481951758265e-05
1.1626028026512358e-05,-5.1740316848736256e-05,2.3975388103281148e-05,2.9963766792207025e-05,-1.4107888091530185e-05,3.932788968086243e-05
1.2061120287398808e-05,-5.000062083126977e-05,2.5720204575918615e-05,2.2341087969834916e-05,-1.4158150406728964e-05,3.246614505769685e-05
1.4816190741839819e-05,-4.789478407474235e-05,2.5363455279148184e-05,2.5493278371868655e-05,-1.026701011141995e-05,3.137674502795562e-05
1.7198412024299614e-05,-4.966484266333282e-05,2.6602148864185438e-05,2.8465445211622864e-05,-4.981037818652112e-06,3.8118108932394534e-05
1.8487422494217753e-05,-5.2846517064608634e-05,2.991171641042456e-05,3.043221113330219e-05,-1.3138762824382866e-06,4.7662568249506876e-05
2.2090831407695077e-05,-5.2446364861680195e-05,3.294061025371775e-05,3.1397841667057946e-05,-1.601684175511764e-06,5.3485273383557796e-05
2.7894178856513463e-05,-4.924912718706764e-05,3.499438025755808e-05,3.271991226938553e-05,1.581947515205684e-07,5.795946344733238e-05
2.80796957667917e-05,-4.6987919631646946e-05,3.6451921914704144e-05,3.220433427486569e-05,1.9928156689275056e-06,6.0690352256642655e-05
2.5259576432290487e-05,-4.6728269808227196e-05,3.661425580503419e-05,3.1466366635868326e-05,7.940092672242827e-08,5.7772936997935176e-05
2.525165291444864e-05,-4.6418033889494836e-05,3.267453212174587e-05,3.007388841069769e-05,-6.626106824114686e-06,5.385157419368625e-05
2.669655077625066e-05,-4.653642827179283e-05,2.8702068448183127e-05,2.677224256331101e-05,-1.3330883120943327e-05,5.5255550250876695e-05
2.332117765035946e-05,-4.801081013283692e-05,2.7666135792969726e-05,2.1588250092463568e-05,-1.5211146092042327e-05,6.226840196177363e-05
1.9539331333362497e-05,-5.2261842938605696e-05,2.8389784347382374e-05,1.6146690541063435e-05,-1.4835498404863756e-05,6.732424662914127e-05
1.9790197256952524e-05,-5.6574135669507086e-05,2.6437735868967138e-05,1.352764229523018e-05,-1.5880263163126074e-05,6.376766395987943e-05
2.1327537979232147e-05,-5.750985292252153e-05,2.3861082809162326e-05,1.1097794413217343e-05,-1.9051543858950026e-05,5.5497774155810475e-05
2.016254984482657e-05,-5.74080586375203e-05,2.5863411792670377e-05,6.229917744349223e-06,-2.2159632862894796e-05,5.15285755682271e-05
1.7087602827814408e-05,-5.961848728475161e-05,3.0238030376494862e-05,1.3290252809383674e-06,-2.3520342438132502e-05,5.2350722398841754e-05
