2.4205903173424304e-05,-3.7697893276344985e-05,3.132542042294517e-05,1.5434481611009687e-05,-1.0831215149664786e-05,3.474421100690961e-05
2.5033419660758227e-05,-3.213033778592944e-05,3.728428055183031e-05,1.7929627574631013e-05,-1.2663818779401481e-05,-2.901444531744346e-06
2.3077691366779618e-05,-3.664910764200613e-05,4.0982133214129135e-05,2.2002257537678815e-05,-1.0654544894350693e-05,-2.7550353479455225e-05
1.663032526266761e-05,-4.7520636144327e-05,3.742604167200625e-05,2.158568167942576e-05,-4.916813850286417e-06,-3.634920358308591e-05
1.0911129720625468e-05,-5.095169763080776e-05,3.390821802895516e-05,2.2889673346071504e-05,-1.6514501339770504e-06,-4.3992236896883696e-05
1.177468311652774e-05,-4.75237648061011e-05,3.222837403882295e-05,2.7273326850263402e-05,-3.522825863910839e-06,-4.197806629235856e-05
1.4513148926198483e-05,-4.598883242579177e-05,2.9163293220335618e-05,2.9087323127896525e-05,-7.434647613990819e-06,-1.3126660633133724e-05
1.7507356460555457e-05,-4.4542710384121165e-05,2.5531151550239883e-05,3.451030352152884e-05,-1.0981571904267184e-05,3.2049199944594875e-05
2.0493913325481117e-05,-4.189533137832768e-05,2.4690894861123525e-05,4.651164636015892e-05,-1.2368745046842378e-05,6.0766229580622166e-05
2.523168222978711e-05,-3.9005146390991285e-05,2.5838289730018005e-05,5.159755892236717e-05,-1.1018591067113448e-05,6.742365076206625e-05
2.937984754680656e-05,-3.9528385968878865e-05,2.707544990698807e-05,3.447281414992176e-05,-1.0594799277896527e-05,7.13361005182378e-05
3.349046528455801e-05,-4.3106840166728944e-05,2.891187250497751e-05,4.360865659691626e-06,-1.3150726772437338e-05,7.921201176941395e-05
3.832859511021525e-05,-4.509720019996166e-05,3.133671634714119e-05,-1.2890132893517148e-05,-1.6580157534917817e-05,8.573025843361393e-05
4.349856317276135e-05,-4.581558096106164e-05,3.31720439135097e-05,-2.54546989708615e-06,-1.795171010599006e-05,9.415012027602643e-05
4.398892633616924e-05,-4.530205114861019e-05,3.304703568574041e-05,2.5168857973767444e-05,-1.8654305677046068e-05,0.0001063149975379929
3.506755092530511e-05,-4.343213004176505e-05,3.093677878496237e-05,4.934147364110686e-05,-2.0249166482244618e-05,0.00011230628297198564
2.1395528165157884e-05,-4.237074972479604e-05,2.8507420211099088e-05,6.066441346774809e-05,-2.1764226403320208e-05,0.00011119516420876607
9.927340215654112e-06,-4.351601455709897e-05,2.6949104722007178e-05,6.054156256141141e-05,-2.316080644959584e-05,0.00010727863264037296
3.936405391868902e-06,-4.650475602829829e-05,2.6540623366599903e-05,5.765925379819237e-05,-2.3331851480179466e-05,0.00010288532939739525
1.6917980474318028e-06,-5.10849422425963e-05,2.688590575417038e-05,6.155718438094482e-05,-2.061244595097378e-05,9.539047459838912e-05
3.1212277917802567e-06,-5.4664262279402465e-05,2.4769635274424218e-05,7.363929034909233e-05,-1.8371250916970894e-05,8.619963773526251e-05
5.368764504964929e-06,-5.487768066814169e-05,2.3177495677373372e-05,8.276839798782021e-05,-1.734335091896355e-05,7.635166548425332e-05
7.874864422774408e-06,-5.1467610319377854e-05,2.604772635095287e-05,8.228334627347067e-05,-1.5913657989585772e-05,5.938781760050915e-05
1.1353822628734633e-05,-4.7330642701126635e-05,2.8961259886273183e-05,7.296912372112274e-05,-1.6527816114830784e-05,3.3053460356313735e-05
1.5703970348113216e-05,-4.51712439826224e-05,2.7569272788241506e-05,5.811837036162615e-05,-1.5095125490915962e-05,1.4057408407097682e-05
2.0291703549446538e-05,-4.710731445811689e-05,2.6085263016284443e-05,4.144493868807331e-05,-9.82536130322842e-06,1.3907684660807718e-05
2.3757569579174742e-05,-5.189661169424653e-05,2.8763504815287888e-05,2.2757834813091904e-05,-8.093177711998578e-06,3.204102904419415e-05
2.3612539735040627e-05,-5.5065011110855266e-05,3.4751119528664276e-05,4.274417278793408e-06,-9.754036909725983e-06,5.5926084314705804e-05
1.8702186935115606e-05,-5.20095054525882e-05,3.677690256154165e-05,2.945587311842246e-07,-1.0333276804885827e-05,6.695973570458591e-05
1.1381811418686993e-05,-4.722155790659599e-05,3.558946627890691e-05,1.2846589925175067e-05,-1.171904932562029e-05,6.382475112332031e-05
6.798800768592628e-06,-4.67899844807107e-05,3.284154081484303e-05,2.365154432482086e-05,-1.5127785445656627e-05,5.8911020460072905e-05
5.152649009687593e-06,-4.909022027277388e-05,3.052002648473717e-05,2.1447001927299425e-05,-1.270130724151386e-05,5.7733108405955136e-05
7.885445484134834e-06,-5.1433748012641445e-05,3.2632371585350484e-05,9.382330972584896e-06,-7.258159257617081e-06,5.02571820106823e-05
1.2902118214697111e-05,-5.478615639731288e-05,3.393143924768083e-05,-3.759400442504557e-06,-4.398984856379684e-06,1.5437672118423507e-05
1.7098485841415823e-05,-5.519518526853062e-05,3.214519892935641e-05,-1.0243707947665825e-05,-4.2805936573131476e-06,-2.762469921435695e-05
2.2025382349966094e-05,-4.927652480546385e-05,2.9679216822842136e-05,-6.282912181632128e-06,-3.354379941811203e-06,-2.5919660401996225e-05
3.023999488505069e-05,-4.504461321630515e-05,3.062488394789398e-05,1.0720525551732862e-06,-2.994584065163508e-07,2.3352227799477987e-05
3.843387821689248e-05,-4.4897064071847126e-05,3.0856703233439475e-05,-2.506526755041705e-07,8.456685236524208e-07,7.96090898802504e-05
4.1924737161025405e-05,-4.513925523497164e-05,2.8108102924306877e-05,-6.6438960857340135e-06,-9.011486667986901e-07,0.00010693757940316573
4.445032755029388e-05,-4.594261190504767e-05,2.475619112374261e-05,-3.66305221177754e-06,-4.0981399251904804e-06,0.00011200131120858714
4.732735033030622e-05,-4.7898665798129514e-05,2.2836919015389867e-05,9.667121958045755e-06,-8.306488780362997e-06,0.00011415778863010928
4.814839849132113e-05,-4.982249447493814e-05,2.4049020794336684e-05,2.4018689146032557e-05,-1.1706702935043722e-05,0.00011434966290835291
4.528919453150593e-05,-5.011794564779848e-05,2.697978197829798e-05,2.7700099963112734e-05,-1.3426614714262541e-05,0.00010065991955343634
3.999971886514686e-05,-4.758021532325074e-05,2.7863688956131227e-05,2.0321891497587785e-05,-1.4011627172294538e-05,7.330544030992314e-05
3.3458265534136444e-05,-4.558849104796536e-05,2.6027830244856887e-05,1.222461651195772e-05,-1.2887524462712463e-05,4.690866626333445e-05
2.6527517547947355e-05,-4.600689499056898e-05,2.6133906430914067e-05,1.0858265341084916e-05,-9.893706192087848e-06,3.6524310417007655e-05
2.2817670469521545e-05,-4.5950309868203476e-05,3.0959141440689564e-05,1.663337206991855e-05,-5.220238563197199e-06,4.3930682295467705e-05
2.5486593585810624e-05,-4.3301966798026115e-05,3.7803682062076405e-05,2.8935581212863326e-05,-3.1455550697501167e-07,5.985419193166308e-05
3.02893495245371e-05,-3.767033194890246e-05,4.078436177223921e-05,4.293925303500146e-05,4.463099230633816e-06,7.903093501226977e-05
3.3354215702274814e-05,-3.3636653824942186e-05,4.0221260860562325e-05,4.719417484011501e-05,5.389653324527899e-06,9.558141755405813e-05
3.4272863558726385e-05,-3.7943293136777356e-05,3.967097291024402e-05,4.250712299835868e-05,1.5999637525965227e-06,0.0001066287950379774
3.256095806136727e-05,-4.8930320190265775e-05,4.1780294850468636e-05,4.302492379792966e-05,-1.930754251588951e-06,0.00010648282477632165
2.994998612848576e-05,-5.986575342831202e-05,4.04086422349792e-05,5.1293209253344685e-05,-2.226648575742729e-06,9.093410335481167e-05
2.9501168683054857e-05,-6.589880649698898e-05,3.456857302808203e-05,5.546943793888204e-05,-8.07551168691134e-06,7.416355219902471e-05
2.8715938242385164e-05,-6.805243174312636e-05,3.338276655995287e-05,4.901173088001087e-05,-2.3681732272962108e-05,7.095993350958452e-05
2.423164369247388e-05,-6.961212784517556e-05,3.566750820027664e-05,3.774603464989923e-05,-3.834212839137763e-05,7.438247848767787e-05
2.1202551579335704e-05,-7.100544462446123e-05,3.418406777200289e-05,2.060828046523966e-05,-4.760680894833058e-05,7.885647210059687e-05
2.0250105080776848e-05,-6.738201773259789e-05,2.939704791060649e-05,2.82232804238447e-07,-5.10438003402669e-05,8.134236122714356e-05
1.8117116269422695e-05,-5.682137998519465e-05,2.9575101507361978e-05,-8.508114660799038e-06,-5.299671465763822e-05,7.935113535495475e-05
1.873946348496247e-05,-4.925925895804539e-05,3.261532401666045e-05,4.591950997223648e-08,-5.6356278946623206e-05,7.574623305117711e-05
2.0348306861706078e-05,-4.849342440138571e-05,3.499046215438284e-05,1.4800898497924209e-05,-5.4340176575351506e-05,7.210731564555317e-05
1.7214078980032355e-05,-4.911267387797125e-05,3.526377986418083e-05,1.84838045242941e-05,-4.4350395910441875e-05,7.191728946054354e-05
1.1968205399170984e-05,-4.7753848775755614e-05,3.515247590257786e-05,1.9435701688053086e-05,-2.6495672500459477e-05,7.351495878538117e-05
1.2365653674351051e-05,-4.5956629037391394e-05,3.7507856177398935e-05,2.5627095965319313e-05,-4.244077899784315e-06,6.433521048165858e-05
1.6742389561841264e-05,-4.681032442022115e-05,3.832932634395547e-05,3.443151217652485e-05,2.0666246200562455e-05,4.5608201617142186e-05
2.2241896658670157e-05,-5.0896724133053795e-05,3.904528057319112e-05,3.9190254028653726e-05,4.499243004829623e-05,3.777010351768695e-05
2.7786920327343978e-05,-5.923773278482258e-05,3.857555930153467e-05,3.989274046034552e-05,6.540806498378515e-05,5.020068056182936e-05
3.1554533052258193e-05,-6.804335862398148e-05,3.796989403781481e-05,4.194977373117581e-05,7.33445631340146e-05,6.593648868147284e-05
3.168115654261783e-05,-7.159184315241873e-05,3.777713209274225e-05,4.794393680640496e-05,6.652223964920267e-05,6.442159065045416e-05
2.6576355594443157e-05,-6.87184146954678e-05,3.684158218675293e-05,5.9461417549755424e-05,5.139252243679948e-05,4.183331475360319e-05
1.9261242414359003e-05,-6.36973200016655e-05,3.610835847212002e-05,6.909285730216652e-05,3.59984660462942e-05,1.4710686627950054e-05
1.4489819477603305e-05,-6.0418569773901254e-05,3.6924597225151956e-05,6.176433817017823e-05,2.2424826966016553e-05,-3.0450814847426955e-06
1.345838336419547e-05,-6.016860425006598e-05,3.658591231214814e-05,3.68801956938114e-05,9.793255230761133e-06,-8.490745130984578e-06
1.3375132766668685e-05,-6.290955207077786e-05,3.429967910051346e-05,1.5330093447118998e-05,-1.2076897064616787e-06,-1.5543764675385319e-06
9.932882676366717e-06,-6.484257755801082e-05,3.387288234080188e-05,1.1438689398346469e-05,-1.1167262528033461e-05,1.749563671182841e-05
1.360235160063894e-06,-6.014261089148931e-05,3.586289312806912e-05,1.9851007891702466e-05,-2.0994220903958194e-05,3.7865112972212955e-05
-5.118753051647218e-06,-4.8803980462253094e-05,3.7272900954121724e-05,2.7275067623122595e-05,-2.7226986276218668e-05,4.7050092689460143e-05
-4.951107712258818e-06,-3.979353641625494e-05,3.8150461477926e-05,3.367131284903735e-05,-2.688952736207284e-05,5.443593181553297e-05
1.827170308388304e-07,-3.807463508564979e-05,3.938437293982133e-05,3.966923395637423e-05,-2.763422526186332e-05,6.638994091190398e-05
8.509672625223175e-06,-3.7922203773632646e-05,3.924775592167862e-05,4.3889478547498584e-05,-2.8537100661196746e-05,7.516205369029194e-05
1.6709876945242286e-05,-3.513653791742399e-05,4.023677684017457e-05,4.560818706522696e-05,-2.634973316162359e-05,8.20838613435626e-05
2.0632352971006185e-05,-3.271228706580587e-05,3.917625144822523e-05,4.655808152165264e-05,-2.169025356124621e-05,9.626378596294671e-05
1.9858240193570964e-05,-3.2435389584861696e-05,3.182818181812763e-05,4.730214277515188e-05,-2.1583548004855402e-05,9.972450789064169e-05
1.8398210158920847e-05,-3.4796667023329064e-05,2.419000338704791e-05,4.30827058153227e-05,-2.38723041547928e-05,8.636634447611868e-05
1.8074590116157196e-05,-3.7732756027253345e-05,2.4698927518329583e-05,3.73241891793441e-05,-2.5014182028826326e-05,7.152135367505252e-05
1.9103339582215995e-05,-4.010338307125494e-05,2.931853123300243e-05,4.022453504148871e-05,-2.6675614208215848e-05,5.5183623771881685e-05
2.2434020138462074e-05,-3.790586197283119e-05,3.1263811251847073e-05,4.675896343542263e-05,-3.013646710314788e-05,3.3072497899411246e-05
2.5412209652131423e-05,-3.666377597255632e-05,2.928228241216857e-05,4.532012462732382e-05,-3.296716386103071e-05,-4.4952307689527515e-06
2.7768413929152302e-05,-4.2083564039785415e-05,2.784381649689749e-05,3.1985466193873435e-05,-3.4196847991552204e-05,-4.418178286869079e-05
2.9562819690909237e-05,-4.560777233564295e-05,2.8133914383943193e-05,1.10724304249743e-05,-3.484679473331198e-05,-5.0242364523001015e-05
3.412183286854997e-05,-4.576443461701274e-05,2.9141721824998967e-05,-9.81299308477901e-06,-3.084565469180234e-05,-1.4556379028363153e-05
3.9054120861692354e-05,-4.5099812268745154e-05,2.9015718610025942e-05,-2.401716665190179e-05,-2.007845978369005e-05,3.011959597642999e-05
4.1118131775874645e-05,-4.653372889151797e-05,2.8146052500233054e-05,-2.3434055037796497e-05,-9.500227861281019e-06,5.356625479180366e-05
4.068007547175512e-05,-4.9631311412667856e-05,2.7584534109337255e-05,-1.2585230251715984e-05,-5.74978821532568e-06,5.6893066357588395e-05
3.7522167986026034e-05,-5.2833267545793205e-05,2.6847967092180625e-05,-3.456985041339067e-06,-7.749637916276697e-06,5.152216908754781e-05
3.1619529181625694e-05,-5.51331031601876e-05,2.6570984118734486e-05,5.5899686230986845e-06,-1.3459453839459457e-05,4.6804314479231834e-05
2.467016201990191e-05,-5.5069365771487355e-05,2.7235273591941223e-05,1.8512479073251598e-05,-1.766226523614023e-05,5.037116352468729e-05
1.9466337107587606e-05,-5.340793723007664e-05,2.9467602871591225e-05,2.9747659937129356e-05,-1.463247463107109e-05,6.92061657900922e-05
1.7518244931125082e-05,-5.236802462604828e-05,3.186547110090032e-05,3.303794073872268e-05,-8.520060873706825e-06,9.80417535174638e-05
1.8435448509990238e-05,-5.240851896815002e-05,3.345633012941107e-05,3.144545917166397e-05,-9.787191629584413e-06,0.00012176552263554186
1.7713055058266036e-05,-5.041999975219369e-05,3.258370270486921e-05,3.270926026743837e-05,-1.599801726115402e-05,0.00012871586659457535
1.481609433540143e-05,-4.829186946153641e-05,3.0627790692960843e-05,3.695371196954511e-05,-2.0443547327886336e-05,0.00011754624574678019
1.1026803804270457e-05,-4.938951678923331e-05,2.9912527679698542e-05,3.9153226680355147e-05,-2.0869021682301536e-05,9.692736784927547e-05
8.097288628050592e-06,-5.153042729943991e-05,2.9279777663759887e-05,3.7323621654650196e-05,-1.916953260661103e-05,8.024454291444272e-05
1.0630122233123984e-05,-5.080918344901875e-05,2.8486996598076075e-05,2.9700862796744332e-05,-1.8582033590064384e-05,6.376325472956523e-05
1.833073292800691e-05,-4.606525180861354e-05,2.8527067115646787e-05,2.0195047909510322e-05,-1.7130114429164678e-05,3.536192525643855e-05
2.173499706259463e-05,-4.21202857978642e-05,2.5124403691734187e-05,1.7636188204050995e-05,-1.2437354598660022e-05,1.537144385110878e-06
2.0646188204409555e-05,-4.3074003770016134e-05,2.241667971247807e-05,3.165515590808354e-05,-1.0228704013570677e-05,-1.6600362869212404e-05
2.0334791770437732e-05,-4.666052700486034e-05,2.3703305487288162e-05,6.969492096686736e-05,-1.6869640603545122e-05,-2.469779792590998e-05
2.2808575522503816e-05,-5.115485328133218e-05,2.5052751880139112e-05,9.778522507986054e-05,-2.0237508579157293e-05,-2.571438017184846e-05
2.549535929574631e-05,-5.305037120706402e-05,2.5499823095742613e-05,8.826518023852259e-05,-1.67114230862353e-05,-3.0736171083844965e-06
2.4417526219622232e-05,-5.2423598390305415e-05,2.5244527932954952e-05,6.305330316536129e-05,-1.493471791036427e-05,2.7453186703496613e-05
2.3077520381775685e-05,-5.166120899957605e-05,2.320071689609904e-05,4.6335026127053425e-05,-1.2774004062521271e-05,4.4154130591778085e-05
2.4496779587934725e-05,-4.985433770343661e-05,2.4625407604617067e-05,4.1361381590832025e-05,-7.26013922758284e-06,5.304825390339829e-05
2.394147486484144e-05,-4.7275552788050845e-05,2.983895319630392e-05,3.854352326015942e-05,1.719162412427977e-07,6.708024011459202e-05
2.319826489838306e-05,-4.597746374201961e-05,3.312784247100353e-05,3.298832234577276e-05,5.229022917774273e-06,7.846919470466673e-05
2.4440007109660655e-05,-4.6083969209576026e-05,3.258290598751046e-05,2.262244925077539e-05,6.47335582470987e-06,8.415034244535491e-05
2.1756828573415987e-05,-4.457672912394628e-05,2.6368070393800735e-05,1.227028315042844e-05,3.5579591894929763e-06,9.118695743381977e-05
1.4039326742931735e-05,-4.452326538739726e-05,2.2557242118637078e-05,6.736597242706921e-06,1.148031628872559e-06,0.0001045071694534272
9.174093975161668e-06,-4.7763191105332226e-05,2.6277602955815382e-05,9.029748980537988e-06,-4.3414065657998435e-06,0.00011684563651215285
9.852910807239823e-06,-5.050699837738648e-05,3.17185913445428e-05,1.9181503375875764e-05,-1.563472324050963e-05,0.00012283505930099636
1.4819099305896088e-05,-5.072953717899509e-05,3.081716931774281e-05,2.7937892809859477e-05,-2.765245153568685e-05,0.00012210491695441306
2.077329918392934e-05,-5.1321243518032134e-05,2.6946574507746845e-05,3.18288839480374e-05,-3.4401316952425987e-05,0.00012038091517752036
2.3620998035767116e-05,-5.369274003896862e-05,2.6280598831363022e-05,3.045592166017741e-05,-3.780320184887387e-05,0.00012375327059999108
2.5108387490035966e-05,-5.593112655333243e-05,2.7581349058891647e-05,2.527644574001897e-05,-4.0287784941028804e-05,0.000126993894809857
2.6209672796539962e-05,-5.715598672395572e-05,2.7807644073618576e-05,2.0674202460213564e-05,-3.99533128074836e-05,0.00012509147927630693
2.600579318823293e-05,-5.6350087106693536e-05,2.7586575015448034e-05,2.150235559383873e-05,-3.5543715057428926e-05,0.00011765097588067874
2.439192212477792e-05,-5.20492103532888e-05,2.8563237719936296e-05,2.9433056624839082e-05,-2.62994144577533e-05,9.996629523811862e-05
2.4430157282040454e-05,-4.4917243940290064e-05,3.064719930989668e-05,4.02857294830028e-05,-1.6081978174042888e-05,7.648387691006064e-05
2.6951831387123093e-05,-3.8100544770713896e-05,3.209313945262693e-05,4.330546653363854e-05,-7.608123269164935e-06,6.283582479227334e-05
2.9663533496204764e-05,-3.518542507663369e-05,3.20663457387127e-05,3.3619155146880075e-05,5.712290089832095e-07,5.5486416385974735e-05
2.9316774089238606e-05,-4.0340459236176684e-05,3.0161991162458435e-05,1.6416559446952306e-05,9.525049790681805e-06,5.343288285075687e-05
2.9223712772363797e-05,-4.996854841010645e-05,2.7353633413440548e-05,5.11455255036708e-06,1.507871456851717e-05,5.337591937859543e-05
3.346702578710392e-05,-5.547148612095043e-05,2.8625436243601143e-05,9.12189352675341e-06,1.2987615264137276e-05,3.801816637860611e-05
3.896097405231558e-05,-5.438246444100514e-05,3.251257658121176e-05,1.7427570128347725e-05,9.754756320035085e-06,9.482282621320337e-06
3.9258004107978195e-05,-5.376496847020462e-05,3.7818816053913906e-05,5.762816272181226e-06,1.0047700016002636e-05,-7.898285730334464e-06
3.3697062463033944e-05,-5.5665070249233395e-05,4.169685053057037e-05,-2.5781962904147804e-05,1.500840880908072e-05,-7.966008865878393e-07
2.3932674594107084e-05,-6.050791489542462e-05,4.125346094951965e-05,-4.5091030187904835e-05,2.166480953746941e-05,1.5290848750737496e-05
1.5314006304834038e-05,-6.264064722927287e-05,3.899192233802751e-05,-4.699711280409247e-05,1.9793871615547687e-05,2.4420145564363338e-05
1.223918570758542e-05,-5.844715269631706e-05,3.608681799960323e-05,-4.304375033825636e-05,1.649509067647159e-05,3.302678669570014e-05
1.332161991740577e-05,-5.3786465286975726e-05,3.503475454635918e-05,-2.905323708546348e-05,1.586938560649287e-05,3.992623896920122e-05
1.7001313608489e-05,-4.71480016130954e-05,3.787927926168777e-05,-4.5270510895534244e-07,1.761906241881661e-05,3.980890323873609e-05
1.9690456610987894e-05,-4.352496762294322e-05,4.009831172879785e-05,3.1861389288678765e-05,1.618671194592025e-05,2.9337914384086616e-05
2.033269265666604e-05,-4.582247129292227e-05,3.920866220141761e-05,5.034725836594589e-05,1.1744861694751307e-05,1.1891625945281703e-05
1.6831352695589885e-05,-5.0167662266176194e-05,3.606631435104646e-05,5.687625161954202e-05,4.435444679984357e-06,-1.0562683883108548e-06
1.1392475244065281e-05,-5.237447840045206e-05,3.488862785161473e-05,6.211391882970929e-05,-3.497644229355501e-06,-1.4940175674382772e-07
8.215904017561115e-06,-5.3800078603671864e-05,3.480260420474224e-05,6.673740426776931e-05,-1.0471758287167177e-05,3.0032783797651064e-06
7.1956765168579295e-06,-5.30547731614206e-05,3.305054269731045e-05,7.03616242390126e-05,-1.6744683307479136e-05,-4.99175303048105e-06
9.161642992694397e-06,-4.979710138286464e-05,3.1800445867702365e-05,7.793521217536181e-05,-2.119645068887621e-05,-1.0427035704196896e-05
1.4459200428973418e-05,-4.5948636397952214e-05,3.108900273218751e-05,8.763352525420487e-05,-2.408600084891077e-05,4.447638730198378e-06
1.891832653200254e-05,-4.389868990983814e-05,2.959166704386007e-05,9.182059147860855e-05,-2.5039929823833518e-05,3.291853499831632e-05
2.005189162446186e-05,-4.419840479386039e-05,2.7991607566946186e-05,8.771329157752916e-05,-2.3798185793566518e-05,5.591780791291967e-05
2.1508554709726013e-05,-4.729421198135242e-05,2.8922700948896818e-05,8.052190241869539e-05,-1.9232129488955252e-05,7.027725223451853e-05
2.5813333195401356e-05,-5.260437319520861e-05,3.0265706300269812e-05,7.473072037100792e-05,-1.6109584976220503e-05,8.480793621856719e-05
3.2450487196911126e-05,-5.5016615078784525e-05,3.0079283533268608e-05,6.655159086221829e-05,-1.5961433746269904e-05,0.00010518682393012568
3.734659549081698e-05,-5.213822078076191e-05,3.061139432247728e-05,5.69647854717914e-05,-1.589875500940252e-05,0.00013081116776447743
3.8250542274909094e-05,-4.863392314291559e-05,3.261722667957656e-05,5.3924930398352444e-05,-1.2914529179397505e-05,0.00014916002692189068
3.818962795776315e-05,-5.05977041029837e-05,3.313419074402191e-05,5.594042158918455e-05,-1.1699244168994483e-05,0.00014568775077350438
3.950402606278658e-05,-5.4098654800327495e-05,3.253509203204885e-05,5.148218770045787e-05,-1.1470360732346307e-05,0.00013113554450683296
3.9881466364022344e-05,-5.49681244592648e-05,3.236103293602355e-05,3.679142537293956e-05,-1.393832644680515e-05,0.00012152044655522332
3.8150919863255695e-05,-5.441925168270245e-05,3.641228613560088e-05,2.4967634089989588e-05,-1.578900082677137e-05,0.00011764936789404601
3.49387337337248e-05,-5.3725485486211255e-05,4.235689266351983e-05,1.911479193950072e-05,-1.4838303286524024e-05,0.00011331516725476831
3.312249464215711e-05,-5.2508723456412554e-05,4.287111369194463e-05,7.864551662351005e-06,-1.1837249076052103e-05,0.00010377563739893958
3.221916995244101e-05,-5.1204682677052915e-05,3.524319618009031e-05,-8.922746928874403e-06,-8.017079380806535e-06,8.242039621109143e-05
3.060410017496906e-05,-4.9275167839368805e-05,3.043357537535485e-05,-1.677051477599889e-05,-7.600023764098296e-06,5.509160473593511e-05
2.880673491745256e-05,-4.7196357627399266e-05,3.471323361736722e-05,-8.988570698420517e-06,-1.140040058089653e-05,3.300929893157445e-05
2.403621510893572e-05,-4.373773481347598e-05,3.993543577962555e-05,2.096127445838647e-06,-1.2765270184900146e-05,2.8176817068015225e-05
1.9541676010703668e-05,-3.7979694752721116e-05,3.972074773628265e-05,1.172116844827542e-05,-1.2368755051284097e-05,3.859193020616658e-05
1.6571018932154402e-05,-3.0529066862072796e-05,3.3699852792778984e-05,1.8422890207148157e-05,-1.703530506347306e-05,5.02684160892386e-05
1.6966054317890666e-05,-2.976434370793868e-05,3.160908818244934e-05,1.8979837477672845e-05,-2.365032196394168e-05,5.699019311578013e-05
1.919187889143359e-05,-3.512630792101845e-05,3.019653922819998e-05,1.4300303519121371e-05,-3.147794268443249e-05,6.146652594907209e-05
1.8966089555760846e-05,-4.3321531848050654e-05,2.712945752136875e-05,1.3691482308786362e-05,-3.819121411652304e-05,6.745088467141613e-05
1.848438841989264e-05,-4.9463593313703313e-05,2.4799515813356265e-05,2.001827124331612e-05,-4.103635001229122e-05,7.622520934091881e-05
1.8612763597047888e-05,-5.1880950195482e-05,2.7148978915647604e-05,2.8957818358321674e-05,-3.922496398445219e-05,8.480533142574131e-05
1.738819082675036e-05,-5.333471926860511e-05,3.3754753530956805e-05,3.818710320047103e-05,-3.4510070690885186e-05,8.569163765059784e-05
1.4254916095524095e-05,-5.452761615742929e-05,3.6651003028964624e-05,4.195261135464534e-05,-2.8444786948966794e-05,7.223038846859708e-05
1.2469581633922644e-05,-5.293197318678722e-05,3.698204818647355e-05,3.6956847907276824e-05,-2.2594895199290477e-05,4.696150790550746e-05
1.41652990350849e-05,-5.040530231781304e-05,3.7151425203774124e-05,2.6424710085848346e-05,-1.8074655599775724e-05,2.4383018171647564e-05
1.7385516912327148e-05,-5.2193718147464097e-05,3.618912887759507e-05,1.6175397831830196e-05,-1.3424153621599544e-05,1.3679699804924894e-05
1.7210370060638525e-05,-5.693142884410918e-05,3.394338637008332e-05,6.274772658798611e-06,-8.487793820677325e-06,1.3078491065243725e-05
1.5400515621877275e-05,-5.919560499023646e-05,3.4254200727446005e-05,-1.921044486152823e-06,-3.886032118316507e-06,1.5217791769828182e-05
1.667473952693399e-05,-5.7335659221280366e-05,3.563016070984304e-05,-3.286962282800232e-06,-6.405267640730017e-07,1.6553942259633914e-05
2.0092873455723748e-05,-5.776374018751085e-05,3.744764399016276e-05,4.890336185781052e-06,3.321304347991827e-06,1.9586752387112938e-05
2.1552452381001785e-05,-5.9442514611873776e-05,3.92846814065706e-05,1.3518764717446174e-05,1.0527153790462762e-05,3.0677438189741224e-05
2.0388499251566827e-05,-5.7635803386801854e-05,3.832636139122769e-05,1.480384889873676e-05,1.5969355445122346e-05,4.827740485779941e-05
1.9499902919051237e-05,-5.294183938531205e-05,3.557801392162219e-05,1.5840871128602885e-05,1.4044228919374291e-05,6.874840619275346e-05
2.1960848243907094e-05,-5.3245788876665756e-05,3.482949250610545e-05,2.3003487513051368e-05,8.691992661624681e-06,9.181206405628473e-05
2.6327319574193098e-05,-5.389538637246005e-05,3.6917957913829014e-05,2.788483106996864e-05,4.895641723123845e-06,0.00011609557259362191
2.7930631404160522e-05,-5.0752292736433446e-05,3.692633254104294e-05,2.8467440642998554e-05,7.85620045462565e-07,0.00013428949750959873
2.723399484239053e-05,-5.202284955885261e-05,3.2294563425239176e-05,3.3760643418645486e-05,-5.786303972854512e-06,0.00014762057980988175
2.7152540496899746e-05,-5.27291776961647e-05,2.9881062800996006e-05,3.858490890706889e-05,-1.2138426427554805e-05,0.0001557277428219095
2.4036862669163384e-05,-5.200763189350255e-05,2.9688240829273127e-05,3.3963489840971306e-05,-1.5438061382155865e-05,0.0001670493365963921
1.7867876522359438e-05,-5.323112418409437e-05,2.7139176381751895e-05,2.755687091848813e-05,-1.5847375834709965e-05,0.00017761136405169964
1.5833888028282672e-05,-4.983405233360827e-05,2.413204128970392e-05,2.7327520001563244e-05,-1.4982478205638472e-05,0.00016322132432833314
1.5643903680029325e-05,-4.589304080582224e-05,2.2697842723573558e-05,2.9983624699525535e-05,-1.4741422091901768e-05,0.000124673533719033
1.332418014499126e-05,-4.1692132072057575e-05,2.2953934603719972e-05,3.3000611438183114e-05,-1.367632194160251e-05,8.336824976140633e-05
1.0405063221696764e-05,-3.891065716743469e-05,2.5314358936157078e-05,3.63827493856661e-05,-1.360845362796681e-05,5.9337427956052125e-05
8.314722435898148e-06,-3.617103357100859e-05,2.587526796560269e-05,3.845645551336929e-05,-1.6878162568900734e-05,3.9510090573458e-05
6.177917839522706e-06,-3.832135917036794e-05,2.4979060981422663e-05,4.3387302866904065e-05,-1.83387819561176e-05,7.4202107498422265e-06
2.425890897939098e-06,-4.2960244172718376e-05,2.516342829039786e-05,5.083793439553119e-05,-1.751388299453538e-05,-3.226207263651304e-05
1.819771227928868e-06,-4.510833605309017e-05,2.5546440156176686e-05,5.867212894372642e-05,-1.5628667824785225e-05,-5.611988308373839e-05
8.06431762612192e-06,-4.523751704255119e-05,2.729963125602808e-05,6.175640010042116e-05,-1.131033968704287e-05,-5.122933362144977e-05
1.6337973647750914e-05,-4.488335980568081e-05,2.7607284209807403e-05,4.588616866385564e-05,-5.607431376120076e-06,-2.2065361918066628e-05
2.1981470126775093e-05,-4.5376171328825876e-05,2.719673102546949e-05,1.1559881386347115e-05,-2.843024276444339e-06,1.81660070666112e-05
2.6169049306190573e-05,-4.538915163720958e-05,2.5963676307583228e-05,-1.6762611267040484e-05,-8.844107469485607e-06,5.131320722284727e-05
3.084282070631161e-05,-4.430250191944651e-05,2.5240749891963787e-05,-1.9113158487016335e-05,-2.0580038835760206e-05,6.803713768022135e-05
3.308979648863897e-05,-4.012028512079269e-05,2.6835372409550473e-05,-2.1788284811918857e-06,-2.8583330276887864e-05,7.12515611667186e-05
3.128187017864548e-05,-3.647004996309988e-05,3.22434825648088e-05,1.568804327689577e-05,-2.75957409030525e-05,7.318079588003457e-05
2.8053087589796633e-05,-3.6760367947863415e-05,3.7258138036122546e-05,2.2613341570831835e-05,-2.186927304137498e-05,7.637574162799865e-05
2.6239193175570108e-05,-4.031386924907565e-05,3.721056418726221e-05,1.860832162492443e-05,-1.5751933460705914e-05,7.830865069990978e-05
2.645786116772797e-05,-4.113082468393259e-05,3.3746848203008994e-05,1.2982850421394687e-05,-8.64699268277036e-06,7.623189594596624e-05
2.8129483325756155e-05,-4.35112087870948e-05,3.0304090614663437e-05,1.538637479825411e-05,1.0966012808921732e-07,6.986836524447426e-05
2.9953067496535368e-05,-4.646522575058043e-05,2.8280112019274384e-05,2.365948421356734e-05,7.724258466623724e-06,6.550362741108984e-05
2.948670953628607e-05,-5.06741416756995e-05,2.778358248178847e-05,3.577628012862988e-05,1.2577166671690065e-05,7.0587957452517e-05
2.9554017601185478e-05,-5.7229135563829914e-05,2.8087206374038942e-05,4.7454093873966485e-05,1.3608116205432452e-05,8.038635860430077e-05
2.92117620119825e-05,-5.849436274729669e-05,2.984865932376124e-05,5.315792441251688e-05,9.84079724730691e-06,8.446198626188561e-05
2.4279615900013596e-05,-5.570790381170809e-05,2.9665719921467826e-05,5.758031693403609e-05,6.441762707254384e-06,7.34697314328514e-05
1.8748642105492763e-05,-5.463397246785462e-05,2.8537788239191286e-05,6.098556696088053e-05,6.320681222860003e-06,5.3310184739530087e-05
1.329657061432954e-05,-4.890527998213656e-05,3.102227492490783e-05,6.533759005833417e-05,6.961984581721481e-06,3.3631353289820254e-05
1.1069529136875644e-05,-3.9964135794434696e-05,3.173112418153323e-05,6.83036632835865e-05,6.816680070187431e-06,1.3101446711516473e-05
1.3438370842777658e-05,-3.444565663812682e-05,3.145784285152331e-05,6.686124834232032e-05,4.220966275170213e-06,1.6456558569188928e-06
1.8190283299190924e-05,-3.6319965147413313e-05,3.15921897708904e-05,6.600310007343069e-05,1.945405756487162e-06,8.455116585537326e-06
2.214041342085693e-05,-4.2859312088694423e-05,2.9779455871903338e-05,6.414747622329742e-05,1.9727184508155915e-07,2.7637495804810897e-05
2.1681475118384697e-05,-5.0896647735498846e-05,2.440176649542991e-05,5.574338501901366e-05,-3.2281534458888927e-06,4.435811206349172e-05
1.951181548065506e-05,-5.8634646848076954e-05,2.0594341549440287e-05,3.921597090084106e-05,-7.411397291434696e-06,5.3370906243799254e-05
2.02795781660825e-05,-6.953468982828781e-05,2.0375489839352667e-05,2.1985903003951535e-05,-1.3621314792544581e-05,6.146795931272209e-05
2.4181890694308095e-05,-8.448709559161216e-05,2.376639167778194e-05,7.182104582170723e-06,-2.0317203961894847e-05,7.171493052737787e-05
2.3405793399433605e-05,-8.854710176819935e-05,2.811385456880089e-05,-2.7540104383660946e-06,-2.7004834919353016e-05,8.034057100303471e-05
1.7940623365575448e-05,-7.651706982869655e-05,3.181024658260867e-05,-5.7005390772246756e-06,-3.3574775443412364e-05,7.99145273049362e-05
1.3534380741475616e-05,-5.85940397286322e-05,3.240433943574317e-05,6.404766281775665e-07,-4.0253056795336306e-05,6.237999332370237e-05
1.3261817002785392e-05,-4.774515036842786e-05,2.9484535843948834e-05,8.928830538934562e-06,-4.559148146654479e-05,1.630302722332999e-05
1.4654039659944829e-05,-4.5635810238309205e-05,2.849881275324151e-05,1.3713864063902292e-05,-4.92499275424052e-05,-3.912169995601289e-05
1.4881080460327212e-05,-4.8222649638773873e-05,3.196136822225526e-05,1.697636798780877e-05,-5.271137342788279e-05,-6.298674998106435e-05
1.5095183698576875e-05,-5.081958443042822e-05,3.945217758882791e-05,2.046308509306982e-05,-5.6138411309802905e-05,-4.1726558265509084e-05
1.7385644241585396e-05,-5.300288466969505e-05,4.636012090486474e-05,2.141151526302565e-05,-5.8046458434546366e-05,-3.4231084100611042e-06
2.0211409719195217e-05,-5.3369531087810174e-05,4.494520544540137e-05,1.6565227269893512e-05,-5.6054614105960354e-05,1.0171723261009902e-05
2.025550747930538e-05,-5.123364462633617e-05,3.629007551353425e-05,9.194174708682112e-06,-4.5694952859776095e-05,-1.0988835128955543e-05
1.8047543562715873e-05,-4.978824654244818e-05,2.978921475005336e-05,2.877307224480319e-06,-2.3722375772194937e-05,-3.3446933230152354e-05
1.717119084787555e-05,-4.9020309234037995e-05,2.6222305677947588e-05,1.724306343930948e-06,4.831738351640524e-06,-2.0485782442847267e-05
1.9591614545788616e-05,-4.839693065150641e-05,2.4544855477870442e-05,4.04167985834647e-06,3.277640644228086e-05,1.8112576071871445e-05
2.221674185420852e-05,-4.9119895265903324e-05,2.5916448066709563e-05,8.312722457048949e-06,5.575886825681664e-05,5.2038969442946836e-05
2.3644675820833072e-05,-5.0631719204830006e-05,2.993610905832611e-05,9.96953258436406e-06,7.210792682599276e-05,6.26565670245327e-05
2.2745056412531994e-05,-5.198276267037727e-05,3.357234891154803e-05,4.552025984594366e-06,8.002552931429818e-05,6.196921458467841e-05
1.9696997696883045e-05,-5.1507438911357895e-05,3.361125709488988e-05,1.806761474654195e-06,7.811535760993138e-05,6.654660683125257e-05
2.1485095203388482e-05,-4.9574682634556666e-05,3.264395854785107e-05,9.999635949498042e-06,6.738347292412072e-05,8.170423097908497e-05
2.661681173776742e-05,-4.577657819027081e-05,3.23193016811274e-05,2.5500588890281506e-05,5.345149838831276e-05,0.00010524252866161987
3.062846735701896e-05,-4.360748062026687e-05,2.957317337859422e-05,4.2582709284033626e-05,3.7117013562237844e-05,0.0001232050999533385
3.234851101296954e-05,-4.4061314838472754e-05,2.917527308454737e-05,5.0695267418632284e-05,1.8583999917609617e-05,0.000128349318401888
3.0626673833467066e-05,-4.432542118593119e-05,2.901226980611682e-05,5.1936898671556264e-05,2.4894866328395437e-06,0.00012549306848086417
2.9108710805303417e-05,-4.635742516256869e-05,2.701035191421397e-05,5.1346247346373275e-05,-9.171012607112061e-06,0.0001312357053393498
2.842462527041789e-05,-4.894193625659682e-05,2.7792069886345416e-05,5.100846101413481e-05,-1.631238410482183e-05,0.0001437165919924155
2.700213917705696e-05,-5.0554041081340984e-05,3.2511932658962905e-05,5.141855217516422e-05,-2.146825681847986e-05,0.0001511339214630425
2.260810106236022e-05,-5.099892950966023e-05,3.5433273296803236e-05,5.9032481658505276e-05,-2.4567572836531326e-05,0.00013928963744547218
1.7181684597744606e-05,-5.1800936489598826e-05,3.352268322487362e-05,7.276715041371062e-05,-2.5530232960591093e-05,0.0001041275099851191
1.280661945202155e-05,-5.2332921768538654e-05,2.8444757845136337e-05,7.963146344991401e-05,-2.6187144612777047e-05,6.640158244408667e-05
1.2397687896736898e-05,-5.257945304038003e-05,2.4177823434001766e-05,7.441628986271098e-05,-2.9583856303361244e-05,5.4640295275021344e-05
1.4467398614215199e-05,-4.981759047950618e-05,2.258248787256889e-05,6.551538535859436e-05,-3.287646541139111e-05,7.671961793676019e-05
1.4786896826990414e-05,-4.421563426149078e-05,2.2655025532003492e-05,6.137642048997805e-05,-3.0447530662058853e-05,0.00011526012531248853
1.3242380191513803e-05,-4.145315688219853e-05,2.340746323170606e-05,5.986708856653422e-05,-2.5374049073434435e-05,0.00014642188034486026
1.5392415662063286e-05,-4.3098396417917684e-05,2.3482245524064638e-05,5.6367713114013895e-05,-2.2898782845004462e-05,0.00015851366333663464
2.4725450202822685e-05,-4.457714385353029e-05,2.725407830439508e-05,5.1891303883166984e-05,-2.1588464733213186e-05,0.00015585252549499273
3.592899156501517e-05,-4.4421758502721786e-05,3.5941702662967145e-05,4.80162889289204e-05,-1.850670923886355e-05,0.0001465414243284613
4.0329563489649445e-05,-4.373201954877004e-05,4.3222909880569205e-05,3.979683606303297e-05,-1.5398742107208818e-05,0.00014002076932229102
3.757276135729626e-05,-4.5656848669750616e-05,4.4473585148807615e-05,2.831486017385032e-05,-1.4972190001572017e-05,0.0001345099153695628
3.386423850315623e-05,-5.216960562393069e-05,4.122030804865062e-05,1.884453376987949e-05,-1.960928966582287e-05,0.000117347517516464
2.8735485102515668e-05,-5.813349343952723e-05,3.586390448617749e-05,1.641329981794115e-05,-2.378906538069714e-05,8.153939415933564e-05
2.067376954073552e-05,-6.281505193328485e-05,3.2621024729451165e-05,2.0096771550015546e-05,-2.362182567594573e-05,3.322607881273143e-05
1.238208915310679e-05,-6.132358976174146e-05,3.1504107028013095e-05,2.5590126824681647e-05,-2.1865305825485848e-05,-2.879656858567614e-05
8.452540896541905e-06,-5.479239553096704e-05,3.151184137095697e-05,3.1348947231890634e-05,-2.0551960915327072e-05,-8.870130113791674e-05
1.0836591172846965e-05,-5.090553895570338e-05,3.034893779840786e-05,3.2979820389300585e-05,-2.1346400899346918e-05,-0.00011974276276305318
1.6497539036208764e-05,-4.821728362003341e-05,2.636063982208725e-05,2.1873014702578075e-05,-2.332789335923735e-05,-0.00011170615471201017
2.0350700651761144e-05,-4.505265678744763e-05,2.3760090698488057e-05,1.4591743820346892e-05,-2.336528450541664e-05,-8.511546911904588e-05
2.424505328235682e-05,-4.443369834916666e-05,2.8216983992024325e-05,2.6024608814623207e-05,-2.088066867145244e-05,-6.69770670356229e-05
2.5311614081147127e-05,-4.303521927795373e-05,3.5273471439722925e-05,4.497252302826382e-05,-2.007385228353087e-05,-5.655872882925905e-05
2.4534612748539075e-05,-3.7049725506221876e-05,3.7377361877588555e-05,5.3020892664790154e-05,-1.926046024891548e-05,-4.203787102596834e-05
2.1774434571852908e-05,-3.0637333111371845e-05,3.801229831879027e-05,4.433924186741933e-05,-1.9306591639178805e-05,-2.1478837879840285e-05
1.4758225916011725e-05,-2.8167840355308726e-05,3.996570740127936e-05,3.589250263758004e-05,-2.1382646082201973e-05,-8.533143954991829e-06
1.0086481779580936e-05,-3.112540071015246e-05,3.72205140592996e-05,3.453611861914396e-05,-2.260271503473632e-05,-5.0091575758415274e-06
8.250940481957514e-06,-3.873313471558504e-05,3.377488610567525e-05,3.0279923521447927e-05,-2.470208528393414e-05,7.264502073667245e-06
6.135991043265676e-06,-4.7561858082190156e-05,3.3913591323653236e-05,1.884604716906324e-05,-2.609065268188715e-05,3.503618427203037e-05
4.989391982235247e-06,-5.4852924222359434e-05,3.4572167351143435e-05,6.147830845293356e-06,-2.4375565772061236e-05,6.327935261651874e-05
7.797083526384085e-06,-6.129865505499765e-05,3.442322486080229e-05,4.538887310445716e-07,-1.9320150386192836e-05,7.877560710767284e-05
1.4753896721231285e-05,-6.596869934583083e-05,3.3732198062352836e-05,4.646304205380147e-06,-1.3258262697490864e-05,8.31909928820096e-05
2.230276913905982e-05,-6.986445077927783e-05,3.3267413527937606e-05,1.422235891368473e-05,-9.717426110000815e-06,8.63387540448457e-05
2.7744490580516867e-05,-7.146821735659614e-05,3.360952905495651e-05,2.332709300389979e-05,-1.1397897651477251e-05,8.881933172233403e-05
3.178485712851398e-05,-7.087963604135439e-05,3.490691233309917e-05,3.06264337268658e-05,-1.370727568428265e-05,8.402315143030137e-05
3.42044368153438e-05,-6.881985609652475e-05,3.5375946026761085e-05,3.3579715818632394e-05,-1.2866790711996146e-05,7.59341346565634e-05
3.3964490285143256e-05,-6.472934182966128e-05,3.4273038181709126e-05,3.162210850859992e-05,-1.146932572737569e-05,7.769634248688817e-05
3.2021918741520494e-05,-5.75901722186245e-05,3.299273885204457e-05,2.810902333294507e-05,-1.2637482541322242e-05,9.070079249795526e-05
3.263018516008742e-05,-4.911576252197847e-05,3.315914364065975e-05,2.3310643882723525e-05,-1.3222691450209823e-05,0.00010287935583619401
3.512332841637544e-05,-4.4022159272572026e-05,3.4962271456606686e-05,1.6312264051521197e-05,-8.862647518981248e-06,0.00010578714136499912
3.4207692806376144e-05,-4.2496536480030045e-05,3.6732359149027616e-05,1.2014251296932343e-05,-4.760337105835788e-06,0.00010144109546672553
2.8671820473391563e-05,-4.386052387417294e-05,3.407673284527846e-05,1.3461826711136382e-05,-5.994929779262748e-06,9.516672434983775e-05
2.303827386640478e-05,-4.7352106776088476e-05,2.9778037060168572e-05,1.8247081243316643e-05,-8.87384703673888e-06,9.036066330736503e-05
2.0382543880259618e-05,-4.989045555703342e-05,2.694735667319037e-05,2.2164927941048518e-05,-8.419247933488805e-06,8.641942986287177e-05
1.8359301975579e-05,-4.8635396524332464e-05,2.4263688828796148e-05,2.2566833649761975e-05,-7.057486527628498e-06,8.260046161012724e-05
1.4807964362262283e-05,-4.590858952724375e-05,2.502963070583064e-05,1.5563529814244248e-05,-6.724765171384206e-06,8.256779256043956e-05
1.03870752354851e-05,-4.055440513184294e-05,2.9652477678610012e-05,1.2329393939580768e-05,-6.136299361969577e-06,9.670818690210581e-05
9.523198968963698e-06,-3.8054211472626776e-05,3.3669166441541165e-05,1.9812521713902242e-05,-4.575364982883912e-06,0.00011780065688071772
1.0991256203851663e-05,-3.9038684917613864e-05,3.615478999563493e-05,2.237988155684434e-05,-8.504906872985885e-06,0.0001250654604518786
1.1564771739358548e-05,-4.26461010647472e-05,3.467098576948047e-05,1.9874672943842597e-05,-1.4971274140407331e-05,0.00010963196837110445
1.4520877812174149e-05,-5.0653699872782454e-05,3.0420098482863978e-05,1.7421974916942418e-05,-1.507352772023296e-05,8.508884639013559e-05
1.872372376965359e-05,-5.7751272834138945e-05,2.7522117306943983e-05,1.2935420272697229e-05,-1.0674428267520852e-05,6.654305616393685e-05
2.081559068756178e-05,-6.053021570551209e-05,2.8608559659915045e-05,6.609480806218926e-06,-5.853488801221829e-06,4.9448706704424694e-05
2.1562582332990132e-05,-5.9992547903675586e-05,3.162051871186122e-05,1.8228125782115967e-06,-6.585557912330842e-06,3.634517634054646e-05
2.6310030079912394e-05,-5.741249697166495e-05,3.382766226422973e-05,-2.857325853256043e-06,-9.331069122708868e-06,3.158009712933563e-05
3.2552838092669845e-05,-5.239722668193281e-05,3.3828731829999015e-05,-7.0605092332698405e-06,-7.320129043364432e-06,2.8997979825362563e-05
3.343530624988489e-05,-5.041356052970514e-05,3.156960883643478e-05,-1.3164021765987854e-05,-1.3037322332820622e-06,2.519984082027804e-05
3.222113082301803e-05,-4.8081095883389935e-05,2.8792857847292908e-05,-1.6712585420464166e-05,3.6527133033814607e-06,2.9168215405661613e-05
3.220330472686328e-05,-4.519399954006076e-05,2.7234869776293635e-05,-1.3502332876669243e-05,4.982060545444256e-06,4.3441981688374653e-05
3.2272058888338506e-05,-4.340388477430679e-05,2.59260086750146e-05,-6.567292075487785e-06,2.5542933599354e-06,6.22809529886581e-05
2.995589966303669e-05,-4.122113386983983e-05,2.4616116206743754e-05,3.406653149795602e-06,-2.0645002223318443e-06,7.965917029650882e-05
2.6498973966226913e-05,-3.860721335513517e-05,2.4898025003494695e-05,1.5934892871882766e-05,-4.094355062989052e-06,9.137907181866467e-05
2.8208703952259384e-05,-3.8151643821038306e-05,2.6400379283586517e-05,2.7662728825816885e-05,-6.279578428802779e-06,9.537715231999755e-05
3.71096029994078e-05,-4.065034954692237e-05,2.642352228576783e-05,3.546792140696198e-05,-1.1846172128571197e-05,9.069123188965023e-05
4.64639779238496e-05,-4.317174170864746e-05,2.5481298507656902e-05,4.1774866986088455e-05,-1.6977519408101216e-05,7.930161518743262e-05
4.928111229673959e-05,-4.640171755454503e-05,2.5742170691955835e-05,5.2373561629792675e-05,-1.6140607840497978e-05,6.125791696831584e-05
4.234814696246758e-05,-4.946672197547741e-05,2.9178985641920008e-05,7.267752516781911e-05,-1.2559770766529255e-05,3.905324047082104e-05
3.029643266927451e-05,-5.239005622570403e-05,3.580204793252051e-05,8.981404971564189e-05,-1.1312724382150918e-05,1.7115344235207886e-05
2.0256937204976566e-05,-5.559677811106667e-05,3.893905523000285e-05,8.59758656588383e-05,-1.3064382073935121e-05,2.7683773851094884e-07
1.4179619029164314e-05,-5.680427420884371e-05,3.614766683313064e-05,6.220028444658965e-05,-1.6933274309849367e-05,-6.515593213407556e-06
1.3209381904744077e-05,-5.6187283917097375e-05,3.171336720697582e-05,3.164408917655237e-05,-1.830313340178691e-05,-2.6348243409302086e-06
1.5109969353943598e-05,-5.7901579566532746e-05,2.936310920631513e-05,7.594055205117911e-06,-1.5130432075238787e-05,5.9724320635723416e-06
1.7596497855265625e-05,-5.8223300584359095e-05,2.7826054065371864e-05,-9.044950388670259e-07,-1.1648242434603162e-05,1.8580720279715024e-05
1.9108972992398776e-05,-5.163483729120344e-05,2.4732191377552226e-05,4.6498962547047995e-06,-1.1220958185731433e-05,3.405533425393514e-05
2.1920590370427817e-05,-4.3806830944959074e-05,2.121068064298015e-05,1.848835381679237e-05,-1.1292587259958964e-05,4.9537033191882074e-05
2.1789766833535396e-05,-4.1016770410351455e-05,2.3324644644162618e-05,3.963506969739683e-05,-9.85485894489102e-06,7.14617344783619e-05
1.7900643797474913e-05,-3.742393528227694e-05,2.714261063374579e-05,6.265855336096138e-05,-4.61664467366063e-06,9.609614062355831e-05
1.7723661585478112e-05,-2.8983382435399108e-05,2.5085559173021466e-05,7.111662125680596e-05,1.9813585367955966e-06,0.00010469799599377438
2.131753171852324e-05,-1.8198757970822044e-05,2.0570854758261703e-05,6.81406309013255e-05,5.3724274948763195e-06,9.955310815712437e-05
2.7863950890605338e-05,-1.3340986697585322e-05,1.94344775081845e-05,6.437567935790867e-05,6.373224096023478e-06,0.00010550397564657032
3.280591408838518e-05,-1.8179025573772378e-05,1.9258835891378112e-05,6.338456296361983e-05,5.005926595913479e-06,0.00012858799891546369
3.3720414648996666e-05,-3.5844281228492036e-05,2.2373884348780848e-05,6.452419620472938e-05,1.5308064575947355e-06,0.00014515304064843804
3.0257690013968386e-05,-5.4540836572414264e-05,2.6244168111588806e-05,6.14911041338928e-05,-3.616237790993182e-06,0.00013900370686315
2.431066423014272e-05,-5.976640750304796e-05,2.9839262424502522e-05,5.276080992189236e-05,-4.9689797378960066e-06,0.00011901541438419372
1.8006339814746752e-05,-5.626413621939719e-05,3.731760443770327e-05,4.398965393193066e-05,-3.162851953675272e-06,0.00010942846711259335
1.4600103895645589e-05,-4.905581954517402e-05,4.564931077766232e-05,3.788389221881516e-05,-1.0270579196003382e-06,0.00011780666682170704
1.4425611880142242e-05,-4.404057835927233e-05,5.0284408644074574e-05,3.194353121216409e-05,5.757816552431905e-07,0.00012679415522143245
1.5701389202149585e-05,-4.436009476194158e-05,4.991749665350653e-05,2.7945898182224482e-05,1.3515718819689937e-06,0.00012186888488940895
1.8143822671845555e-05,-5.094262451166287e-05,4.710331268142909e-05,2.956271964649204e-05,-1.5966833188940655e-06,0.00010109329741680995
1.949424586200621e-05,-6.159383337944746e-05,4.574193371809088e-05,3.2295603887178004e-05,-7.700308742641937e-06,6.831539940321818e-05
1.9232376871514134e-05,-7.087877747835591e-05,4.708831329480745e-05,3.2251497032120824e-05,-1.1389435712771956e-05,2.7671603675116785e-05
1.8088445358444005e-05,-7.105302938725799e-05,4.6976787416497245e-05,3.4455046261427924e-05,-1.2856731700594537e-05,-7.671596904401667e-06
1.6470823538838886e-05,-6.361346459016204e-05,4.388255547382869e-05,3.867831401294097e-05,-1.5075313967827242e-05,-2.195329579990357e-05
1.7635495169088244e-05,-5.588023486780003e-05,4.0211652958532795e-05,3.860937067656778e-05,-1.974558108486235e-05,-1.1358142728568055e-05
1.8900591385317966e-05,-5.165565016795881e-05,3.86010215152055e-05,3.2201511203311384e-05,-2.1395384464995004e-05,7.755147066745849e-07
1.3786525414616335e-05,-5.065271398052573e-05,3.7669571611331776e-05,2.4307404601131566e-05,-1.897262700367719e-05,6.608397143281763e-06
8.523795258952305e-06,-5.0888054829556495e-05,3.65100204362534e-05,1.259905820916174e-05,-1.4326348718896043e-05,2.433757072139997e-05
9.804520232137293e-06,-5.180998414289206e-05,3.4384269383735955e-05,-4.280504072085023e-06,-7.220953193609603e-06,4.839637767872773e-05
1.7879987353808247e-05,-5.139903805684298e-05,3.218890560674481e-05,-1.6221274563577026e-05,-2.097456217597937e-06,6.131903501227498e-05
2.832561222021468e-05,-4.884232475887984e-05,3.226360058761202e-05,-1.8202159481006674e-05,-2.8809236027882434e-06,6.278650107560679e-05
3.7415240512927994e-05,-4.76661698485259e-05,3.4535416489234194e-05,-1.6630454410915263e-05,-5.149078788235784e-06,4.983695544069633e-05
4.2253061110386625e-05,-4.933730451739393e-05,3.517161530908197e-05,-2.348358066228684e-05,-5.56039776711259e-06,3.422971349209547e-05
4.41081247117836e-05,-5.2022871386725456e-05,3.581382043194026e-05,-3.346785524627194e-05,-6.01031570113264e-06,3.722346809809096e-05
4.156064460403286e-05,-5.323910227161832e-05,3.596743772504851e-05,-3.730735261342488e-05,-8.142922524712048e-06,4.189855826552957e-05
3.386425305507146e-05,-5.288474494591355e-05,3.391545396880247e-05,-3.5936147469328716e-05,-9.85706992651103e-06,2.7252961444901302e-05
2.7292800950817764e-05,-4.985036503057927e-05,2.9783261197735555e-05,-2.3693084585829638e-05,-1.4779447155888192e-05,-1.979256921913475e-06
2.215504355262965e-05,-4.595774953486398e-05,2.9223630917840637e-05,-6.694676812912803e-06,-1.6987467461149208e-05,-1.1105505109298974e-05
1.216267264680937e-05,-3.965830183005892e-05,3.014070534845814e-05,1.3901174497732427e-05,-1.6320896975230426e-05,1.5708155842730775e-05
7.650858719898679e-07,-3.2106014259625226e-05,2.763058182608802e-05,3.60956801159773e-05,-1.846641862357501e-05,5.740364213124849e-05
-2.1162709344935138e-06,-3.168105104123242e-05,2.8098140319343656e-05,5.808809510199353e-05,-2.077100725728087e-05,8.714583236724138e-05
4.358325440989574e-06,-3.5825432860292494e-05,3.2508582080481574e-05,7.875520532252267e-05,-2.139324897143524e-05,9.748461161507294e-05
1.4336646927404217e-05,-4.0918763261288404e-05,3.5693097743205726e-05,9.485954069532454e-05,-2.1201525669312105e-05,9.742368274601176e-05
2.2163048924994655e-05,-4.552971222437918e-05,3.488441143417731e-05,0.00010248959006275982,-2.2255926523939706e-05,9.649209823692217e-05
2.5542669391143136e-05,-4.95167332701385e-05,3.3069409255404025e-05,0.00010263930744258687,-2.165371915907599e-05,0.00010199149983236566
2.3000724468147382e-05,-5.2018429414601997e-05,3.088843368459493e-05,0.00010181681136600673,-2.131481232936494e-05,0.00010303936142008752
1.716145379759837e-05,-5.4187807108974084e-05,3.049959195777774e-05,9.692298044683412e-05,-2.2498965336126275e-05,8.600319415563717e-05
1.2690122275671456e-05,-5.6457029131706804e-05,3.271293098805472e-05,8.358684863196686e-05,-2.315162419108674e-05,5.8018864365294576e-05
1.2057902495143935e-05,-5.7520817790646106e-05,3.319401730550453e-05,5.964034789940342e-05,-2.1030218704254366e-05,4.298912244848907e-05
1.3199804016039707e-05,-5.772093572886661e-05,2.8789067073375918e-05,3.45509106409736e-05,-1.862655881268438e-05,4.754516339744441e-05
1.5476243788725697e-05,-5.7581673900131136e-05,2.5156443371088244e-05,2.3769865947542712e-05,-1.6414660422015004e-05,5.260156831354834e-05
1.924042953760363e-05,-5.62886634725146e-05,2.694081013032701e-05,3.200467472197488e-05,-1.4316271517600399e-05,4.04542988690082e-05
2.2041065676603466e-05,-5.2978612075094134e-05,2.9714454285567626e-05,4.5685221266467124e-05,-1.4292224477685522e-05,1.7041475075529888e-05
2.3666232664254494e-05,-4.999880547984503e-05,3.106807344011031e-05,5.545404565054923e-05,-1.4498531527351588e-05,1.998880406972603e-06
2.657087861734908e-05,-4.9800262786448e-05,3.423843008931726e-05,6.011368168401532e-05,-1.4293176718638279e-05,7.471760909538716e-06
2.7069523639511317e-05,-5.2925861382391304e-05,3.6508638004306704e-05,6.364614819176495e-05,-1.6043139112298377e-05,1.971452365978621e-05
2.639179911056999e-05,-5.5704396800138056e-05,3.5579792893258855e-05,6.441600271500647e-05,-1.6897303794394247e-05,2.530264282540884e-05
2.7251777282799594e-05,-5.5440385040128604e-05,3.403090886422433e-05,5.013236295781098e-05,-1.3562941603595391e-05,2.850830787792802e-05
2.8578575438586995e-05,-5.419147419161163e-05,3.437058694544248e-05,2.8401151212165132e-05,-6.9556176640617196e-06,3.405127063160762e-05
2.6901861929218285e-05,-5.310318374540657e-05,3.613597436924465e-05,1.4535900845658034e-05,-9.04109469956893e-07,4.1667663026601076e-05
2.328871596546378e-05,-5.487709859153256e-05,3.6560886655934155e-05,4.951863502355991e-06,4.972034730599262e-06,4.421378980623558e-05
2.3267568394658156e-05,-5.4638629080727696e-05,3.63371946150437e-05,3.810801672443631e-06,8.528095349902287e-06,3.986005685874261e-05
2.161921474908013e-05,-5.491396950674243e-05,3.695681152748875e-05,1.1863371582876425e-05,8.60161890159361e-06,3.258821743656881e-05
2.0566152670653537e-05,-5.82719876547344e-05,3.76070493075531e-05,2.08720812224783e-05,8.132385119097307e-06,1.8835369701264426e-05
1.9643437553895637e-05,-5.6814158597262576e-05,3.7084337236592546e-05,3.0153256375342607e-05,8.006795724213589e-06,8.736765266803559e-06
1.5799361790413968e-05,-5.2606290410039946e-05,3.6300760257290676e-05,3.4040160244330764e-05,8.77909224072937e-06,2.4481585569446906e-05
1.2143881576776039e-05,-4.9646449042484164e-05,3.545441722963005e-05,2.95944519166369e-05,2.7459000193630345e-06,6.622262299060822e-05
1.220033118443098e-05,-4.832995909964666e-05,3.545886283973232e-05,2.557895095378626e-05,-1.3201311048760545e-05,0.00010748894419521093
1.4999066479504108e-05,-4.7347904910566285e-05,3.4678694646572694e-05,1.9799354049609974e-05,-3.164037116221152e-05,0.0001293183013331145
1.7628446585149504e-05,-5.0525781261967495e-05,3.3183252526214346e-05,1.147810780821601e-05,-4.2751245928229764e-05,0.00013181738904677331
1.9328219423186965e-05,-5.4451935284305364e-05,3.082699186052196e-05,8.440681995125487e-06,-4.6973837015684694e-05,0.00012584321666508913
2.184545883210376e-05,-5.459122621687129e-05,2.8391055820975453e-05,9.58315376919927e-06,-4.7106444981181994e-05,0.0001352417893940583
2.562715599196963e-05,-4.940716098644771e-05,3.0108270948403515e-05,9.092281288758386e-06,-4.240486305207014e-05,0.00016637032967992127
2.572988705651369e-05,-4.397671000333503e-05,3.516153810778633e-05,6.142922302387888e-06,-3.3318214263999835e-05,0.0001848416868597269
2.177512760681566e-05,-4.320282823755406e-05,3.774694778257981e-05,5.480400432134047e-06,-2.304263944097329e-05,0.0001505831314716488
1.680824971117545e-05,-4.563434413284995e-05,3.5204495361540467e-05,6.8871509029122535e-06,-1.2961611901118886e-05,7.325708429561928e-05
1.2856734429078642e-05,-4.9690454034134746e-05,3.243749961256981e-05,7.709488272666931e-06,-3.8206230783544015e-06,-5.2362188398547005e-06
9.725501513457857e-06,-5.224296182859689e-05,3.2212305086432025e-05,8.094227268884424e-06,2.577631221356569e-06,-5.639522350975312e-05
8.210164196498226e-06,-5.097048415336758e-05,3.360897972015664e-05,1.256735595234204e-05,8.88880549609894e-06,-7.666782767046243e-05
8.12873440736439e-06,-4.831092883250676e-05,3.496675708447583e-05,2.2258040189626627e-05,1.457949292671401e-05,-7.533686584793031e-05
1.1045736755477265e-05,-4.7200199333019555e-05,3.38188765454106e-05,3.241444574086927e-05,1.6381465684389696e-05,-6.565322109963745e-05
1.3072378351353109e-05,-4.906428875983693e-05,3.0252318538259715e-05,3.725456554093398e-05,1.5718478607595898e-05,-4.831957267015241e-05
1.2356340448604897e-05,-5.2498795412248e-05,2.6504359993850812e-05,3.611353531596251e-05,1.5096054085006472e-05,-2.3349475668510422e-05
1.4786512110731564e-05,-5.372801024350338e-05,2.3834360035834834e-05,2.8666705475188792e-05,1.4334761544887442e-05,1.168205744761508e-05
1.9748067643377e-05,-5.213791155256331e-05,2.227337972726673e-05,2.0309225874370895e-05,1.2652889381570276e-05,5.639923983835615e-05
2.363515886827372e-05,-4.730435102828778e-05,2.3493959815823473e-05,1.277650153497234e-05,8.4879347923561e-06,8.932161290431395e-05
2.2899270334164612e-05,-4.25869038735982e-05,2.5779352654353715e-05,6.794548880861839e-06,4.928157068206929e-06,9.76329465629533e-05
2.0867051716777496e-05,-3.789800757658668e-05,2.6370968043920584e-05,8.627241186331958e-06,4.0930967770691495e-06,9.502859029453248e-05
2.1908394046477042e-05,-3.655323962448165e-05,2.8378211936797015e-05,2.3612943550688215e-05,2.750285830188659e-06,8.799362694844604e-05
2.4179007596103474e-05,-3.914688932127319e-05,2.8055555958417244e-05,4.132455796934664e-05,-3.677891527331667e-06,7.802509935572743e-05
2.4302766178152524e-05,-4.176798029220663e-05,2.774117820081301e-05,4.6829667553538457e-05,-1.091929243557388e-05,6.980124453548342e-05
2.094931733154226e-05,-4.388484376249835e-05,2.868686533474829e-05,4.056351099279709e-05,-1.2914596482005436e-05,6.0718659369740635e-05
1.7803018636186607e-05,-4.7110246669035405e-05,2.663209852471482e-05,3.6477675166679546e-05,-1.3301722901815083e-05,5.754196899943054e-05
1.8120337699656375e-05,-5.02595939906314e-05,2.587143171695061e-05,4.3239746446488425e-05,-1.4464414562098682e-05,5.5790223996154964e-05
2.1209152691881172e-05,-5.465626600198448e-05,2.6981848350260407e-05,4.805766366189346e-05,-1.668344521021936e-05,5.273172791930847e-05
2.2841253667138517e-05,-6.0848651628475636e-05,2.7035419407184236e-05,4.704219099949114e-05,-1.6944950402830727e-05,5.199515726417303e-05
2.1137751900823787e-05,-6.498976290458813e-05,2.52355239354074e-05,4.386899672681466e-05,-1.5171693121374119e-05,5.62448040000163e-05
1.748097020026762e-05,-6.583905633306131e-05,2.392015085206367e-05,4.201788760838099e-05,-1.5607118257321417e-05,6.0011749155819416e-05
1.773740950739011e-05,-6.647405825788155e-05,2.461041003698483e-05,4.098410499864258e-05,-1.704313217487652e-05,6.439557910198346e-05
2.3285221686819568e-05,-6.837888940935954e-05,2.8046522857039236e-05,3.6606495996238664e-05,-1.7073176422854885e-05,7.078023190842941e-05
2.9038214051979594e-05,-6.758587551303208e-05,3.0160274036461487e-05,2.2635660570813343e-05,-1.6182282706722617e-05,7.413248386001214e-05
3.1347793992608786e-05,-6.421135913114995e-05,2.954649244202301e-05,4.105686457478441e-06,-1.5220175555441529e-05,7.378502050414681e-05
3.046170240850188e-05,-6.304728594841436e-05,2.814372601278592e-05,-7.337486295000417e-06,-1.4242854376789182e-05,7.271825597854331e-05
2.704692269617226e-05,-6.547972589032724e-05,2.7441579732112586e-05,-1.3328445675142575e-05,-1.5248197087203152e-05,7.074235327308998e-05
2.333609518245794e-05,-6.570960977114737e-05,2.595633122837171e-05,-1.7120233678724617e-05,-1.7500693502370268e-05,6.438633863581344e-05
2.3080578102963045e-05,-6.145244697108865e-05,2.3902397515485063e-05,-9.774533282325137e-06,-1.729693940433208e-05,5.740012420574203e-05
2.5229595848941244e-05,-5.6669330660952255e-05,2.4230757844634354e-05,1.2746387255901936e-05,-1.4415524674404878e-05,5.300750854075886e-05
2.6956322471960448e-05,-5.502258863998577e-05,2.6391828214400448e-05,3.6345307307783514e-05,-1.5731320672784932e-05,4.935346441925503e-05
2.926900560851209e-05,-5.3352803661255166e-05,2.786251570796594e-05,4.8515972594032064e-05,-2.5111950890277512e-05,4.575945422402583e-05
3.4109958505723625e-05,-5.13460545334965e-05,2.4260023565148003e-05,4.4338550651445985e-05,-3.729436866706237e-05,4.6218967327149585e-05
3.619127892307006e-05,-5.089918340672739e-05,2.2523377992911264e-05,2.463230339344591e-05,-4.6216227929107845e-05,5.249557943898253e-05
3.475294215604663e-05,-4.89538797410205e-05,2.7443786166259088e-05,-8.679204483996728e-07,-5.7965062296716496e-05,6.472777022281662e-05
3.3277246984653175e-05,-4.154707494308241e-05,3.081454269704409e-05,-2.0023491742904298e-05,-8.017622167244554e-05,6.954064156161621e-05
3.15388388116844e-05,-2.9880760848755017e-05,3.148798714391887e-05,-1.6856580259627663e-05,-8.953866199590266e-05,6.695033516734838e-05
2.8365171601762995e-05,-1.8790435206028633e-05,3.425540853640996e-05,8.027527655940503e-06,-7.520472718169913e-05,6.697697972413152e-05
2.819249129970558e-05,-1.5269388313754462e-05,3.59805126208812e-05,2.811549165926408e-05,-5.3301268053473905e-05,6.934224802535027e-05
2.8260885301278904e-05,-1.9434506612014957e-05,3.258845754317008e-05,3.7365101889008656e-05,-2.806551128742285e-05,6.940952880540863e-05
2.6222875021630898e-05,-2.4375180146307684e-05,3.0140676244627684e-05,4.0789218473946676e-05,-1.6092728856165195e-06,7.655804802197963e-05
2.277087332913652e-05,-2.721915916481521e-05,3.264985207351856e-05,4.127767533645965e-05,2.7329660952091217e-05,9.411911742063239e-05
1.7412350644008256e-05,-2.8068285246263258e-05,3.7264795537339523e-05,4.386188447824679e-05,5.76425481995102e-05,0.00011298538447590545
1.3340707482711878e-05,-3.350750557729043e-05,3.806502718362026e-05,5.116796091897413e-05,8.32763034850359e-05,0.0001232410140801221
9.486449016549159e-06,-4.239996269461699e-05,3.592225766624324e-05,6.741805555066094e-05,9.466734627494588e-05,0.00012280295777600259
7.695178283029236e-06,-4.8234731366392225e-05,3.715332786669023e-05,8.952083589974791e-05,8.912121847970411e-05,0.0001155597492470406
8.568365956307389e-06,-4.951961454935372e-05,3.962138725910336e-05,0.00010085976828122512,7.445182563969865e-05,0.00010322242451366037
8.809036444290541e-06,-4.8370417061960325e-05,4.04945167247206e-05,8.997714758152142e-05,5.846444400958717e-05,9.301093086833134e-05
6.505801138700917e-06,-4.6756842493778095e-05,3.876360278809443e-05,6.335975194815546e-05,4.510621874942444e-05,8.79002473084256e-05
5.891224191145739e-06,-4.597286897478625e-05,3.3932432415895164e-05,3.648619167506695e-05,3.268849468440749e-05,8.040593093028292e-05
8.918127605284099e-06,-4.575903221848421e-05,2.7704552849172615e-05,1.927907760546077e-05,2.2056150555727072e-05,6.472104723798111e-05
1.444250847271178e-05,-4.4256139517528936e-05,2.4333234250661917e-05,1.145935857493896e-05,1.4046117939869873e-05,4.371230897959322e-05
1.9827071810141206e-05,-4.199631075607613e-05,2.4658385882503353e-05,4.515659384196624e-06,7.691940481890924e-06,2.0213741663610563e-05
2.2400912712328136e-05,-4.176576840109192e-05,2.699246942938771e-05,-4.6243985707405955e-06,9.66878133112914e-07,1.070971575245494e-05
2.5085908418986946e-05,-4.470751082408242e-05,2.910796865762677e-05,-9.789791874936782e-06,-7.0128580773598514e-06,3.105386349488981e-05
2.9461833037203178e-05,-4.676525350078009e-05,3.09699826175347e-05,-1.0917865438386798e-05,-1.4134281627775636e-05,7.14073030394502e-05
3.090956306550652e-05,-4.583416011882946e-05,3.116964944638312e-05,-1.2077864084858447e-05,-1.8719370928010903e-05,0.00010355674021411687
2.7381298423279077e-05,-4.648347749025561e-05,2.768877129710745e-05,-1.1040175195375923e-05,-2.5232713596778922e-05,0.00011005077249137685
2.36039595620241e-05,-4.7520490625174716e-05,2.5085088054765947e-05,-5.555922598432517e-06,-3.0827821319689974e-05,9.403199510416016e-05
2.46257332037203e-05,-4.5393273467198014e-05,2.6728292141342536e-05,-2.3097838948160643e-06,-3.34678879880812e-05,7.492247823392972e-05
2.6372250431450084e-05,-4.7803932829992846e-05,3.0625524232164025e-05,-7.707161785219796e-06,-3.510284295771271e-05,7.066019315971062e-05
2.259251596115064e-05,-5.192099342821166e-05,3.203662345185876e-05,-2.676322401384823e-05,-3.6934856325387955e-05,7.596400973852724e-05
1.9200337192160077e-05,-5.327636608853936e-05,2.918917016359046e-05,-4.0420341974822804e-05,-4.041046850034036e-05,6.837442197138444e-05
2.128998858097475e-05,-5.3462172218132764e-05,2.6934760171570815e-05,-2.055047298199497e-05,-3.9140933949965984e-05,4.860226545133628e-05
2.4829807443893515e-05,-5.4897340305615216e-05,3.085439311689697e-05,2.418039548501838e-05,-3.50341470038984e-05,3.185067544109188e-05
2.5228922822861932e-05,-5.668091034749523e-05,3.699014268931933e-05,6.7724242398981e-05,-2.988856067531742e-05,2.830268203979358e-05
2.390761801507324e-05,-5.7121029385598376e-05,3.807658504229039e-05,9.150345431407914e-05,-2.3897164282971062e-05,4.11616092605982e-05
2.4806147848721594e-05,-5.8946283388650045e-05,3.687074058689177e-05,9.020049765240401e-05,-2.0178475097054616e-05,5.966515891486779e-05
2.7300398869556375e-05,-6.034675971022807e-05,3.705270864884369e-05,7.90786070865579e-05,-1.8488568457541987e-05,7.331310189329088e-05
2.889290772145614e-05,-6.102574843680486e-05,3.813781950157136e-05,7.355925481533632e-05,-1.8793376511894166e-05,7.541445665992796e-05
2.8641223252634518e-05,-5.804481406812556e-05,3.946976357838139e-05,7.333518442464992e-05,-1.8930160877062008e-05,6.883165769977495e-05
2.8089643819839694e-05,-5.356038673198782e-05,3.746590664377436e-05,7.118092617020011e-05,-1.9389861336094327e-05,6.5269174228888e-05
3.0484714443446137e-05,-5.207117646932602e-05,3.1641116947866976e-05,6.341982225421816e-05,-1.943966890394222e-05,6.634175224462524e-05
3.1863743060966954e-05,-5.21701731486246e-05,2.6102001356775872e-05,5.0241687858942896e-05,-1.880413583421614e-05,6.721946556353942e-05
2.9349985197768547e-05,-5.3518975619226694e-05,2.493332613084931e-05,3.6494689993560314e-05,-1.7471164028393105e-05,6.614372978219762e-05
2.4121192836901173e-05,-5.484827852342278e-05,2.813740138662979e-05,2.7659774787025526e-05,-1.6336200133082457e-05,5.853005131939426e-05
1.786216853361111e-05,-5.35494000359904e-05,3.0376666472875513e-05,2.3884782422101125e-05,-1.7041587852872908e-05,4.090837319381535e-05
1.116572821047157e-05,-4.923781307297759e-05,2.819998553604819e-05,2.0609395505744033e-05,-2.0508938177954406e-05,1.7582273358129896e-05
8.681469807925168e-06,-4.4709944631904364e-05,2.461028088873718e-05,1.4864532204228453e-05,-2.3805869204807095e-05,3.679176643345272e-06
1.1791030374297407e-05,-4.3499847379280254e-05,2.5463423298788257e-05,8.54770860314602e-06,-2.269010292366147e-05,6.034481430106098e-06
1.5064742001413833e-05,-4.5852466428186744e-05,3.199439015588723e-05,6.260399459279142e-06,-1.764073022059165e-05,1.9046161469304934e-05
1.580849857418798e-05,-4.740119766211137e-05,4.0628805436426774e-05,1.0841162293218076e-05,-1.2776519724866375e-05,2.894901263061911e-05
1.6575453628320247e-05,-4.569668817566708e-05,4.5465887524187565e-05,2.1550647943513468e-05,-9.381372365169227e-06,2.919496728281956e-05
1.8356629880145192e-05,-4.161341712460853e-05,4.530265505309217e-05,3.4884855267591774e-05,-7.295323939615628e-06,3.212143201380968e-05
1.998243351408746e-05,-3.928299338440411e-05,4.190000254311599e-05,4.471572538022883e-05,-8.715320291230455e-06,4.963785977452062e-05
1.908346348500345e-05,-4.315105979912914e-05,3.5512832255335525e-05,5.016216164221987e-05,-1.1246583198953886e-05,6.0752547142328694e-05
1.5873671145527624e-05,-5.00458299939055e-05,3.0204892027541064e-05,4.9407077312935144e-05,-1.3822132132190745e-05,5.0979233492398635e-05
1.6450805560452864e-05,-5.445192800834775e-05,2.989712629641872e-05,4.5157867134548724e-05,-1.5487252312595956e-05,5.597170820692554e-05
1.8007609469350427e-05,-5.369890641304664e-05,3.4222364774905145e-05,4.170520696789026e-05,-1.3531796867027879e-05,9.51257607084699e-05
1.9664797946461476e-05,-4.9944614147534594e-05,3.574439324438572e-05,4.324541077949107e-05,-9.560811122355517e-06,0.00013599397789221257
2.1033732991782017e-05,-4.5864522689953446e-05,3.4062926715705544e-05,5.785583925899118e-05,-1.0089121133205481e-05,0.00013579636288341135
1.9866889488184825e-05,-4.342372631072067e-05,3.33038333337754e-05,7.416876906063408e-05,-1.1970115338044707e-05,0.00010365507478127256
1.6197554941754788e-05,-4.283771704649553e-05,3.092472979915328e-05,7.87821045378223e-05,-1.3845778994436841e-05,7.600471144542098e-05
1.4263070625020191e-05,-4.009358963230625e-05,2.3341459382208996e-05,7.796013233019039e-05,-1.3207701158535201e-05,6.037117418600246e-05
1.533015711174812e-05,-3.72008653357625e-05,1.8512595488573425e-05,7.093355088727549e-05,-9.479455911787227e-06,3.613445733208209e-05
2.0312869310146198e-05,-3.835728421108797e-05,2.0811265130760148e-05,5.340523421182297e-05,-7.200105301308213e-06,-1.8202430851488316e-07
2.9667397029697895e-05,-4.265021925675683e-05,2.441690958221443e-05,3.9663082134211436e-05,-4.5043470890959725e-06,-2.4493214368703775e-05
3.632373773143627e-05,-4.726030965684913e-05,2.6024019462056458e-05,3.5215416573919356e-05,-2.2732451725460123e-06,-2.8734441002598032e-05
3.6390501918504015e-05,-5.006852370570414e-05,2.417416726530064e-05,3.145425580441952e-05,-2.949107624772296e-07,-1.9226314179832116e-05
3.245360858272761e-05,-5.030698230257258e-05,2.2645755962003022e-05,2.0771194613189436e-05,-9.42110602863977e-07,-3.941461046430561e-10
2.948532346636057e-05,-5.0867201935034245e-05,2.3307877199840732e-05,5.829819656355539e-06,-3.4277306895091897e-06,2.9521963369916193e-05
3.096048385486938e-05,-5.284414510242641e-05,2.552194746385794e-05,-5.148492618900491e-07,-5.324891390046105e-06,5.955910819466226e-05
3.711156750796363e-05,-5.432532270788215e-05,2.7379664970794693e-05,8.196951966965571e-06,-7.405049473163672e-06,7.888788968557492e-05
4.342252577771433e-05,-5.4736086894990876e-05,3.0755243642488495e-05,2.4413104256382212e-05,-9.574092473485507e-06,8.012503531062976e-05
4.3484560592332855e-05,-5.253109702607617e-05,3.3565327612450346e-05,3.68326909665484e-05,-1.0300219400960486e-05,6.46351691102609e-05
4.1262723243562505e-05,-4.590336175169796e-05,3.285032289568335e-05,4.2560481233522296e-05,-1.0407753507024609e-05,4.933509262627922e-05
4.7529636503895745e-05,-3.8206770113902166e-05,3.314992500236258e-05,4.035622987430543e-05,-1.158983741333941e-05,4.8351601435570046e-05
5.8878285926766694e-05,-3.579480107873678e-05,3.5935099731432274e-05,3.352351995999925e-05,-1.3746337572229095e-05,5.5419593991246074e-05
6.234021566342562e-05,-4.104173058294691e-05,3.569035106920637e-05,2.8260921681066975e-05,-1.774727934389375e-05,5.7591871154727414e-05
5.417138891061768e-05,-5.1272279961267486e-05,3.242095772293396e-05,2.9693215765291825e-05,-2.2501890271087177e-05,5.833702743984759e-05
3.9718812331557274e-05,-6.145656516309828e-05,3.1192572350846604e-05,3.7044486816739663e-05,-2.4153132471838035e-05,6.706241401843727e-05
2.5819266738835722e-05,-7.181309774750844e-05,3.0865972803439945e-05,4.07633233407978e-05,-2.0494589989539236e-05,7.797919533913955e-05
1.9515508029144257e-05,-8.770162094151601e-05,2.9040693334536627e-05,3.3046919270418584e-05,-1.4999654013081454e-05,8.649072697153315e-05
1.9938281184295192e-05,-0.00010204566206084564,2.8703027055598795e-05,1.9116483599646017e-05,-1.202055409521563e-05,0.00010157056385651231
2.4455724997096695e-05,-9.85220103757456e-05,3.2018426281865686e-05,8.655018064018805e-06,-1.3421738003671635e-05,0.00012925508781336248
2.7971533199888654e-05,-8.137815893860534e-05,3.7395060644485056e-05,2.23367715079803e-06,-1.3429499631456565e-05,0.00015916270785965025
2.3472162865800783e-05,-6.255579501157627e-05,4.1838960896711797e-05,-6.251817467273213e-06,-8.789279490883928e-06,0.00016421673353761435
1.4531000488204882e-05,-5.0731217925203964e-05,4.179202005616389e-05,-1.2988623893761542e-05,-4.1804050852078944e-06,0.00013597110228147358
9.385941666550934e-06,-4.609450479620136e-05,3.857344563584775e-05,-1.116977546189446e-05,-2.3903469354991103e-06,9.972448606276885e-05
8.846947821439244e-06,-4.424602593644522e-05,3.409032433410175e-05,-6.159091753943358e-06,-5.473000783240423e-06,7.934449968161061e-05
6.227737685549073e-06,-4.4961012463318184e-05,3.2045336411101744e-05,-6.961168764973991e-06,-6.460487838921836e-06,6.78000069456175e-05
3.4918666642624885e-06,-4.7252549848053604e-05,3.242655657231808e-05,-6.856928393972339e-06,-3.8666630644002e-06,5.287141175358556e-05
3.953456598537741e-06,-4.975265255779959e-05,3.054459739360027e-05,-1.861153350546374e-06,-2.5214135348505806e-06,2.4101289454847574e-05
5.260820216790307e-06,-4.7335910494439304e-05,2.829492950695567e-05,1.1884490049851593e-06,-2.947934262920171e-06,-2.2263368009589612e-05
5.341743417375255e-06,-4.4862928916700184e-05,2.9137294404790737e-05,5.54552616449655e-06,-8.331201570399571e-06,-6.833267252659425e-05
6.1168002503109165e-06,-4.741266820929013e-05,2.9915721825091168e-05,1.8033038941212e-05,-1.3922855941927992e-05,-7.774545520078391e-05
8.985515705717262e-06,-5.144689203007147e-05,2.984196544275619e-05,3.772102718357928e-05,-1.5068452739797067e-05,-4.782475662068464e-05
1.0886693416978233e-05,-5.1484170398907736e-05,2.9909215299994685e-05,5.699953544535674e-05,-1.2526370483101346e-05,-1.3932216461398639e-05
1.0179318451264407e-05,-4.937725680065341e-05,2.841236346284859e-05,7.169882155722007e-05,-1.0715933967730962e-05,-2.738968305493472e-06
8.086465641099494e-06,-4.851047560805455e-05,2.6573246941552497e-05,7.881875353632495e-05,-1.2258378774276935e-05,-6.604236205021152e-06
7.29263183529838e-06,-4.905917012365535e-05,2.5480867407168262e-05,7.54872162360698e-05,-1.4604143871110864e-05,3.2624795949232066e-06
6.762935299775563e-06,-5.04713570990134e-05,2.173888606193941e-05,6.041093001840636e-05,-1.4446789464273024e-05,3.2785104849608615e-05
7.35570392862428e-06,-5.266927837510593e-05,1.5870376955717802e-05,4.303074820199981e-05,-1.1980805538769346e-05,6.826307071605697e-05
1.04239079519175e-05,-5.5114949645940214e-05,1.4701148757012561e-05,3.2580046536168084e-05,-8.755759154155385e-06,9.186371607938781e-05
1.3464430594467558e-05,-5.4869047744432464e-05,1.874447480076924e-05,2.7739881261368282e-05,-3.7981972127454355e-06,9.382932330481708e-05
1.3141178897058126e-05,-5.026049984735437e-05,2.1192918211454526e-05,2.2553838789463043e-05,8.224882321883342e-07,7.423632632708177e-05
1.347914439975284e-05,-4.3300464312778786e-05,2.140834112651646e-05,1.7221362213604152e-05,2.807177452268661e-06,6.087323708925396e-05
1.6830077584018e-05,-4.007980533060618e-05,2.216859138570726e-05,1.4929214557923842e-05,6.788578588157179e-08,7.316586561501026e-05
1.9587616407079622e-05,-4.143056139582768e-05,2.1640249542542733e-05,1.7611173461773433e-05,-2.8332981401035795e-06,9.09051886992529e-05
2.0940762624377385e-05,-4.1976174543378875e-05,2.3591470380779356e-05,2.544191011111252e-05,-1.961983116416377e-06,9.310351742897183e-05
2.220758869952988e-05,-4.0538965549785644e-05,2.8919048418174498e-05,2.9880815418437123e-05,-3.2242407996818656e-06,7.793273107381538e-05
2.3757987946737558e-05,-4.016676393803209e-05,2.9803995857946575e-05,2.9042899768683128e-05,-7.520156941609457e-06,5.904515637666918e-05
2.4208746253862046e-05,-4.163465928286314e-05,2.55724553426262e-05,2.6528714442974888e-05,-9.759281965671107e-06,4.943551175529137e-05
2.3279668312170543e-05,-4.625752990250476e-05,2.570364813436754e-05,2.7911217330256477e-05,-8.571761100029107e-06,4.0335340599995106e-05
2.3061027604853734e-05,-4.894529047305696e-05,3.2948271837085485e-05,3.319833194836974e-05,-8.788458217168227e-06,3.449727228144184e-05
2.3783835786161944e-05,-4.44603938376531e-05,4.0820028516463935e-05,3.2386280508944765e-05,-9.807318747334648e-06,4.3593412556219846e-05
2.1274481696309522e-05,-4.070668728672899e-05,4.412354974192567e-05,2.4945609766291454e-05,-6.561447662534192e-06,5.960277485428378e-05
1.528225402580574e-05,-4.327822898630984e-05,4.372945477371104e-05,1.0396002835477702e-05,-4.9374380068911705e-06,6.94577902322635e-05
9.0136982180411e-06,-4.642554995371029e-05,4.3424355681054294e-05,-4.869054009759566e-06,-3.8102862163214013e-06,7.712993829045445e-05
6.508066690003034e-06,-4.814621206605807e-05,4.394171992316842e-05,-9.554545613355003e-06,-9.410869665771315e-07,9.330527973361313e-05
9.463732567382976e-06,-4.531779995886609e-05,4.29088031523861e-05,-7.474698122678092e-06,-2.1082860257592984e-06,0.00011158234701724723
1.4474622730631381e-05,-4.3416635890025645e-05,3.8741545722587034e-05,-8.525887096766382e-06,-5.536345724976854e-06,0.00011910085595445707
1.9222086848458275e-05,-4.843281567445956e-05,3.475366975180805e-05,-1.3555457371694501e-05,-7.525043201894732e-06,0.00011195631668670103
2.1954887415631674e-05,-5.6313012464670464e-05,3.245179323130287e-05,-1.107061962102307e-05,-8.215556590585038e-06,0.00010749115608632565
2.5855562853394076e-05,-6.072773612686433e-05,3.2921529054874554e-05,7.778538019920234e-06,-9.465048606216442e-06,0.00011079167597927153
3.316000584163703e-05,-5.956280801910907e-05,3.584777732612565e-05,3.258798096794635e-05,-1.020996569423005e-05,0.00010206855949945748
3.9572943933308125e-05,-5.785435496363789e-05,3.89608831028454e-05,4.475980676943436e-05,-1.1012891263817437e-05,6.998056051088497e-05
4.390545655041933e-05,-5.816844350192696e-05,4.001456909463741e-05,4.38628630945459e-05,-1.1463540431577712e-05,3.0478717235382646e-05
4.5970577048137784e-05,-5.944533768342808e-05,3.846179970423691e-05,3.910249870386906e-05,-9.686287739896215e-06,3.260350638356613e-07
4.680689380620606e-05,-5.916059672017582e-05,3.6677145544672385e-05,3.609469058574177e-05,-6.541169568663463e-06,-2.216117900388781e-05
4.6328357711900026e-05,-5.8260877267457545e-05,3.693656617542729e-05,3.681403904920444e-05,-4.178927611064864e-06,-3.5775985452346504e-05
4.24179233959876e-05,-5.614917608909309e-05,3.8233254599617794e-05,4.374864511191845e-05,-4.625387191481423e-06,-2.482731179043185e-05
3.2695901609258726e-05,-5.3100335208000615e-05,3.776451922021806e-05,5.363218951970339e-05,-1.0493787158338819e-05,1.2652550140046515e-05
2.0818177290493622e-05,-5.0533686589915305e-05,3.343772914377041e-05,6.03995613346342e-05,-1.9071861970587634e-05,5.8510431699687615e-05
1.2058937500114553e-05,-4.86800963699352e-05,2.704782491491642e-05,5.904252248001285e-05,-2.3102604245650582e-05,0.0001048053236445412
7.296616331586847e-06,-4.3959076720057055e-05,2.2880984033690766e-05,5.1512593927327543e-05,-1.9719404008355923e-05,0.00014478612865787
5.7196407396986615e-06,-3.8908903661649674e-05,2.328348818991799e-05,4.7277928388211876e-05,-1.14610720629571e-05,0.00015973088738974184
6.074126758903731e-06,-3.5374909202801064e-05,2.6679843358579092e-05,4.5794036850566044e-05,-7.748030839138664e-06,0.00014683725021313876
9.438736924494151e-06,-3.0341670935740694e-05,2.8982585718040355e-05,3.28513233398553e-05,-1.1502287634357344e-05,0.00012661911023315042
1.2164860891061835e-05,-2.6670770239434205e-05,2.939087244158145e-05,-2.312034212081926e-06,-1.5079280274221674e-05,0.00011028307199012488
1.0302771443093661e-05,-2.8689564715023153e-05,2.446092366881203e-05,-4.510088911047205e-05,-1.570562926644925e-05,9.202156797982752e-05
1.0142880455532577e-05,-3.406568430364132e-05,1.8872699001803994e-05,-5.242240513325669e-05,-1.362490547762718e-05,5.7317698519909754e-05
1.2750536370731425e-05,-3.907188511220738e-05,1.8316428395337425e-05,-2.485882032488007e-05,-1.1147767509100959e-05,-1.1924651516892482e-05
1.7009304428938776e-05,-4.182424527243711e-05,2.4709186618565582e-05,5.5614345910726115e-06,-1.218073521158658e-05,-8.043902926146984e-05
2.2193253244040534e-05,-3.990731420344673e-05,3.206320252502337e-05,2.615456651255954e-05,-1.4930145880498458e-05,-9.21572427614592e-05
2.6989086109097116e-05,-3.77262695110403e-05,3.4178083296865225e-05,3.065520286327228e-05,-1.6463041902170517e-05,-4.6241722884587944e-05
3.287730578449555e-05,-3.679796645883471e-05,3.444360845605843e-05,3.1083192880032584e-05,-1.2974863238923717e-05,1.353539391857339e-05
3.979368193540722e-05,-3.485685374471359e-05,3.35083095706068e-05,3.698132059071213e-05,-7.999385161383543e-06,4.745242040371522e-05
4.700717545347288e-05,-3.601791831897572e-05,3.446964910835959e-05,5.1680312026292086e-05,-7.3179066930606496e-06,5.211808820604347e-05
4.8025391151895747e-05,-4.052439908264205e-05,3.4553602745290846e-05,6.777649105060846e-05,-1.2198819604236633e-05,4.934068056172691e-05
4.2017818486783653e-05,-4.3523214117158204e-05,3.271429523010738e-05,7.948126585688442e-05,-1.5250744581862818e-05,8.107029862003401e-05
3.508499139570631e-05,-4.540895679383539e-05,3.4996734029846266e-05,8.854983025230467e-05,-1.3616147953143809e-05,0.00014150395873002708
3.2905954867601395e-05,-4.754701876663603e-05,3.8936774217290804e-05,9.231997682945803e-05,-1.1860743143188301e-05,0.00018573128909338266
3.456287959124893e-05,-5.0573904445627704e-05,3.753947385121137e-05,8.17963809822686e-05,-1.1150002137583215e-05,0.0001889659761218354
3.66546337318141e-05,-5.324386802385561e-05,3.1587365810992196e-05,6.2395709392149e-05,-1.1757221727748401e-05,0.00016345198673661798
3.714040940394625e-05,-5.5534252169309184e-05,2.560737993917428e-05,4.171120235696435e-05,-1.1249281669734046e-05,0.00013085421232972294
3.680630470626056e-05,-5.698590393876657e-05,2.298923755006399e-05,2.2723281290382147e-05,-1.065275864675641e-05,9.767428127815947e-05
3.671973536256701e-05,-5.7576282415539026e-05,2.4178643798222765e-05,1.269538734050002e-05,-1.2011242688458879e-05,6.31022994639352e-05
3.5832610592478886e-05,-5.552847505896352e-05,2.76495011348743e-05,1.2888712262792978e-05,-1.378227534587495e-05,3.1941533961798996e-05
3.212029332644306e-05,-5.123363735037856e-05,3.2189087505685166e-05,1.570123822602909e-05,-1.306824924540706e-05,2.0276342183933593e-05
2.6955438443110324e-05,-4.787849320564419e-05,3.7080411857459694e-05,1.248880653292872e-05,-1.0818401278811507e-05,3.3678410545689985e-05
2.3598404368385673e-05,-4.560807064990513e-05,3.9404745621141046e-05,7.391991402982967e-06,-9.185939234157559e-06,5.245509964879602e-05
2.456349102430977e-05,-4.551052916212939e-05,3.682745591504499e-05,8.548023288312834e-06,-9.99825988401426e-06,5.5771957704564556e-05
2.8289663532632403e-05,-4.818865636480041e-05,3.305477002868429e-05,1.9057877580053173e-05,-1.1906789950444363e-05,6.049496732885018e-05
2.717573443078436e-05,-5.017259536543861e-05,3.229865251341835e-05,2.902193955378607e-05,-1.438291474187281e-05,7.473302684957162e-05
1.849834734457545e-05,-5.308667095960118e-05,3.151256896671839e-05,2.8992819352424704e-05,-1.826902007451281e-05,7.65942531870678e-05
5.64739048058982e-06,-5.7363995438208804e-05,3.1283874704968184e-05,1.939843969012145e-05,-2.1430661945487373e-05,6.74507100484334e-05
-2.138272748197778e-06,-5.6868535466492176e-05,3.695184568641707e-05,1.5953446563798934e-05,-2.239901732536964e-05,7.548417488578707e-05
-1.9781396076723468e-06,-5.2743114792974666e-05,4.146804349147715e-05,1.85163280548295e-05,-2.2010579414200038e-05,8.973624790087342e-05
-1.202219976903507e-07,-5.02791372127831e-05,4.001881825388409e-05,1.9954713934566826e-05,-1.9830595192615874e-05,8.879275264916942e-05
-7.844570291126729e-07,-5.359611168387346e-05,3.507644578348845e-05,1.922608498716727e-05,-1.6521671568625607e-05,7.747971540084109e-05
-1.332116084995505e-06,-5.7306977396365255e-05,2.9872588129364885e-05,1.2675579455390107e-05,-1.2137779776821844e-05,6.479018338723108e-05
2.2089732283347985e-06,-5.5602926295250654e-05,2.969337765534874e-05,3.536758640620974e-06,-8.75537716638064e-06,5.7015844504348934e-05
7.595657734782435e-06,-5.2251987654017285e-05,3.152366116410121e-05,2.404492079222109e-06,-6.686622327833902e-06,5.3907355322735384e-05
1.0619437489367556e-05,-5.28681994182989e-05,3.247259519412182e-05,1.9317032638355158e-05,-5.720708941225894e-06,4.8049070755951107e-05
1.0871503036469221e-05,-5.419824083219282e-05,3.4008709917543456e-05,4.369438102003187e-05,-7.4035328907484654e-06,3.5859007766703144e-05
9.16669796424685e-06,-5.3410585678648204e-05,3.399394336156547e-05,5.8081972383661196e-05,-1.0158946679439396e-05,3.238900171709247e-05
9.479528671363369e-06,-5.191765012568794e-05,3.4625805710675195e-05,5.772388249170035e-05,-1.0579924492049031e-05,4.489342973101884e-05
1.318129216087982e-05,-5.2931176469428465e-05,3.923074109479785e-05,5.451220567920245e-05,-8.441752470389474e-06,5.7622455642558634e-05
1.9630257156677544e-05,-5.661333125317469e-05,4.394383722683415e-05,4.974310286343098e-05,-6.00565772401751e-06,5.8379348047310486e-05
2.683064121811185e-05,-5.970921483822167e-05,4.336963684181683e-05,3.959517562179826e-05,-3.5591524465417024e-06,4.998768417863175e-05
3.0212275305530056e-05,-5.803717431263067e-05,3.905569974449463e-05,3.104998904746026e-05,-1.3635113873533555e-06,3.956301588914357e-05
3.0583731131628156e-05,-5.3313262469600886e-05,3.566240411601029e-05,3.100961839663796e-05,1.5611364005962969e-06,2.8820490115322173e-05
3.2383220968768e-05,-5.0335256673861295e-05,3.457911589066498e-05,3.585399826988578e-05,1.0952767297567334e-06,1.941736445587594e-05
3.3818098017945886e-05,-5.057039379607886e-05,3.4576907637529075e-05,3.47124514519237e-05,-2.9646200800925726e-06,2.128501182596665e-05
3.218807250959799e-05,-5.231619070400484e-05,3.419237691559829e-05,2.7283034796710126e-05,-3.9635447137698065e-06,3.77763899450656e-05
2.9553024432971142e-05,-5.18699198437389e-05,3.3652293495833874e-05,2.1440057025756687e-05,-9.150826372206211e-07,5.641131065203808e-05
2.707193561946042e-05,-4.783730037161149e-05,3.5760935134021565e-05,2.1825440853717737e-05,3.764376970138983e-07,6.820338603574783e-05
2.515402957214974e-05,-4.250696656526998e-05,4.087193883606233e-05,2.1412022761069238e-05,2.2550032099388773e-06,7.27108636056073e-05
2.0372272047097795e-05,-3.935713539249264e-05,4.3231739255134016e-05,1.4835607544227969e-05,6.926016794750467e-06,7.075130270095542e-05
1.5259602150763385e-05,-4.147474828641862e-05,4.0731178160058334e-05,3.0184669412847143e-06,7.824777640053071e-06,6.161513738334179e-05
1.4778415788896382e-05,-4.743299359688535e-05,3.718623338500038e-05,-5.492897344083758e-06,2.6161192181461956e-06,4.6476441639242694e-05
1.325323319179006e-05,-5.263597267912701e-05,3.456385093159042e-05,-2.7451155801827554e-06,-2.9214052119641565e-06,3.1628434953745455e-05
1.0146052773052361e-05,-5.587564010056667e-05,3.2092168112285435e-05,9.218501872965135e-06,-5.28622467754758e-06,1.8397133317193948e-05
8.571842954552267e-06,-5.560660792980343e-05,2.9137016099411994e-05,3.295236820122227e-05,-6.308956471912097e-06,1.2919572327518836e-05
9.899184988171328e-06,-5.3329113143263385e-05,3.057817230001092e-05,5.468291055876762e-05,-5.880286607862217e-06,2.3744685677229427e-05
1.6078132830443792e-05,-4.8575839173281565e-05,3.513205228955485e-05,6.075016426621005e-05,-7.981802809808869e-06,4.471087231650017e-05
2.108883927576244e-05,-4.504316530073993e-05,3.6928577173966914e-05,6.16021643509157e-05,-1.1174349310749676e-05,6.449262582464144e-05
1.84968339453917e-05,-4.240218913764693e-05,3.515385105856694e-05,6.864455644972622e-05,-1.3043021681369282e-05,7.342688331846148e-05
8.694077223481145e-06,-4.191775224171579e-05,3.181329884682782e-05,8.31884826766327e-05,-1.635759872442577e-05,5.9451922425068915e-05
3.0309233807201963e-06,-4.3356492824386805e-05,3.05915527860634e-05,9.625643724575639e-05,-2.0290633983677253e-05,1.4522960555041209e-05
3.7902057101746323e-06,-4.574315971694887e-05,2.9911790988990106e-05,0.00010343068424845114,-2.5045663278433494e-05,-4.5657514419872314e-05
2.512958189981873e-06,-4.777758294949308e-05,3.0932809750083834e-05,0.00010018131433753297,-2.6172656362177804e-05,-6.801809649914503e-05
6.666692229373439e-07,-5.041468102717772e-05,3.31332121277228e-05,8.67967028170824e-05,-2.6141304260818288e-05,-3.409664714126848e-05
1.830687665460573e-06,-5.5995395086938515e-05,3.355817898409441e-05,6.505628698505461e-05,-2.7353955374564976e-05,1.698206688161008e-05
5.939827588008484e-06,-6.335081707220525e-05,3.165406087646261e-05,4.189510946162045e-05,-2.574919199105352e-05,5.384166433941573e-05
1.0057868166768458e-05,-7.062415534164757e-05,2.9910275770816952e-05,2.3438968128175475e-05,-2.034061253652908e-05,7.031733548501506e-05
1.1831491065095179e-05,-7.391792314592749e-05,2.8616997951758094e-05,1.2186514140921645e-05,-1.5801782865310088e-05,7.302766607608646e-05
1.561404496897012e-05,-7.109078433131799e-05,2.7576879801927134e-05,6.432242571463576e-06,-1.6961150322458707e-05,6.873080565128475e-05
2.511689490347635e-05,-6.28126654191874e-05,2.5689769245218486e-05,7.241243565658806e-06,-2.023994966293685e-05,6.362564454320818e-05
3.765851943171583e-05,-5.437773870653473e-05,2.2062367861508392e-05,1.4184737665345892e-05,-1.9999324649688788e-05,6.235958426259458e-05
4.724683822132647e-05,-4.81421229778789e-05,2.1364458007155918e-05,1.6509209672221914e-05,-1.4893639672663994e-05,6.551701517309994e-05
4.952312519890256e-05,-4.429810360306874e-05,2.5371518859174103e-05,1.0007685887103435e-05,-1.1582945262489375e-05,7.069286948535591e-05
4.48652463092003e-05,-4.140236342209391e-05,2.8219856176292524e-05,-3.3335126659039815e-08,-1.343062012892915e-05,7.422859198413789e-05
3.6983939935453236e-05,-4.1942435927921906e-05,2.6656709451344796e-05,-6.027243671269389e-06,-1.6819512893562205e-05,6.900414155097678e-05
2.8866619686596096e-05,-4.4216223614057526e-05,2.4788969312794507e-05,-6.227213361853501e-06,-1.5098902622412425e-05,6.39171339571476e-05
2.2569880457012914e-05,-4.357230136520229e-05,2.5621638997108676e-05,7.18890930784255e-07,-7.915337846498005e-06,7.685969467274845e-05
2.141414188372437e-05,-4.307742710807361e-05,2.9542623451561667e-05,8.783761586528271e-06,-1.9122740013699513e-06,9.61244513746351e-05
2.3980992409633473e-05,-4.356017234385945e-05,3.37726560246665e-05,1.1523551620484795e-05,4.980370249541011e-08,0.00010327863128622994
2.459549250488635e-05,-4.384776912047528e-05,3.8644950109301135e-05,1.3107650374877267e-05,1.2090696372979437e-06,9.992480045184493e-05
2.349251735722646e-05,-4.563829497783445e-05,4.418511161929928e-05,1.9940802303608507e-05,8.362098924408201e-07,9.515122656011954e-05
2.494066211511381e-05,-4.596493818098679e-05,4.848714524996467e-05,2.9262559110065922e-05,-4.927010650135344e-06,9.486996714258566e-05
2.869534000637941e-05,-4.4068154238630086e-05,4.690343121183105e-05,2.7422345738159493e-05,-1.023577442538226e-05,0.00010065064270747826
3.0289796995930374e-05,-4.098184945178218e-05,3.847874540952034e-05,2.1231193386483938e-05,-1.251514822797617e-05,0.00010874881991185248
2.8798873245250434e-05,-4.384024578030221e-05,2.8388369173626415e-05,2.6334473659517244e-05,-1.2863403753726743e-05,0.00010572170867817476
2.6535766664892435e-05,-4.76832028653007e-05,2.3389202397083864e-05,3.710265809786506e-05,-1.1644197911664378e-05,8.836611959850416e-05
2.5196004571625963e-05,-4.829641693504527e-05,2.546684117987752e-05,4.6742858103243634e-05,-1.2388523828121834e-05,6.664085231022909e-05
2.617310565256048e-05,-5.088839679956436e-05,2.6734514904092066e-05,4.418741445988417e-05,-1.2343205526121892e-05,4.477465699892491e-05
2.6524301574681886e-05,-5.448056981549598e-05,2.4427607058896683e-05,3.246087726438418e-05,-1.0340753760829102e-05,1.8452925360179506e-05
2.610686351545155e-05,-5.527080793399364e-05,2.2069520127843134e-05,2.034699900832493e-05,-6.844357812951785e-06,-7.4986310210078955e-06
2.545034840295557e-05,-5.163786408957094e-05,2.240398316644132e-05,1.7194468455272727e-05,-5.133079866936896e-06,-1.8269322026753798e-05
2.6246692868880928e-05,-4.97238252137322e-05,2.653571755217854e-05,1.638524372538086e-05,-6.313599897111999e-06,-5.969643098069355e-06
2.6577024982543662e-05,-4.8939236876321957e-05,3.0414777938858606e-05,1.2303469702601433e-05,-8.46287548483815e-06,2.4541810489608906e-05
2.401608435320668e-05,-4.521030859905295e-05,3.1755724194226786e-05,6.847375971119618e-06,-8.415270713157952e-06,5.362537922337651e-05
1.9232658814871684e-05,-3.8254107494140044e-05,3.0500154025503434e-05,5.7701836340129375e-06,-7.554348485427909e-06,6.632984150201082e-05
1.335997694695834e-05,-3.272191679570824e-05,2.645794847921934e-05,1.0857787856366485e-05,-8.943314242060296e-06,6.126560037955642e-05
1.253526261280058e-05,-3.0274279197328724e-05,2.2081605493440293e-05,1.346228691545548e-05,-1.1988995538558811e-05,4.6729914174648e-05
1.9306675312691368e-05,-3.259028380853124e-05,2.2374615582521074e-05,6.959794973226963e-06,-1.3807233699481003e-05,3.6422236007638276e-05
2.706502709770575e-05,-3.823723818641156e-05,2.5940153136616573e-05,-5.164838512428105e-06,-1.2646618415601552e-05,3.768571696127765e-05
2.8265383662073873e-05,-4.492026346269995e-05,2.851511089829728e-05,-1.1333154361636844e-05,-9.950755156751256e-06,4.871872079093009e-05
2.5743869628058746e-05,-4.953412644681521e-05,2.8106507670599967e-05,-8.24779363028938e-06,-8.58657222124748e-06,6.625249079661444e-05
2.2202944819582626e-05,-5.185826012166217e-05,2.460996256559156e-05,6.512414529424859e-06,-1.1361755241523497e-05,8.456045179627836e-05
1.77355050254846e-05,-5.3554576879832894e-05,2.08632573048817e-05,2.6280060410499573e-05,-1.4817021110502537e-05,9.790089825401083e-05
1.5432442523888312e-05,-5.165360926184803e-05,2.0691033569164574e-05,4.413879651110619e-05,-1.4191525224305224e-05,0.00010953847231576219
1.838541720644571e-05,-4.8431560571771115e-05,2.5985496904468164e-05,5.661881732521579e-05,-7.053531135170488e-06,0.00012137892917962745
2.135038266715128e-05,-5.003554906579666e-05,2.810035766742658e-05,6.619493797188625e-05,9.236978257831652e-07,0.00012506743951234967
2.2596344933845103e-05,-5.390235673985444e-05,2.2558255295734853e-05,6.795322406105697e-05,2.659952315298142e-06,0.0001154330384451896
2.7077279810328037e-05,-5.416648491518572e-05,1.9001825421582907e-05,6.301794928731397e-05,-2.2814776912127854e-06,9.52476475504227e-05
3.0497363695758395e-05,-5.280290133669041e-05,2.0972009224351496e-05,5.1893090130761266e-05,-1.0784229743876494e-05,7.072689913911745e-05
3.0314555260702036e-05,-5.261610203888267e-05,2.5722616555867717e-05,3.806047607213259e-05,-2.2795833501731977e-05,4.6179728087736294e-05
2.7215759473619983e-05,-5.3847223171032965e-05,2.80628682958195e-05,2.7878973924089223e-05,-3.6320448998594657e-05,1.494753723818576e-05
2.4669334379723296e-05,-5.717820022255182e-05,2.734447298280429e-05,2.1004741938668303e-05,-4.662304127123207e-05,-1.5276134945452213e-05
2.556581785029266e-05,-5.937377136433497e-05,2.7466829124023207e-05,1.5368976164609194e-05,-5.206744390306994e-05,-1.6867545127752237e-05
3.0105235055088997e-05,-5.972846338408999e-05,2.9123400963726453e-05,1.3627256521431264e-05,-5.766054164269008e-05,1.5333545889006928e-05
3.720519816852175e-05,-6.138662865851074e-05,3.235497570130974e-05,1.6172785763046704e-05,-6.104282510932535e-05,4.6347897296072915e-05
3.941164322895929e-05,-6.279083754634485e-05,3.384747469681315e-05,1.931225233420264e-05,-5.9650679759215564e-05,5.683589188265614e-05
3.5117107472615317e-05,-6.295945058809593e-05,3.575585287762806e-05,2.2421041649067774e-05,-5.096604581922293e-05,6.58419230603613e-05
3.046114397875499e-05,-6.038937863195315e-05,3.677974746096879e-05,2.5247372832382098e-05,-3.233886309317313e-05,7.890505366958678e-05
2.9244083634694107e-05,-5.6002889323281124e-05,3.85841412935406e-05,2.6239737053401768e-05,-7.215033747343114e-06,9.599179611541331e-05
2.849952034011949e-05,-5.053327913628891e-05,3.998134707217105e-05,2.7635756850941107e-05,1.8938011635327712e-05,0.00011525432637427002
2.578556814114563e-05,-4.818020897801034e-05,3.8814032450318336e-05,3.093929262831807e-05,4.3330688640708104e-05,0.0001290087675442919
2.170520747313276e-05,-4.938039637636393e-05,3.610787825891748e-05,3.079738962696865e-05,6.408085027942434e-05,0.0001311665546381846
1.9077529941569082e-05,-5.108318873681128e-05,3.468081195023842e-05,2.5980454665841535e-05,7.784289482515305e-05,0.00012077898281859234
1.9488286852720194e-05,-5.0307247875025496e-05,3.597460818127729e-05,2.222102011728566e-05,8.075028017628938e-05,0.00010603332339087501
2.1771058527519926e-05,-4.7143545089056715e-05,3.794560325331986e-05,2.6523666747380048e-05,7.231391646200791e-05,9.491341188549995e-05
2.2953914594836533e-05,-4.440279371920042e-05,3.8267029594862834e-05,3.043275501113385e-05,5.7871548051480204e-05,8.683255146024749e-05
2.3279371816897765e-05,-4.2009723983937874e-05,3.7007932405686006e-05,2.5904219000949524e-05,4.227596946293488e-05,7.388612721115351e-05
2.637602847244125e-05,-4.0616683691041544e-05,3.8011992728570476e-05,1.9627461369964294e-05,2.8790907890652306e-05,5.849167791893706e-05
3.0255729143391363e-05,-3.961623224313371e-05,3.818234472419135e-05,2.0567607862176374e-05,1.6321728253387846e-05,4.400515535962768e-05
2.9281722163432278e-05,-4.000885019195266e-05,3.584021396818571e-05,2.8216225473443046e-05,4.3595264287432656e-06,2.7934664103668183e-05
2.518800101825036e-05,-4.3832875235239044e-05,3.1948478863341734e-05,3.0028935725567862e-05,-5.580143806582782e-06,1.8605196601129137e-05
2.946017229987774e-05,-4.878742402070202e-05,3.0838029488222674e-05,1.7397560441168025e-05,-1.2782144949596841e-05,2.6874082323047332e-05
4.1042603697860613e-05,-5.133324157213792e-05,3.306704093120061e-05,1.5753744264657144e-06,-1.9183193217031658e-05,4.435319351614453e-05
4.58469039585907e-05,-5.1955536036984995e-05,3.122078851447441e-05,-8.064782377914526e-06,-2.562032750574872e-05,6.296292849583551e-05
3.487774301902391e-05,-5.084697841084562e-05,2.7786585633293726e-05,-1.0236395610263571e-05,-3.103366179857403e-05,8.382614032598212e-05
1.2319025699980557e-05,-5.1710932893911377e-05,3.252283568144776e-05,-6.1947957874508575e-06,-3.2529394957236946e-05,0.00010032044519903138
-6.988042514421977e-06,-5.202413012739271e-05,3.8813523133285344e-05,-4.204419568054618e-08,-3.2865398679859936e-05,9.171549754682928e-05
-1.9071898350375704e-05,-5.0112132157664746e-05,3.8388854591175914e-05,7.693639417993836e-06,-3.477809877949767e-05,5.569489803747274e-05
-2.2172422177391127e-05,-4.750080552184954e-05,3.534793358994648e-05,2.058117388514802e-05,-3.6491499486146495e-05,1.8536768038757145e-05
-1.8477774574421346e-05,-4.5109169150236994e-05,3.389711491763592e-05,4.1997725929832086e-05,-3.6044762964593247e-05,-4.20746800955385e-06
-1.4755615666217636e-05,-4.581164466799237e-05,3.4660966775845736e-05,6.553610000992194e-05,-3.3097741834353656e-05,-2.180191586376168e-05
-9.090671483136248e-06,-4.6865283366059884e-05,3.632785228546709e-05,7.59913818910718e-05,-2.9383641958702356e-05,-4.047907350468449e-05
-2.795889713524957e-06,-4.508030178840272e-05,3.652412488008849e-05,7.166829891502857e-05,-2.769241291389335e-05,-3.6880130210192874e-05
3.969144017901272e-06,-4.197191447019577e-05,3.300410753581673e-05,6.391445640474558e-05,-2.6517425794736482e-05,-4.435298706084723e-06
9.90450098470319e-06,-4.5022879930911586e-05,2.7572372346185148e-05,6.116587610449642e-05,-2.6568921384750865e-05,2.4540577214793302e-05
1.5256990991474595e-05,-5.089342448627576e-05,2.48438045673538e-05,6.118661258369684e-05,-2.797370689222589e-05,3.599232513806783e-05
1.799375422706362e-05,-5.115785825182684e-05,2.543408118071966e-05,6.337180093396455e-05,-3.1600564398104325e-05,4.669086411013268e-05
1.6529380445717834e-05,-4.6261237002909184e-05,2.890357791329734e-05,6.9487898144871e-05,-3.495816054055467e-05,6.476152339018881e-05
1.2363459063635673e-05,-4.329901639721356e-05,3.167209433740936e-05,7.110262231435627e-05,-3.447193739702925e-05,7.62376730563119e-05
1.0431099326524418e-05,-4.387635999592021e-05,3.270443994551897e-05,6.414620293071494e-05,-3.5251567169325426e-05,7.460772758349776e-05
1.3689975276065525e-05,-4.6002485760254785e-05,3.076418215641752e-05,5.0336606363998726e-05,-4.173634806647897e-05,7.12977271177806e-05
1.9180200979462825e-05,-5.052103006164543e-05,2.645352651597932e-05,3.339864997542463e-05,-5.218868318479508e-05,7.185609865700826e-05
2.4260925783892162e-05,-5.7282421039417386e-05,2.1419007680378854e-05,1.6630234313197434e-05,-5.955795859335922e-05,7.225217268569395e-05
2.8117530746385455e-05,-6.342113920254633e-05,2.063368447124958e-05,4.397154498292366e-06,-5.813929965370335e-05,7.095857290551066e-05
3.030675907211844e-05,-6.32394730928354e-05,2.361433143960312e-05,-5.581819664257637e-07,-5.0367882067803293e-05,6.706926797050983e-05
3.095924694207497e-05,-5.956985478405841e-05,2.500677146599628e-05,2.57402302850096e-06,-4.187571903457865e-05,6.228891288628802e-05
3.244740582886152e-05,-5.6587432482047006e-05,2.528245204302948e-05,7.679897862544749e-06,-3.142981950077228e-05,6.141099584056064e-05
3.313427441753447e-05,-5.327430699253455e-05,2.6951764084515162e-05,1.39297853820608e-05,-1.6241470802924596e-05,6.843788287369534e-05
3.6371588066685945e-05,-4.773790351464413e-05,3.129616379737854e-05,2.4399598260060884e-05,4.441008968569804e-06,8.32516307127662e-05
4.4283071474637836e-05,-4.224399890517816e-05,3.536533040460199e-05,4.3270320020383224e-05,2.2117381377029233e-05,9.372842032462358e-05
4.803186675417237e-05,-3.6586705391528085e-05,3.713891055667773e-05,6.822956493124366e-05,3.098335218965076e-05,9.671744919614866e-05
4.954220639774576e-05,-3.286002902314067e-05,3.767730959225446e-05,8.180417353287339e-05,3.610384737839922e-05,9.540018072584644e-05
5.1571434596553445e-05,-3.5507840948412195e-05,3.5282992030261084e-05,7.25677382433787e-05,3.929999365936965e-05,8.863706898409873e-05
4.842402267968282e-05,-3.8487374695250764e-05,3.287336221546866e-05,5.1054736104561016e-05,3.787983223446645e-05,8.377541962545365e-05
4.56396555819083e-05,-4.0199131035478786e-05,3.70379384548869e-05,3.555016155587509e-05,3.422535155550577e-05,7.454943988705054e-05
4.167642327956855e-05,-4.287153933546506e-05,3.827394175459631e-05,2.6321151381125674e-05,3.4080512705259025e-05,5.67128554394003e-05
3.681245289044455e-05,-4.460006675799377e-05,3.353487409185618e-05,2.1891963115194812e-05,3.561249832273461e-05,4.086517947143875e-05
3.281372846686281e-05,-4.5061748096486554e-05,2.863888585125096e-05,2.454087916703429e-05,3.1913703423924744e-05,3.541431578923948e-05
3.106549775111489e-05,-4.558914588415064e-05,2.9715898563154042e-05,3.3598502341192216e-05,2.4498067432432435e-05,3.914633271051571e-05
3.31252085743472e-05,-4.738209463539533e-05,3.3868524042190984e-05,3.681941234390251e-05,1.595504545548465e-05,4.384752901387401e-05
3.5091201425530016e-05,-5.0039845518767834e-05,3.7142304790904745e-05,3.1158808269537985e-05,1.0067698894999921e-05,4.7531437303405255e-05
3.507043220452033e-05,-5.244797284831293e-05,3.678341454360634e-05,2.5901355911628343e-05,8.93864307727199e-06,4.401051774038933e-05
3.1386010959977284e-05,-5.028275336371735e-05,3.511387330945581e-05,2.4944891265477054e-05,7.094557986420114e-06,3.955450301873498e-05
2.6480085580260493e-05,-4.451495988178067e-05,3.4800730645656586e-05,1.9650560716399923e-05,1.432454155292362e-07,4.647921014111489e-05
2.249119097541552e-05,-4.111706584808417e-05,3.310173997306265e-05,1.055444863595767e-05,-8.388485184696037e-06,6.922124157426879e-05
2.178433715016581e-05,-4.363796324469149e-05,2.9481960154953413e-05,8.153288035828155e-06,-1.5129010535019916e-05,9.70398832578212e-05
2.190237501054071e-05,-4.9869348003994673e-05,2.8402959287632257e-05,1.6074111044872552e-05,-1.908601916511543e-05,0.00011215695121791214
1.9409970263950527e-05,-5.510574919753708e-05,3.135362931061536e-05,2.4071674488368444e-05,-2.0691861209343188e-05,0.00010908107651630417
1.5599151083733886e-05,-5.754314406658523e-05,3.174827725160867e-05,2.3762373530189507e-05,-2.0593617591657676e-05,9.621198842069134e-05
1.4737443962076213e-05,-5.824577601742931e-05,2.8793139790650457e-05,2.1857702449779026e-05,-1.91757244465407e-05,7.779775478411466e-05
1.7498558008810505e-05,-5.738206527894363e-05,2.7080537620349787e-05,2.4013103029574268e-05,-1.9072420400334522e-05,5.0775259296642616e-05
1.9419880118221045e-05,-5.4281972552416846e-05,2.72942561423406e-05,2.7049920390709303e-05,-2.0837338524870574e-05,1.6701755157555453e-05
1.800022437237203e-05,-5.108091136207804e-05,2.6948733648168854e-05,2.245908763143234e-05,-2.2198828446562402e-05,-9.096945177589078e-06
1.6054533261922188e-05,-5.141984365764074e-05,2.614534241729416e-05,1.2015905667794868e-05,-2.136739931302145e-05,-6.909045623615384e-06
1.6257505194516852e-05,-5.312184293870814e-05,2.3519292881246656e-05,3.344383230796666e-06,-2.179797229473479e-05,1.9474051441648044e-05
1.4829475730948616e-05,-5.288573447614908e-05,2.152580964320805e-05,1.6977297718767659e-06,-2.2744196030544117e-05,4.902993532596156e-05
1.4696694051963277e-05,-5.2338436944410205e-05,2.321146530448459e-05,9.999006579164416e-06,-2.3966409571585245e-05,6.663684325758368e-05
1.7398171621607617e-05,-5.0839280447689816e-05,2.9995224394951947e-05,2.3544802388641983e-05,-2.4273438611999154e-05,7.686918252147734e-05
1.7203599782078527e-05,-5.149708522367291e-05,3.570081389625557e-05,2.1897187252761796e-05,-2.3154534574132413e-05,8.405341213801876e-05
1.5318344594561495e-05,-5.2730920288013294e-05,3.553250644472428e-05,1.8041332623397466e-06,-2.2875485228723846e-05,9.022538142744452e-05
1.5211780009849463e-05,-5.406434502219781e-05,3.4179083741037175e-05,-1.874310510174837e-05,-2.0858729840256274e-05,8.573864033678547e-05
1.694430466159247e-05,-5.485772271640599e-05,3.459291110630147e-05,-1.9093289665761404e-05,-1.4384990208782256e-05,6.516343273688108e-05
1.766848254192155e-05,-5.355744724511169e-05,3.530955291353166e-05,-2.3337995571637293e-06,-7.950157851155382e-06,4.360676757642068e-05
1.9035147488466464e-05,-5.3122788813197985e-05,3.4965851227752864e-05,1.6782068996690214e-05,-5.964277079328895e-06,3.87187501473818e-05
2.077283352264203e-05,-5.1384660764597356e-05,3.3935320971067995e-05,3.4582488297019154e-05,-7.5654756983567495e-06,4.756671842187643e-05
2.2044343495508656e-05,-4.874495425610803e-05,3.667355849756859e-05,5.198351209401153e-05,-9.48522392718587e-06,4.979491131962277e-05
2.2583186364499852e-05,-4.9458951252745464e-05,4.046401954838075e-05,6.864663737360388e-05,-1.0511976142879575e-05,4.3966218072455376e-05
2.099346966133453e-05,-5.293260619509965e-05,4.1856201278278604e-05,7.820532482583076e-05,-1.0191896762989927e-05,4.214497676002793e-05
1.9159351722919382e-05,-5.538878758670762e-05,3.8325972127495334e-05,7.788655784679577e-05,-1.0190346984018106e-05,4.5050452172290534e-05
1.6795562260085717e-05,-5.6437012972310185e-05,3.391477730474435e-05,7.465465751010925e-05,-1.4154046766634565e-05,4.2898311221506447e-05
1.5580286344629712e-05,-5.741986387874931e-05,3.4218712244182825e-05,7.422831549774855e-05,-1.83077972906176e-05,3.584897058317438e-05
1.5803268979652785e-05,-5.888497253181413e-05,3.72410831914749e-05,7.404878124361858e-05,-2.1626630768878385e-05,3.102288246736862e-05
1.4571491192327812e-05,-5.9902020439039916e-05,4.044582601636648e-05,6.962323823245242e-05,-2.3147569663706236e-05,3.406585528864525e-05
1.1594917850743514e-05,-5.870539098395966e-05,3.996089071733877e-05,5.851769674336538e-05,-2.2611255189985968e-05,4.730197906610556e-05
5.742014764109626e-06,-5.564138336922042e-05,3.4945347579196095e-05,4.1976523789344355e-05,-2.2235508367884904e-05,5.7046650908887386e-05
-2.465252009642427e-06,-5.32710000697989e-05,2.65295420831535e-05,2.4542634491808712e-05,-2.3815189706510864e-05,4.9311343900626525e-05
-5.711146968678804e-06,-5.3139225201448426e-05,2.238485831185244e-05,1.2615529158210848e-05,-2.5700490368762985e-05,2.8200654924148694e-05
-1.3486169336829334e-06,-5.611941378447227e-05,2.6695010092225857e-05,1.1946040103794076e-05,-2.421566932753194e-05,1.2044225513818674e-05
5.656072971760295e-06,-5.990418867440894e-05,3.4363260056125e-05,2.0926043362123892e-05,-1.943004463100806e-05,1.1332091162330471e-05
1.4130332601780538e-05,-5.9355388657422736e-05,3.815874515566975e-05,2.5769584681256674e-05,-1.3306134860613383e-05,2.5974313757615164e-05
2.3573542421218008e-05,-5.584850441664457e-05,3.5955752537120134e-05,1.893792432383634e-05,-8.227051694120746e-06,5.0052389269694686e-05
2.7608439268078655e-05,-5.423230322776362e-05,2.8589880457730033e-05,5.093238542031031e-06,-6.263452178245643e-06,7.122582610463724e-05
2.6464234906597994e-05,-5.48953321413137e-05,2.2267879103310406e-05,-8.0765166785568e-06,-8.070789590419736e-06,8.176130359061062e-05
2.721012060646899e-05,-5.4533305956283584e-05,2.140488868462853e-05,-1.1412749699957203e-05,-1.1283178537269123e-05,9.603371290722862e-05
2.9684191758860834e-05,-5.146615512785502e-05,2.476997542544268e-05,-2.185583298341953e-06,-1.3126690646458883e-05,0.00012803947902284563
2.879555177059956e-05,-4.87763863930013e-05,2.8960923373233527e-05,9.046259037859272e-06,-1.2751558642776217e-05,0.0001595908688614145
2.4291846784763038e-05,-4.7443136281799525e-05,3.2856845791684464e-05,1.8651318896445446e-05,-1.13237447294523e-05,0.0001567583531141281
2.1788069716421887e-05,-4.364519190858118e-05,3.4663371479837224e-05,2.7906444302061573e-05,-1.0319000466552097e-05,0.00010814048437168822
2.298133767908439e-05,-3.750607720576227e-05,3.4188276913482696e-05,3.2537478546146303e-05,-9.437423614144791e-06,5.069775215815753e-05
2.5775818357942626e-05,-3.653583917184733e-05,3.4565011446829885e-05,2.729251718847081e-05,-7.831344191799872e-06,2.3744330974295735e-05
2.8488346288213506e-05,-4.1379193135071546e-05,3.626399484346621e-05,2.1641533749061637e-05,-5.5653799790889025e-06,2.6927207727567293e-05
2.7218156901653856e-05,-4.473230001167394e-05,3.971439218730666e-05,2.18313725781627e-05,-5.122138645674568e-06,3.290514359832741e-05
2.5236635337932967e-05,-4.532387538347393e-05,4.1829407564364374e-05,2.6611684006638825e-05,-8.683413398102857e-06,3.292708788649179e-05
2.3393193259835243e-05,-4.6166453103069216e-05,4.040780186187476e-05,4.061080107931048e-05,-1.0606212526909076e-05,3.2133135391632095e-05
2.0913163098157384e-05,-4.895886013400741e-05,3.788716276176274e-05,5.789778151665814e-05,-1.1924998034373857e-05,3.0233726647566073e-05
1.9990093278465793e-05,-5.17935877724085e-05,3.65526502719149e-05,7.13193803676404e-05,-1.4759923033125233e-05,2.6069910745718516e-05
1.9035380319110118e-05,-5.288125612423755e-05,3.474956611171365e-05,6.815644155722111e-05,-1.815982068364974e-05,2.1898797058383934e-05
1.864453406597022e-05,-5.3052026487421244e-05,3.4262593544553965e-05,4.455511225387454e-05,-1.897873153211549e-05,2.7829906684928574e-05
1.8951192032545805e-05,-5.3509116696659476e-05,3.362196730449796e-05,1.403786245646188e-05,-1.7779640984372236e-05,4.8470999900018796e-05
1.8549566448200494e-05,-5.2868243074044585e-05,3.105794166913256e-05,-7.949016435304657e-06,-1.6871274056029506e-05,7.00978998793289e-05
1.723630884953309e-05,-4.8880832764552906e-05,2.80006952380063e-05,-1.7748247046256438e-05,-1.5015079043223523e-05,7.75579028413631e-05
1.6984678950393572e-05,-4.540720328805037e-05,2.402344580332283e-05,-2.0192288502585143e-05,-1.09060674731154e-05,7.510626164730638e-05
1.8085167539538816e-05,-4.594569327309728e-05,2.0623047021217644e-05,-1.7520464098197408e-05,-4.758680006489158e-06,7.883838406996801e-05
2.0409335775184445e-05,-4.753816392621957e-05,2.162308919650968e-05,-1.3736927940044552e-05,9.445334399060812e-07,9.718579531181604e-05
2.512200990167912e-05,-4.836525477003306e-05,2.4246877728728577e-05,-1.0014132385549601e-05,3.7638319554389454e-06,0.00011928578169317916
2.92866589006735e-05,-4.997161158826202e-05,2.2650487153441645e-05,-4.269785677024629e-06,7.748157599962724e-07,0.00012772831541951746
2.8719288820866495e-05,-5.2428138587856665e-05,1.875601810752414e-05,3.4891888844867935e-06,-4.6205254875530954e-06,0.0001179985556518659
2.3733649868518114e-05,-5.501447958522476e-05,1.7911208487930708e-05,1.4165711945679504e-05,-6.888102689117659e-06,9.124101052293554e-05
1.8606140656629577e-05,-5.814168252982199e-05,2.0216612028889358e-05,3.001601180585567e-05,-5.6313151617359836e-06,5.0392685807310045e-05
1.82024796231417e-05,-5.968679761281237e-05,1.9448145394562744e-05,4.676971002481878e-05,-5.075898570794379e-06,1.5410620108013973e-05
1.9780773072852753e-05,-5.735733066103421e-05,1.5449499187525362e-05,5.580264041782357e-05,-4.7117905523919035e-06,5.990840463709901e-07
2.0023382603540085e-05,-5.9883495850954205e-05,1.2898645763925742e-05,5.3791995014762506e-05,-2.330017196072731e-06,6.196381150402885e-07
1.8373022612649947e-05,-7.087014091666788e-05,1.7628404748393223e-05,4.6148667024681345e-05,-8.108231099868135e-07,7.579640168842161e-06
1.676977626630105e-05,-7.812125113559887e-05,2.6635629183147103e-05,3.543444836395793e-05,-1.4569327504432295e-06,2.3438265998265706e-05
2.0391940779518336e-05,-7.332525274250656e-05,3.154045407427475e-05,3.162620487273671e-05,1.3061959691640368e-07,4.4075346522731707e-05
2.854248850781005e-05,-6.477507849922404e-05,3.387486140127294e-05,3.8068708818173036e-05,-6.086967232477036e-07,6.022588786436245e-05
3.0115719710011035e-05,-5.819239595439285e-05,3.463744360487908e-05,3.924429984181188e-05,-1.7622937775740866e-06,6.645335088251159e-05
2.5914037905749865e-05,-5.138554843142629e-05,3.253058093832806e-05,3.2031788578024134e-05,-3.2421635296486784e-06,6.589107943000272e-05
2.308272451045923e-05,-4.422371057444252e-05,2.940532249340322e-05,2.638283149281051e-05,-6.456897153839236e-06,6.25838729320094e-05
2.1261761503410526e-05,-3.661982191260904e-05,2.6177744075539522e-05,2.330261850147508e-05,-7.891509085311554e-06,5.869742381037213e-05
1.8714303223532625e-05,-3.6163073673378676e-05,2.4857201424310915e-05,2.727876926655881e-05,-1.1284981155768037e-05,6.118147575762123e-05
1.418972806277452e-05,-4.11491455452051e-05,2.7337544452166185e-05,3.577176539693028e-05,-1.5105745660548564e-05,6.494935223599896e-05
1.3384824342210777e-05,-4.25845428253524e-05,3.0709474231116474e-05,4.294274913263507e-05,-1.5162877389229834e-05,6.001489236950874e-05
1.521083504485432e-05,-3.772943819058128e-05,3.171363641740754e-05,5.27885313204024e-05,-1.3072785804979503e-05,5.19607201567851e-05
1.8200877093477175e-05,-3.0029599656700157e-05,3.171593198203482e-05,6.268153811106458e-05,-1.197102483274648e-05,5.6638469686731696e-05
2.173792199755553e-05,-2.634632255649194e-05,3.302018012618646e-05,6.536961882375181e-05,-9.278156539949123e-06,7.562714745290577e-05
2.620535269670654e-05,-3.0679737392347306e-05,3.647393896244466e-05,5.729721669922583e-05,-4.84808015244198e-06,9.661967487772927e-05
3.071700848522596e-05,-4.113153045182116e-05,4.256495230947621e-05,4.684447048930451e-05,-2.02008072847093e-06,0.00010343219037167728
3.19441023748368e-05,-5.054689245298505e-05,4.7231769713107497e-05,3.89361048291903e-05,-3.28017176798312e-06,0.00010168081644224003
2.8333262889645994e-05,-5.35947983735241e-05,4.5082899305270985e-05,3.510703754727729e-05,-6.116501481301384e-06,0.00011032871407223865
2.353270974708721e-05,-5.018282899982296e-05,3.897482747561298e-05,3.4521392080932856e-05,-7.69630878494354e-06,0.00012861794675700366
2.2646820070804097e-05,-4.250557321938686e-05,3.4459073503967375e-05,3.593138535507023e-05,-7.172255209297873e-06,0.00014125689631327987
2.3744249119772576e-05,-3.6190118407830596e-05,3.214050957467407e-05,3.342703712405637e-05,-4.942482974001905e-06,0.00014176865806803107
2.6198282284894958e-05,-3.7193229218246415e-05,2.9026559786871076e-05,2.165340083593037e-05,-2.350691147512407e-06,0.00013598812802229077
2.9480632292688824e-05,-4.182702105026692e-05,2.530439269321505e-05,5.768703886133153e-06,-2.746282916632481e-06,0.00013438092719297856
3.129622564301826e-05,-4.538683788268827e-05,2.4707032935111783e-05,-4.35731271863915e-06,-8.02131398813799e-06,0.00013611682516057044
3.0119481380097568e-05,-4.6699024096596986e-05,2.525331910874229e-05,-2.327476749997004e-06,-1.1838537830044515e-05,0.00012507924111559987
2.843799302354455e-05,-4.6809680497972295e-05,2.7423946448834613e-05,9.372501153848134e-06,-8.116214303299785e-06,9.178831533063203e-05
2.9822935175616294e-05,-4.536477354122326e-05,3.303939229226671e-05,2.4218903490691446e-05,-6.724910122102301e-07,4.3300489778630435e-05
3.304618803667836e-05,-4.2787873098859563e-05,3.6522720620268956e-05,3.6278772313380614e-05,2.444094889142434e-06,-9.404059710504953e-06
3.166828537359834e-05,-4.3648589780787006e-05,3.923140320694074e-05,4.6393091906793416e-05,-3.181330839652219e-06,-6.800551636843011e-05
2.3654793039895594e-05,-4.4808475649915636e-05,4.021374843432568e-05,5.530815542442724e-05,-1.0003464922192506e-05,-8.913284545997158e-05
1.7567223039804958e-05,-4.475505920709111e-05,3.811696660704911e-05,5.719480395782739e-05,-1.1580450518522412e-05,-4.5666907681152225e-05
1.79013040906284e-05,-4.514859028859064e-05,3.8178375689312816e-05,5.100401904201135e-05,-1.179205810331041e-05,1.9620525563368574e-05
1.7965132428798825e-05,-4.0691575122764334e-05,4.027012619189918e-05,4.685070234700106e-05,-1.0248387297906447e-05,5.397182030719705e-05
1.4184673091222066e-05,-3.235877011320554e-05,4.2073595977853984e-05,5.202589090913534e-05,-1.1231418284296524e-05,2.769060301943682e-05
9.568670066073537e-06,-2.302771099493839e-05,4.068378984811716e-05,5.509211769094691e-05,-1.4387481314770412e-05,-2.0651737941079773e-05
7.715190804447047e-06,-1.685669121798128e-05,3.6434121284401044e-05,4.798232112079859e-05,-1.6753761883592233e-05,-3.466116322670132e-05
6.3578640947525855e-06,-1.8687962437979877e-05,3.014567482750863e-05,3.649920108728111e-05,-1.67661601153668e-05,-1.3322448467079084e-05
7.1761669460101984e-06,-2.734756526479032e-05,2.6416251785121858e-05,2.4922252123360522e-05,-1.190098646475235e-05,2.3190002593764802e-06
1.0887768439715728e-05,-3.6967929190723225e-05,2.68298463197425e-05,2.2335147150442936e-05,-6.126555490482133e-06,-1.6366063846362522e-06
1.2395989870128687e-05,-4.491527215577662e-05,2.7668736947816797e-05,3.204357562935911e-05,-1.8747879266811651e-06,-9.382895768794697e-06
1.0659961844794452e-05,-5.385366966947913e-05,2.853336263797246e-05,3.561922494554892e-05,-1.3654499753101845e-06,4.709578661277192e-06
9.040795703185722e-06,-6.684011168545112e-05,2.858506741176825e-05,2.0815219613723457e-05,-4.362655545264715e-06,4.764866389450617e-05
1.0743127859313972e-05,-8.082802378339693e-05,2.7895917810383253e-05,-2.699170408959617e-06,-8.89352031663293e-06,8.892413461580873e-05
1.4541180462401826e-05,-8.494950452586636e-05,2.910738294303883e-05,-1.9731443899217993e-05,-1.0785845006466843e-05,0.00010621643014019355
1.872661232482642e-05,-7.474555604858324e-05,3.233292591175996e-05,-2.2258271201280877e-05,-9.51058609643951e-06,0.00010964258399326354
2.3593112928210758e-05,-5.807552224723622e-05,3.4716409572865814e-05,-1.7425687474315055e-05,-8.004930350580253e-06,0.00010449765977682546
2.8379094146657735e-05,-4.5939501433167607e-05,3.576132075977512e-05,-1.3776844753010664e-05,-8.865787094691768e-06,7.601703691761941e-05
2.9448114219121635e-05,-4.117326170671731e-05,3.748297967831604e-05,-5.360132036003051e-06,-1.0644558642525226e-05,2.8339645723463036e-05
2.716638300626073e-05,-4.151194298174232e-05,3.932066465495154e-05,1.6429279639851302e-05,-1.1727551282092463e-05,-8.097085810732096e-06
2.7175399736734107e-05,-4.587614967022091e-05,3.8675509131280705e-05,4.016624006908387e-05,-1.2958507795701735e-05,-6.622998171224026e-06
3.1696534279035404e-05,-5.323235018295236e-05,3.7812664231751114e-05,5.313557630870491e-05,-1.2466418411349878e-05,2.4283761376864277e-05
3.2688047213014215e-05,-5.832663009641692e-05,3.561840276233852e-05,5.463747584144585e-05,-1.0141340681002475e-05,5.118258923175745e-05
2.6748899472295307e-05,-5.723096910514869e-05,3.098760498687625e-05,5.2128998504485935e-05,-7.03692148817936e-06,5.1091399654978886e-05
1.8274147805641405e-05,-5.511491690413095e-05,2.633767871884629e-05,5.276243973639794e-05,-4.96612938150065e-06,3.3240095945075154e-05
1.4265358913689852e-05,-5.687005977961235e-05,2.2938678739592433e-05,5.920902913203463e-05,-6.962588031456107e-06,3.262410609750077e-05
1.6869980754563585e-05,-5.896465154364705e-05,2.4163999114534818e-05,6.0548198234755546e-05,-1.1480877219582908e-05,6.665325054200366e-05
1.9551927834982052e-05,-5.8626814279705286e-05,2.7564306947169825e-05,4.25001562689431e-05,-1.3358549949771259e-05,9.749273158377036e-05
2.2045029254513793e-05,-5.639725350192748e-05,3.0118888389552012e-05,2.4865896193659864e-05,-1.3427810699795373e-05,0.00010261560237267986
2.5231098334188573e-05,-5.313646397553384e-05,3.0461784263025038e-05,3.160219785058871e-05,-1.087338023353368e-05,9.384107397636399e-05
2.7465894163469784e-05,-5.115226304042153e-05,3.126252704532817e-05,5.3205436415737495e-05,-5.360709565138677e-06,8.777648326940835e-05
3.1652427423978224e-05,-5.2044601034140214e-05,3.4046337532345206e-05,6.658498750766739e-05,-4.016440016130218e-06,8.984846499515697e-05
3.581571945687756e-05,-4.994879418518394e-05,3.677254426293075e-05,6.701357779093087e-05,-7.054395155137172e-06,9.15803830139339e-05
3.439093416091055e-05,-4.0322582208318636e-05,3.987320087617263e-05,6.129981920821592e-05,-7.668301805097144e-06,8.6288018792402e-05
3.0683702789247036e-05,-3.0422876079683192e-05,4.0570874261902645e-05,5.18134911544621e-05,-5.701495865650941e-06,7.733751408522949e-05
2.9909857403254136e-05,-2.6570614863885567e-05,3.988572643720545e-05,3.9371596358250827e-05,-6.746016879333183e-06,7.517882477259263e-05
3.0456074455287308e-05,-2.7971062081633136e-05,3.70450179616455e-05,2.5357927370350808e-05,-1.1456785614427645e-05,8.074301877059042e-05
2.843876791303046e-05,-3.544633000274189e-05,3.4684911952354014e-05,1.4409934919967782e-05,-1.443111523258267e-05,9.079669689526781e-05
2.4787015718175098e-05,-4.370534952613525e-05,3.5077970096608624e-05,1.183871972898487e-05,-1.577073271619156e-05,9.57696684054099e-05
2.1437665054691024e-05,-4.6373217628570274e-05,3.618252230808139e-05,1.8651655409485102e-05,-1.7032059986377135e-05,9.248786955140531e-05
2.0293511624913663e-05,-4.4177122617838904e-05,3.662534800241701e-05,2.896908699767664e-05,-1.8067141354549676e-05,8.243399497587234e-05
1.9704501028172672e-05,-4.2996034608222544e-05,3.5533532354747877e-05,3.3731150324456394e-05,-1.9224451534682885e-05,7.255130185512826e-05
