-3.4056844015140086e-05,5.612369022856001e-06,-1.3147940762792132e-06,-9.758348824107088e-06,4.963104220223613e-05
-3.101194306509569e-05,5.98917540628463e-06,-2.6431123956172087e-07,-7.156369065342005e-06,4.96740649396088e-05
-2.5492994609521702e-05,1.75758123077685e-05,3.3685880680422997e-06,-9.971047802537214e-06,5.292907735565677e-05
-1.4413410099223256e-05,3.431921504670754e-05,6.8413742155826185e-06,-1.6993240933516063e-05,5.7100216508843005e-05
1.3334218920135754e-06,4.5709901314694434e-05,4.546322088572197e-06,-2.179834700655192e-05,6.179114279802889e-05
1.6942747606663033e-05,4.5558030251413584e-05,-1.5073302392920596e-06,-2.2487127353088e-05,6.387592293322086e-05
2.599794061097782e-05,3.534782081260346e-05,-3.5801158446702175e-06,-2.205013151979074e-05,6.31654475000687e-05
2.0831412257393822e-05,2.7356269129086286e-05,-6.640713650085672e-07,-2.4750595912337303e-05,6.020714863552712e-05
8.968861038738396e-06,2.567422234278638e-05,3.640712975538918e-06,-2.721458258747589e-05,5.6507564295316115e-05
-1.7242542753592716e-06,2.5733192160259932e-05,3.886508693540236e-06,-2.544848211982753e-05,5.5444623285438865e-05
-8.976082426670473e-06,2.4330971427843906e-05,1.8695424159886898e-06,-2.513095023459755e-05,5.8945181081071496e-05
-9.991163096856326e-06,2.8315642339293845e-05,6.744472784703248e-07,-2.6494188205106184e-05,6.419897545129061e-05
-1.196243283629883e-05,3.615776586229913e-05,-1.593531237631396e-06,-2.742262222454883e-05,6.357757956720889e-05
-2.046614645223599e-05,3.900179945048876e-05,-5.185079771763412e-06,-2.6407549739815295e-05,6.035600381437689e-05
-3.2374347938457504e-05,3.717370782396756e-05,-7.165758688643109e-06,-2.4718765416764654e-05,5.755253732786514e-05
-4.261531648808159e-05,3.524320709402673e-05,-7.5270609158906154e-06,-2.1977786673232913e-05,5.6184908316936344e-05
-4.703054582932964e-05,2.8711679988191463e-05,-8.402042112720665e-06,-1.6983640307444148e-05,5.501613122760318e-05
-4.5789169234922156e-05,9.477660569245927e-06,-9.574739124218468e-06,-1.207027344207745e-05,5.229255839367397e-05
-4.2270472476957366e-05,-1.4340507732413244e-05,-8.40884240460582e-06,-1.298895676882239e-05,4.9461203161627054e-05
-3.7383215385489166e-05,-2.5911089323926717e-05,-4.412806902109878e-06,-1.80192400875967e-05,5.049951505498029e-05
-3.166597161907703e-05,-2.174231303797569e-05,7.242401807161514e-07,-2.0074860003660433e-05,5.4414431360783055e-05
-2.6334797439631075e-05,-9.358112038171384e-06,4.562128651741659e-06,-1.8256521798321046e-05,6.112202390795574e-05
-2.4531140297767706e-05,3.4575916743051494e-06,6.322476565401303e-06,-1.5067117601574864e-05,6.716484494972974e-05
-2.9444368919939734e-05,1.3020156075072009e-05,7.685403943469282e-06,-1.3833783668815158e-05,6.718546501360834e-05
-3.883469253196381e-05,2.4217562895501032e-05,5.732629233534681e-06,-1.44992045534309e-05,6.293553451541811e-05
-4.562172034638934e-05,3.533423659973778e-05,-3.0957694434619043e-06,-1.5767640434205532e-05,5.8933885156875476e-05
-4.7247383918147534e-05,3.859863863908686e-05,-8.567250006308313e-06,-1.702925692370627e-05,5.7034430938074365e-05
-4.395681025926024e-05,2.6511939722695388e-05,-7.67440451454604e-06,-1.548002546769567e-05,5.594209142145701e-05
-3.695166378747672e-05,1.3188245247874875e-05,-5.266295829642331e-06,-1.1745055417122785e-05,5.4997675761114806e-05
-3.0863007850712165e-05,1.700734719634056e-05,1.245892462975462e-06,-1.0205370926996693e-05,5.751042044721544e-05
-2.7220352421863936e-05,3.482385363895446e-05,8.902437002689112e-06,-1.0309612662240397e-05,6.293726619333029e-05
-2.3689353838562965e-05,5.2896502893418074e-05,1.5435209206771106e-05,-7.761938832118176e-06,6.566821684828028e-05
-2.1193696738919243e-05,6.078453588997945e-05,1.6298950868076645e-05,-3.795785460170009e-06,6.426764593925327e-05
-2.536222200433258e-05,6.440583092626184e-05,1.3282211511977948e-05,-8.051452482504828e-07,6.149564433144405e-05
-3.3381358662154526e-05,6.732011388521641e-05,1.2221300494275056e-05,7.701392519265937e-07,5.920786134083755e-05
-3.869911961373873e-05,6.734772614436224e-05,1.023389177134959e-05,-2.1169203137105796e-06,5.7561748690204695e-05
-3.741124601219781e-05,6.463396130129695e-05,7.049605301290285e-06,-6.434892384277191e-06,5.587140913121402e-05
-3.5497694625519216e-05,6.0327914980007336e-05,6.035645583324367e-06,-9.573881470714696e-06,5.54108846699819e-05
-3.8021276850486174e-05,5.4104370065033436e-05,7.956277841003612e-06,-8.681740837346297e-06,5.5217584304045886e-05
-4.4463966332841665e-05,4.662640640162863e-05,9.399243026564363e-06,-5.418281944002956e-06,5.679223613697104e-05
-5.034799323766492e-05,3.907966674887575e-05,8.956857527664397e-06,-3.4208010220027063e-06,6.146913074189797e-05
-5.0509057473391294e-05,3.211920920875855e-05,7.977134373504668e-06,-4.376319793664152e-06,6.608916010009125e-05
-4.6353976358659565e-05,2.7836616936838254e-05,5.7454712987237144e-06,-7.887813808338251e-06,6.830430356785655e-05
-4.423406790010631e-05,2.768382546491921e-05,2.9985753826622386e-06,-1.1718159839801956e-05,6.691780436085537e-05
-4.644124783226289e-05,3.220714279450476e-05,3.3621536204009317e-06,-1.469624930905411e-05,6.347041198750958e-05
-4.707979678642005e-05,3.878170173265971e-05,3.931852461391827e-06,-1.4961226042942144e-05,6.108653178671375e-05
-4.323533357819542e-05,4.188837556284852e-05,-2.3008503546861903e-08,-1.3864936590834986e-05,6.036816193955019e-05
-3.307161750853993e-05,3.884141187882051e-05,-4.386192813399248e-06,-1.4862698662909679e-05,5.947399768047035e-05
-2.0106552256038412e-05,3.326754813315347e-05,-1.8788462057273136e-06,-1.9195513232261874e-05,5.861992030986585e-05
-9.836305252974853e-06,3.0080687793088146e-05,4.3702166294679046e-06,-2.0928693629684858e-05,5.762054570368491e-05
-8.222511496569496e-06,3.4910786780528724e-05,4.438322775968118e-06,-1.9035587683902122e-05,5.8914996770909056e-05
-1.786916982382536e-05,4.795855056727305e-05,-2.0667980606958736e-06,-1.7626103726797737e-05,6.086464782129042e-05
-2.8601420126506127e-05,5.2200713980710134e-05,-7.525630280724727e-06,-1.8459679267834872e-05,6.006723197060637e-05
-3.1593495805282146e-05,3.879367795889266e-05,-8.511413398082368e-06,-2.0956051230314188e-05,5.636870628222823e-05
-3.410975477891043e-05,2.7629826945485547e-05,-4.272813384886831e-06,-2.3041335225570947e-05,5.52238489035517e-05
-4.215972148813307e-05,3.047796963073779e-05,3.9487588310294086e-07,-2.270921686431393e-05,5.497931124409661e-05
-4.661803541239351e-05,3.7564572267001495e-05,-4.9270433066794794e-08,-1.8349237507209182e-05,5.292777132126503e-05
-3.981958070653491e-05,3.9201499021146446e-05,-3.5689038213604363e-06,-1.3490880519384518e-05,5.240678001428023e-05
-2.7999451049254276e-05,3.844135790131986e-05,-4.104319486941677e-06,-1.0452176866238005e-05,5.457600127556361e-05
-2.2553305825567804e-05,3.878825737047009e-05,-1.3402842569121276e-06,-9.101609066419769e-06,5.774104647571221e-05
-2.460166797391139e-05,3.756428122869693e-05,1.3560213574237423e-06,-1.0718160410760902e-05,5.932131170993671e-05
-2.8743374059558846e-05,3.6868757888441905e-05,5.711384801543318e-06,-1.2124381100875326e-05,5.897210940020159e-05
-3.320075120427646e-05,3.370841659489088e-05,8.526110832463019e-06,-1.1200558219570667e-05,5.565849278355017e-05
-3.6292920412961394e-05,2.406708154012449e-05,9.022197446029168e-06,-9.178326763503719e-06,5.357776171877049e-05
-3.896071939379908e-05,8.218547009164467e-06,8.560851711081341e-06,-7.305224698939128e-06,5.668302401318215e-05
-3.8912803574930876e-05,-4.278013875591569e-06,7.145464223867748e-06,-4.9737263907445595e-06,6.257755012484267e-05
-3.695025225169957e-05,-3.3732019346643938e-06,5.292156401992543e-06,-4.646171873901039e-06,6.307477451628074e-05
-3.475337871350348e-05,4.63674359707511e-06,5.0333096623944584e-06,-8.548468031222e-06,5.667804362019524e-05
-2.920967381214723e-05,8.93383639777312e-06,8.054841600824147e-06,-1.3554894394474104e-05,5.0721660954877734e-05
-1.550918386783451e-05,1.0991464478138369e-05,1.1477216503408272e-05,-1.3724957170779817e-05,5.032644548919052e-05
4.143779733567499e-06,1.3264787412481382e-05,1.3416157344181556e-05,-8.330326636496466e-06,5.340229836292565e-05
1.899615745060146e-05,1.272173449251568e-05,1.2695446457655635e-05,-3.6009123505209573e-06,5.5172127758851275e-05
2.4296354240505025e-05,8.156003787007648e-06,1.0407758054498117e-05,-2.717037887123297e-06,5.696931475540623e-05
2.058489917544648e-05,9.912301948133972e-07,8.206722668546718e-06,-3.20834556077898e-06,5.821247395942919e-05
1.04767977973097e-05,-2.0228214907547226e-06,7.761808774375822e-06,-1.7256551245736773e-06,5.9536658227443695e-05
8.471124601783231e-08,3.7041461382614216e-06,9.829012014961336e-06,3.631335232512356e-07,6.464590842369944e-05
-5.4329680096998345e-06,1.162995340564521e-05,1.3948226296633948e-05,2.3413540475303307e-06,7.002095662755892e-05
-5.68873247175361e-06,1.1525254194566514e-05,1.666505886532832e-05,4.787976649822667e-06,7.029915286693722e-05
-4.754225301439874e-06,7.680017915845383e-06,1.5798119420651346e-05,4.066555902682012e-06,6.513477273983881e-05
-1.4573789485439193e-05,1.1620003533607814e-05,1.1976566383964382e-05,-8.071596653280722e-07,5.753178629674949e-05
-3.084047420998104e-05,2.0283412595745176e-05,8.748915206524543e-06,-4.605170033755712e-06,5.105782474856824e-05
-4.657390309148468e-05,2.901577863667626e-05,9.283073268306907e-06,-7.081852345436346e-06,5.152579615241848e-05
-5.8616209571482614e-05,3.6415731301531196e-05,1.2541293472168036e-05,-8.467782208754215e-06,5.716220402973704e-05
-6.341437256196514e-05,4.24232057412155e-05,1.7410398868378252e-05,-6.171369477669941e-06,6.3076957303565e-05
-6.435967225115746e-05,4.570645251078531e-05,1.760374470904935e-05,-2.1854932583664777e-06,6.861296424176544e-05
-6.1969825765118e-05,4.1241681174142286e-05,1.3641772966366261e-05,2.06487516152265e-06,6.94029004080221e-05
-5.901890835957602e-05,3.6402871046448126e-05,1.287976647290634e-05,2.72982310889347e-06,6.781785486964509e-05
-5.43327878403943e-05,3.5142627893947065e-05,1.4550491869158577e-05,1.030292764880869e-06,6.883642345201224e-05
-5.164421963854693e-05,3.4900840546470135e-05,1.343307758361334e-05,7.393200576188974e-07,7.172270852606744e-05
-5.087172394269146e-05,2.923425199696794e-05,1.043538941303268e-05,-3.980366898304055e-07,7.738533895462751e-05
-4.618423190549947e-05,2.0747094822581857e-05,9.215979844157118e-06,-2.75174829766911e-06,8.391578012378886e-05
-3.814125739154406e-05,1.7449858205509372e-05,1.0493686204426922e-05,-5.3778749133925885e-06,8.592132508056238e-05
-2.8995940738241188e-05,1.9152721506543458e-05,1.5227936273731757e-05,-6.533735358971171e-06,8.438428631052375e-05
-2.0515921278274618e-05,2.0076153305126354e-05,1.833546775742434e-05,-6.411761660274351e-06,8.101543062366545e-05
-1.3544629837269895e-05,2.0409981516422704e-05,1.6909285477595404e-05,-6.771042990294518e-06,7.74922373238951e-05
-8.125271961034741e-06,2.7865964511875063e-05,1.4789411579840817e-05,-7.031319000816438e-06,7.512984302593395e-05
-4.8561701078142505e-06,3.8468573620775715e-05,1.2098589650122449e-05,-4.539937435765751e-06,7.302041194634512e-05
-6.172063422127394e-06,4.369372618384659e-05,8.230078492488246e-06,-1.7392029576512869e-06,7.231676863739267e-05
-7.981770067999605e-06,4.19011885242071e-05,6.2703238654648885e-06,-1.1933677797060227e-06,7.205123256426305e-05
-5.212934411247261e-06,3.550972178345546e-05,7.75861190049909e-06,-2.0499139736784855e-06,6.982389459153637e-05
1.4349468528962461e-06,3.013255263795145e-05,9.402153409610037e-06,-3.3853539207484573e-06,6.556836160598323e-05
5.639660230372101e-06,2.844990922312718e-05,9.203174158756156e-06,-4.043081844429253e-06,6.291348108788952e-05
8.149044333549682e-06,2.6293633709428832e-05,4.4854982661490794e-06,-2.081328830172424e-06,6.196630420163274e-05
1.0651822776708286e-05,2.4106255295919254e-05,-1.0381018000771292e-06,-1.401357508257206e-06,6.108470552135259e-05
8.411655471718404e-06,1.98943216673797e-05,9.055536338564707e-07,-5.013497684558388e-06,6.0587990446947515e-05
1.129384941123135e-06,1.7483291230746545e-05,3.787222567552817e-06,-1.083026290871203e-05,5.9562651586020365e-05
-9.581879567122087e-06,2.1818492314196192e-05,3.7420586522785015e-06,-1.3973458408145234e-05,5.916893496760167e-05
-2.0156232494628057e-05,2.86828690150287e-05,5.5189379963849206e-06,-1.0778883734019473e-05,5.775798490503803e-05
-3.085149000980891e-05,3.4245942515553907e-05,6.443699021474458e-06,-8.939186045608949e-06,5.193908145884052e-05
-3.857709089061245e-05,3.347559686517343e-05,1.6205393649215694e-06,-9.722885806695558e-06,4.86558310512919e-05
-3.660783841041848e-05,2.9283413823577575e-05,-1.8693216929932532e-07,-1.10510391095886e-05,4.9324189603794366e-05
-3.1466031941818073e-05,2.7787995350081474e-05,6.154480615805369e-06,-1.1086282029282302e-05,4.855330189457163e-05
-3.183633816661313e-05,2.794977081066463e-05,9.131318620347884e-06,-8.32672776596155e-06,4.802594776265323e-05
-3.310759348096326e-05,2.9473399990820326e-05,5.110829533805372e-06,-7.88074430602137e-06,4.780229937750846e-05
-3.2671872759237885e-05,3.4162672818638384e-05,5.332856289896881e-07,-1.0604489943943918e-05,4.6948531235102564e-05
-3.413933518459089e-05,3.895382542395964e-05,-1.1226117067053565e-06,-1.402954694640357e-05,4.4088032154832035e-05
-3.493633630569093e-05,3.5611403291113675e-05,-1.18456091513508e-06,-1.3948420928500127e-05,4.1226096072932705e-05
-3.4150874853366986e-05,2.7107826099381782e-05,2.3237994355440605e-06,-1.3338531971385237e-05,4.241608257871121e-05
-3.0789855372859165e-05,2.196327841375023e-05,6.613235655095195e-06,-1.4444848602579441e-05,4.7480101784458384e-05
-2.6276507924194448e-05,2.254686114611104e-05,7.726494004600681e-06,-1.178534330392722e-05,5.456120561575517e-05
-2.1901651052758098e-05,2.6086034267791547e-05,5.917080216022441e-06,-6.989303983573336e-06,5.903332930756733e-05
-2.038471029663924e-05,3.224819010938518e-05,5.433613750938093e-06,-4.533453193289461e-06,6.0094309446867555e-05
-2.3796383175067604e-05,4.007515963166952e-05,9.70812288869638e-06,-2.5821930194069864e-06,5.926115773036145e-05
-2.7267002224107273e-05,4.479862400330603e-05,1.5049902685859706e-05,4.518796288266458e-07,5.8358724345453084e-05
-2.8732241844409145e-05,4.493418600759469e-05,1.583842094987631e-05,5.430987926047237e-07,5.8943118347087875e-05
-3.3072563383029774e-05,4.373192132334225e-05,1.239707853528671e-05,-2.431125494695152e-06,5.867987056262791e-05
-3.921314055332914e-05,4.384930070955306e-05,6.745941391272936e-06,-7.5549655775830615e-06,5.602591409115121e-05
-4.386242653708905e-05,4.584818088915199e-05,2.642898607518873e-06,-1.3526927432394587e-05,5.385156691772863e-05
-4.6745721192564815e-05,4.888734110863879e-05,4.232723313180031e-06,-1.673289625614416e-05,5.596174014499411e-05
-3.8635495002381504e-05,4.8284455260727555e-05,7.464626378350658e-06,-1.676910324022174e-05,5.7436969655100256e-05
-1.9576897102524526e-05,4.38745082647074e-05,7.732179255981464e-06,-1.6221116311498918e-05,5.40111941518262e-05
-2.8761119210685138e-06,3.798151738010347e-05,6.270425728871487e-06,-1.482476363889873e-05,5.037955634179525e-05
4.66625579065294e-06,3.568189640645869e-05,5.846679869137006e-06,-1.1467168405943085e-05,4.9582064093556255e-05
1.8377096466792864e-06,4.03764279326424e-05,3.0366561531991465e-06,-6.697336175420787e-06,5.180225343792699e-05
-1.0931714314210694e-05,4.956401608069427e-05,-7.353098112616863e-07,-4.545696810964728e-06,5.31680925632827e-05
-2.11089791264385e-05,5.676785804098472e-05,-2.0985751234547934e-06,-7.988230208866298e-06,5.4367003031075e-05
-2.0975196093786508e-05,5.511689596460201e-05,-1.6691844848537585e-06,-9.5659324870212e-06,5.363360105548054e-05
-2.0627221601898782e-05,4.029908814118244e-05,1.6651550538426818e-07,-9.223587767337449e-06,5.074279761174694e-05
-2.817068343574647e-05,1.9610861272667535e-05,6.66186053877027e-07,-9.800114639801905e-06,4.7746867494424805e-05
-3.624199234764092e-05,1.2930919183418155e-05,-3.8808727254036057e-07,-7.936309884826187e-06,4.6197903429856524e-05
-3.700820161611773e-05,1.081356003851397e-05,-3.2454370284540346e-06,-5.620458978228271e-06,5.078218237031251e-05
-3.5489589208737016e-05,-5.5167110986076295e-06,-9.136942935583647e-06,-6.9855418587394524e-06,5.458329906105064e-05
-3.7712004996137694e-05,-1.7136648239102215e-05,-1.1852448551508132e-05,-1.4248306797526311e-05,5.3522300731856376e-05
-4.082413943251595e-05,-9.631537977838889e-06,-1.2656514627451543e-05,-2.119990676874295e-05,4.9721802497515455e-05
-4.5317141484702006e-05,6.941626907064347e-06,-1.0654190191417001e-05,-2.391347152297385e-05,4.817777153220959e-05
-4.811838880414143e-05,1.628409700060729e-05,-5.304935712047154e-06,-2.2217163859750144e-05,4.8318768676836044e-05
-4.642820931621827e-05,1.9069744666921906e-05,-2.496837396392948e-06,-1.845396400312893e-05,5.129264900460839e-05
-4.1906125261448324e-05,2.2185680791153572e-05,-1.8948013575936784e-06,-1.76881567313103e-05,5.563693048316054e-05
-3.8059828511904925e-05,2.493991814844776e-05,1.3696962923859246e-06,-2.0291110558900982e-05,5.923831122345291e-05
-3.80263700208161e-05,2.588898678368423e-05,5.736128059652401e-06,-2.5263128918595612e-05,5.844383122166619e-05
-4.238651672494598e-05,2.3923154003568925e-05,6.89644457452232e-06,-2.8356957045616582e-05,5.3948035201756284e-05
-4.683460429077968e-05,2.2924743461771868e-05,3.1338422559201717e-06,-2.846352435881272e-05,5.232719558989629e-05
-4.575537604978308e-05,2.4881559511413798e-05,-2.5966342036554124e-06,-2.6570931368041784e-05,5.271793270367198e-05
-4.070642535225488e-05,2.8361077056615613e-05,-4.57570786238648e-06,-2.3297630832530558e-05,5.283363861963153e-05
-3.428286072448827e-05,2.687606138351839e-05,-4.566931238514371e-06,-1.9280116248410195e-05,5.217648867983371e-05
-2.9287148208823055e-05,1.821739351726137e-05,-3.19528476211417e-06,-1.671147947490681e-05,5.366387267713435e-05
-3.111300975433551e-05,9.554500138619915e-06,-2.0735319594678003e-06,-1.5295550838345662e-05,5.7820558140520006e-05
-4.342629108577967e-05,6.3819361457717605e-06,-1.5702513564974652e-06,-1.5779933164594695e-05,6.30605936748907e-05
-6.140495679574087e-05,7.535862550867023e-06,2.7563407911657123e-06,-1.825727849791292e-05,6.575243605766445e-05
-7.264208397828043e-05,1.1047921361750923e-05,9.399414011568297e-06,-1.791581053112168e-05,6.657839549006894e-05
-6.258180656004697e-05,1.807405897125136e-05,1.2807759048882872e-05,-1.4336860658659134e-05,6.706098065478727e-05
-3.112611739197746e-05,2.5024393835337833e-05,1.5213146980386227e-05,-1.2645194146898575e-05,6.783346179872751e-05
1.5970123058650643e-05,2.7616109946393408e-05,1.9077931938227266e-05,-1.3714935448660981e-05,6.664209649898112e-05
5.106515163788572e-05,3.110276520601474e-05,1.731911652314011e-05,-1.4079798347665928e-05,6.549220415763557e-05
5.944784061284736e-05,4.032398646813817e-05,1.2632994184968993e-05,-1.490298382123001e-05,6.786348967580125e-05
4.6860277507221326e-05,5.23586459166836e-05,1.355091626464855e-05,-1.4692603144794703e-05,6.929553637746722e-05
2.4355398636544123e-05,5.649824015563354e-05,1.6250156477326527e-05,-1.3070611203147564e-05,6.725171988364309e-05
4.538286702882033e-06,5.3063646191731095e-05,1.5250451724568848e-05,-1.1797211300290655e-05,6.465800106525421e-05
-1.1130301572848111e-05,4.902120781480335e-05,9.225173926097341e-06,-1.044563305185875e-05,6.181581557029858e-05
-1.8425496818963438e-05,4.6878656576154754e-05,6.650979230471421e-06,-9.407161087437999e-06,6.23471278231591e-05
-2.2174555851961486e-05,4.650586561183445e-05,7.431293852278031e-06,-1.0651976481312886e-05,6.385528831742704e-05
-2.4410062906099483e-05,4.9170168495038524e-05,8.652571523271035e-06,-1.456566769775236e-05,6.269878940656781e-05
-2.444012170599308e-05,5.4242809710558504e-05,8.372197044081986e-06,-1.667808828642592e-05,6.01368592469953e-05
-1.9176795831299387e-05,5.622569369734265e-05,6.966955425014021e-06,-1.5898040146566927e-05,6.105430657044053e-05
-1.398279255226953e-05,5.1734175940509886e-05,6.435863269871334e-06,-1.2883738236268982e-05,6.517527071991935e-05
-1.0580137313809246e-05,4.1932806198019534e-05,6.315748578344937e-06,-7.101096343831159e-06,6.655378092546016e-05
-1.10438058982254e-05,3.163066867273301e-05,7.550125701527577e-06,-1.4331636748465826e-06,6.517607835121453e-05
-1.216605869558407e-05,2.6219513529213145e-05,1.048443118634168e-05,1.0067456059914548e-06,6.372519419528544e-05
-1.1610303772613406e-05,2.674541246960871e-05,1.3094054338580463e-05,1.2404386779962806e-06,6.453147943830118e-05
-1.2225858881720342e-05,2.4627304810564965e-05,1.201849227072671e-05,1.667611968514393e-07,6.27830668236129e-05
-1.3755432519246824e-05,1.5042552149679977e-05,8.470020475215279e-06,-3.07419077216764e-06,5.8379973779665306e-05
-1.5961210010573268e-05,6.576508894795552e-06,4.145844286540523e-06,-3.917493813787587e-06,5.4293970606522635e-05
-2.144446079910267e-05,7.922040822450072e-06,2.3111731479730224e-06,-2.742077413131483e-06,5.4190906666917726e-05
-3.0487730327877216e-05,1.570089443703182e-05,3.5145592391927494e-06,-2.5822514544415753e-06,5.8190027630189434e-05
-3.654056854429655e-05,2.5790910513023846e-05,7.177207407949027e-06,-4.222267307341099e-06,6.230387953110039e-05
-4.220174014335498e-05,3.427455521887168e-05,1.2274475011508912e-05,-5.315440375852631e-06,6.152834976091981e-05
-4.5336968469200656e-05,3.7565871025435627e-05,1.4681391803605948e-05,-3.486036803224124e-06,5.914040593779646e-05
-4.123390681343153e-05,3.4703574783634394e-05,1.2450018402887508e-05,-1.0980030538121355e-06,5.760117346653715e-05
-2.9792125133099034e-05,3.415906030568294e-05,1.0523441233090125e-05,1.5584665788992424e-06,5.568152482737787e-05
-2.3784374207025394e-05,3.4929598768940195e-05,1.0021574780694209e-05,-5.090583954370231e-07,5.460963075165637e-05
-2.3315655198530294e-05,3.2070951419882476e-05,1.0939861567749176e-05,-5.029697604186367e-06,5.2814681112067774e-05
-2.306610986124724e-05,2.677906559256371e-05,1.0629503776726779e-05,-6.827517154306406e-06,5.26655167050194e-05
-2.961932659673039e-05,1.7259211745113134e-05,5.670478913089028e-06,-5.331015472620493e-06,5.504196087713353e-05
-4.6707908040843904e-05,5.4607048696198035e-06,5.00905116496142e-07,-3.4439108276274055e-06,6.110217509558424e-05
-6.432898953789845e-05,-2.3315567432291573e-06,-1.2971356682101032e-06,-4.648769390769303e-06,6.410213973140344e-05
-6.752599438186735e-05,-3.6410278880794067e-06,-2.1949917936581187e-06,-6.62085085423314e-06,6.053240940673277e-05
-5.729622353101149e-05,7.003742439337657e-07,-2.128285359503934e-06,-6.874472092022188e-06,5.790276190964505e-05
-4.386187356431037e-05,1.0082648259412963e-05,-1.995980483116e-06,-4.4032490222889464e-06,6.064304761821404e-05
-2.872348159144167e-05,1.7830307115218602e-05,-2.228730181741412e-06,-3.160278765790281e-06,6.626054528169334e-05
-8.858522960508708e-06,2.4639319235575385e-05,-1.4300335351435933e-06,-6.0936304180359e-06,6.739521631971002e-05
1.0140955964743625e-05,2.7672367650666274e-05,1.9776494752932194e-07,-1.2260367839189712e-05,6.353103526635095e-05
1.0279228263243567e-05,2.677737757039722e-05,3.850412610972853e-07,-1.8625347365741618e-05,5.752909783041105e-05
-1.3819127161696088e-05,2.3987478925846517e-05,-3.1905753985483898e-06,-2.3222788513521664e-05,5.226909343036823e-05
-4.340417217463255e-05,2.096064417855814e-05,-9.134882930084132e-06,-2.3790937120793387e-05,4.948182686348446e-05
-5.587757914327085e-05,1.7741765987011604e-05,-1.3875323020329233e-05,-2.197140383941587e-05,5.123598748468794e-05
-4.630713374353945e-05,1.5286919733625837e-05,-1.5251264812832233e-05,-1.9814042389043607e-05,5.708146272809245e-05
-2.9028515200479887e-05,1.3565960216510575e-05,-1.2306656572036445e-05,-1.8280199583387002e-05,6.029987343936227e-05
-1.792282455426175e-05,1.2989060451218393e-05,-4.549187451630132e-06,-1.7423506506020203e-05,5.9033147408626974e-05
-2.0119228793191724e-05,1.8251910660183057e-05,5.586213774222415e-06,-1.565215461596381e-05,5.851895548403263e-05
-3.265973646193743e-05,2.3406622858601622e-05,1.3882612620363943e-05,-1.3274554476083722e-05,6.107350054662675e-05
-4.643201100407168e-05,2.2711456040269695e-05,1.5009233720775228e-05,-1.331160638073925e-05,6.362233398249373e-05
-5.4551492212340236e-05,2.0319039322203025e-05,1.1164779607497621e-05,-1.5292765965568833e-05,6.567563104908913e-05
-5.699632674804889e-05,1.8239637938677333e-05,1.0113992175320163e-05,-1.633907959330827e-05,6.646809197263792e-05
-5.6852324632927775e-05,1.6724281522328965e-05,1.3837379810865968e-05,-1.606863042979967e-05,6.520760507555678e-05
-5.737048923037946e-05,2.0153242076048627e-05,1.7972821297007613e-05,-1.1587424523895606e-05,6.29078276688233e-05
-5.867498111911118e-05,2.1373183699324727e-05,2.325457171536982e-05,-6.591472356376471e-06,6.0174181271577254e-05
-5.709178003598936e-05,3.0439872716669925e-05,2.6908828658633865e-05,-4.181920758128399e-06,5.886258804821409e-05
-5.4765208915341645e-05,4.700534918811172e-05,2.266931187477894e-05,-1.6900346508919029e-06,5.976250395178795e-05
-4.03981284762267e-05,5.262286140350625e-05,1.5963558325893246e-05,-2.472285132171237e-06,6.13735246588476e-05
1.2647341840477111e-08,4.7674941015429795e-05,1.1044900929846335e-05,-4.3854529394593555e-06,6.318136729532853e-05
4.449467814993113e-05,4.04631755372975e-05,7.5973180173605215e-06,-5.178996616450604e-06,6.426694744732231e-05
6.49006906314753e-05,3.66638669220265e-05,5.624325240205508e-06,-4.5482811401598155e-06,6.138321623438969e-05
5.380270158639178e-05,3.8715927075827494e-05,6.024450158292893e-06,-1.336011223429523e-06,5.826820415677503e-05
2.777822555799503e-05,4.811978215002455e-05,9.264243999496102e-06,-9.745958777784836e-07,5.883970152353868e-05
6.748376108589582e-06,5.291635534376837e-05,1.2047597010678146e-05,-3.58771717401396e-06,6.253797619137913e-05
-5.622671324090334e-06,4.655315569834784e-05,1.2608647011802532e-05,-6.543064046127256e-06,6.533886335091665e-05
-1.3502553883881774e-05,3.755963552976027e-05,1.2162842722318601e-05,-5.856872121512424e-06,6.540319736814126e-05
-1.8870252461056225e-05,3.682624810608104e-05,1.131579847424291e-05,-2.5092274427152006e-06,6.307519652182236e-05
-2.1494028260349296e-05,4.138291842537001e-05,6.786052381357877e-06,7.115181688277517e-07,5.947023964836262e-05
-2.1511532395379618e-05,4.3638920033117756e-05,2.3569355107611045e-06,-3.3107622243733204e-07,5.803651220048778e-05
-2.129272797901649e-05,4.11499131587334e-05,1.409371634508716e-06,-3.975852450821549e-06,5.938680624240078e-05
-2.2120362700661644e-05,3.2849562558112666e-05,2.5085118977585807e-06,-5.6857679737731814e-06,6.096535435062833e-05
-2.5454040951444767e-05,2.2042562704882585e-05,3.931767878384562e-06,-3.1716244848212227e-06,6.017804116709158e-05
-3.1281073461286724e-05,1.7171705621876754e-05,5.186697762837866e-06,5.040524442279093e-08,5.677910667145625e-05
-3.340462353662588e-05,1.9391034584259614e-05,5.643028544000117e-06,1.606759241212785e-07,5.530994167202152e-05
-2.8099426344851963e-05,2.0905839846818708e-05,5.6088056226144545e-06,-1.317642613685166e-06,5.743701694882475e-05
-2.0985542505513877e-05,2.0741228581755422e-05,6.633453267568257e-06,-6.232737177924719e-06,5.9202291595283896e-05
-1.900523784570396e-05,2.2270016415859573e-05,7.201621883723419e-06,-1.3480095731210895e-05,6.117211887612939e-05
-2.4306697014253587e-05,2.849056909326464e-05,5.481681910168845e-06,-1.4613788152928464e-05,6.206081889104098e-05
-3.7097859603818506e-05,3.44330255757086e-05,3.9261512938537635e-06,-9.933000910677947e-06,6.14129239693284e-05
-4.806602737517096e-05,3.55543706973549e-05,2.1288287825882435e-06,-9.955860150512308e-06,5.865567800356075e-05
-4.934707249049097e-05,3.4007596696028486e-05,-7.636929808541026e-07,-1.3516759281628765e-05,5.485220390255563e-05
-4.2168201616732404e-05,3.413105514482595e-05,-1.8416128568787826e-06,-1.5226943105517421e-05,5.3354469855548814e-05
-3.13625241687987e-05,3.289871892775409e-05,-5.317222985468106e-06,-1.3278330698085483e-05,5.425750350696035e-05
-2.570217475295067e-05,3.172588549205102e-05,-6.59303123029531e-06,-1.2383197827148251e-05,5.6700453569646925e-05
-2.952816976176109e-05,2.8862648832728155e-05,-4.576526407618076e-06,-1.3804278751194943e-05,5.568830238189548e-05
-3.716607534443028e-05,2.2212161638890393e-05,-2.466466924033739e-07,-1.3462361494021025e-05,5.083883661427535e-05
-4.5547982153948396e-05,2.0733985365950502e-05,3.432545781834051e-06,-1.1911534784303512e-05,4.6693898184457794e-05
-5.3512543672695756e-05,2.7487219995236956e-05,2.5893914425978437e-06,-1.3444167962006759e-05,4.425071529112756e-05
-5.378478817874566e-05,3.547965025063604e-05,5.993512104396359e-07,-1.6236390365520492e-05,4.717117553809658e-05
-3.919030132237822e-05,3.68068867828697e-05,-1.3789795048069209e-06,-1.869012339739129e-05,5.424086339189671e-05
-1.0249269507767167e-05,3.6166125937597826e-05,-5.868402013220475e-07,-1.811750917113386e-05,5.9321977460058406e-05
1.8236318283015862e-05,3.496107456157915e-05,1.16257035642775e-06,-1.4666336028312799e-05,6.057605060050264e-05
2.4741835659369826e-05,3.182648652000353e-05,2.964532086480176e-06,-1.3815032616548706e-05,6.00747371208854e-05
3.8103889892227016e-06,2.7795049390988424e-05,2.34182812164363e-06,-1.6845557183842175e-05,5.885590871912427e-05
-2.6177864128840156e-05,2.438210867694579e-05,-1.7588907894605654e-06,-2.1732003006036393e-05,5.859005977981724e-05
-4.4476488255895674e-05,2.0616080291802064e-05,-8.688976777193602e-06,-2.4486298570991494e-05,5.9190108004258946e-05
-4.777145659318194e-05,1.5999057723092847e-05,-1.5678529962315224e-05,-2.4942808522609994e-05,5.918753959122114e-05
-4.654343138099648e-05,1.4902329894539434e-05,-1.712677658360917e-05,-2.687670166778844e-05,5.883886478841305e-05
-4.901842476101592e-05,1.964917464647442e-05,-1.3495167877408676e-05,-2.9500648452085443e-05,5.887527368031442e-05
-5.224734923103824e-05,2.7793525077868253e-05,-9.592231435817666e-06,-3.096534783253446e-05,5.660403621732257e-05
-5.237936420598999e-05,3.653932435554452e-05,-7.75602620706195e-06,-3.24527827615384e-05,5.200666782911867e-05
-5.179020809009671e-05,4.2305375245632604e-05,-3.845251285383711e-06,-3.095099964411929e-05,4.9060825404012576e-05
-4.953238749294542e-05,4.1991523175965995e-05,5.190976480662357e-06,-2.443026824039407e-05,4.969224755768664e-05
-4.1415856685489416e-05,4.055330282426439e-05,1.5780224202899262e-05,-1.7442514945287257e-05,5.4381820518756285e-05
-3.275265407864936e-05,3.633501910371706e-05,2.0933221094310284e-05,-1.4212603673513513e-05,5.866256833542138e-05
-2.8449732781155035e-05,2.370535185036715e-05,2.0252791728125885e-05,-1.266211529582506e-05,5.977955152047798e-05
-2.7651693017105572e-05,4.468952738534426e-06,1.757592508511152e-05,-1.083911229216028e-05,6.128574023023248e-05
-2.147478880942799e-05,-9.474098987993784e-06,1.698148662399035e-05,-7.693924089835491e-06,6.307579315034673e-05
-6.841130925749894e-06,-7.780653504596557e-06,2.067211244138889e-05,-2.759192966550472e-06,6.158167525427416e-05
9.90903572528623e-06,1.1952703061979264e-05,2.52858480962459e-05,-1.996808578041964e-06,6.073212716728449e-05
1.628000427444931e-05,2.9807644750690088e-05,2.653894443938043e-05,-5.416404746938497e-06,6.133876740932465e-05
6.700124686176423e-06,3.0606759537477046e-05,2.5401732273167e-05,-5.564359526033513e-06,6.441264849854633e-05
-8.11217432783451e-06,2.7160444005858153e-05,2.125932223862037e-05,-5.488148872245802e-06,6.418216798920184e-05
-2.070018854283262e-05,2.8549557100632228e-05,1.5589581380481832e-05,-5.853083166584838e-06,5.934377259109169e-05
-2.3679898731643334e-05,3.230633956263773e-05,1.2889950994576793e-05,-5.586526640399825e-06,5.905606667511165e-05
-2.018608938669786e-05,2.7850750484503806e-05,1.105260889744386e-05,-5.804219199490035e-06,6.267283606575802e-05
-1.948506906046532e-05,1.9858462110278197e-05,9.452853191760369e-06,-5.629859515465796e-06,6.600476626772434e-05
-2.905984001699835e-05,1.3912039321439806e-05,8.26943141873926e-06,-5.361924650060246e-06,6.598906475119293e-05
-4.112163151148707e-05,1.2025362593703903e-05,7.270050446095411e-06,-4.005651589977788e-06,6.463749741669744e-05
-4.950066067976877e-05,1.0320522051188163e-05,4.550798166746972e-06,-3.7167569644225296e-06,6.484980985987931e-05
-5.489373506861739e-05,6.575372026418336e-06,3.299429618408567e-09,-6.2638832787342835e-06,6.48008644930087e-05
-5.473228884511627e-05,5.691179921996081e-06,-1.1693620081132394e-06,-7.629059382452397e-06,6.568319076905027e-05
-4.980276571586728e-05,1.2796775990864262e-05,3.208878524674219e-06,-5.644780230795732e-06,7.048546831356362e-05
-4.373721094452776e-05,2.649745329108555e-05,9.073930414160714e-06,-4.253808583598584e-06,7.399048627121374e-05
-3.7180034269113094e-05,3.915216802852228e-05,1.0803791155922227e-05,-2.2310621261567576e-06,7.35240028006956e-05
-2.384941944910679e-05,4.622295091394335e-05,1.0783900506794453e-05,1.483877554164792e-06,7.189534517237917e-05
-2.6503853405301925e-06,4.74859079986345e-05,1.2425679415173363e-05,2.8287499844736885e-06,6.920256419107318e-05
1.6826417777338065e-05,4.9187881813850254e-05,1.4845917576167267e-05,8.019734991648875e-07,6.648838461842388e-05
2.071572635031771e-05,5.244870772003196e-05,1.5766538126626983e-05,-2.0776374185516033e-06,6.58144781482406e-05
8.05466879683081e-06,5.686374061042443e-05,1.5871528376010247e-05,-3.5758687317866134e-06,6.670833681710064e-05
-1.0398656741017476e-05,6.52653761790134e-05,1.3810449672746472e-05,-2.9774776066915365e-06,6.681856757495552e-05
-2.2358344722306356e-05,7.276511314557865e-05,9.318757292930968e-06,-1.2518003131845035e-06,6.664646207354963e-05
-2.8923708669026382e-05,6.490891973953694e-05,6.337630111374892e-06,-1.7563094161232584e-06,6.749613385181874e-05
-3.760130130103789e-05,4.674063893617131e-05,6.462650617322652e-06,-3.7225665892037796e-06,6.595285231014714e-05
-4.376968718133867e-05,3.090684913331643e-05,6.714885330438847e-06,-4.730672571895411e-06,6.16592078586109e-05
-4.416275260155089e-05,1.9945366148022003e-05,3.5970726912637474e-06,-5.916002919548191e-06,5.999381755827926e-05
-4.7301309678005055e-05,1.2419274753483478e-05,-8.896032355210082e-09,-9.887466148938984e-06,6.103045234340243e-05
-5.739223342970945e-05,1.0411443327029701e-05,-1.9925175820389995e-06,-1.3054539522272535e-05,5.811499431729317e-05
-6.646785914199427e-05,9.406738172401674e-06,-1.4446299019255093e-06,-1.1969962542934809e-05,5.215094279265031e-05
-6.177656177897006e-05,8.61099579196889e-06,-1.2999496448173886e-06,-9.611517270968761e-06,4.9347647291142493e-05
-4.6456163545371965e-05,1.3760583897237666e-05,-6.508183787445887e-07,-6.945796485524625e-06,5.167769631952979e-05
-2.9703793188673444e-05,1.8683662347029895e-05,-1.1475167411845177e-06,-7.453752459696261e-06,5.3498173656407744e-05
-1.8992108380189165e-05,2.0300567484810017e-05,-2.331784799025627e-06,-1.0945327630906831e-05,5.136882828082889e-05
-1.6733316442696378e-05,2.2217713194550015e-05,-2.4289417979161954e-06,-1.2584801879711449e-05,4.8997917474480346e-05
-1.8873033695854247e-05,2.5060859115910716e-05,-3.826762167591369e-06,-1.0511786967981607e-05,4.786209683516063e-05
-1.944548057508655e-05,2.8382350137690082e-05,-6.433278485928895e-06,-6.62098409520695e-06,5.117819091537967e-05
-2.0159246560069732e-05,2.5019357053679414e-05,-9.836781828198582e-06,-5.567739663092652e-06,5.56429113203194e-05
-2.160549229301978e-05,1.6686733943060972e-05,-9.833372132561635e-06,-6.75251976645086e-06,5.672836414305493e-05
-2.1078172721900046e-05,1.64937609952176e-05,-8.259336937044282e-06,-7.222756266855868e-06,5.5251948651857674e-05
-2.057451638393104e-05,2.7286780095892027e-05,-6.520212991745211e-06,-8.239826456701849e-06,5.452514233184047e-05
-2.1073779862490483e-05,3.836163887172006e-05,-2.4305340957653243e-06,-1.179498212877661e-05,5.5008633353281766e-05
-2.3114354917197488e-05,4.0496921428712085e-05,2.9165976229705848e-06,-1.4829720385023393e-05,5.714596409234218e-05
-2.5785097022890113e-05,3.7840607546968386e-05,6.840916739747627e-06,-1.469050857849652e-05,5.8950197853846475e-05
-2.8716871383949183e-05,3.714839112944901e-05,8.546418939658906e-06,-1.3021807717450429e-05,5.63944413443096e-05
-2.8813115932280198e-05,3.763074710150249e-05,6.428696451621363e-06,-1.008339586405782e-05,5.388237696024589e-05
-2.7950471121584997e-05,3.357401874382049e-05,2.4153600861609448e-06,-6.5683038883435074e-06,5.204428089200519e-05
-2.7040241548093036e-05,2.766114084806759e-05,3.902957530499407e-07,-7.852812814235222e-06,4.9723716074367985e-05
-2.3679574951529503e-05,2.4520197257515974e-05,-1.651454795137397e-06,-1.487702684244141e-05,4.9523423513164744e-05
-1.8118953448720276e-05,2.0237390344846062e-05,-2.3047191461955663e-06,-2.170249899791088e-05,5.0542905228212476e-05
-1.5213634469546378e-05,1.3515310456568841e-05,7.228429694805527e-07,-2.280800799780991e-05,5.0028262194246054e-05
-1.726179471006617e-05,7.68696190789342e-06,5.01003114550258e-06,-1.9171393432770856e-05,4.953422103426419e-05
-2.235496140201576e-05,2.5231292966054752e-06,8.120758138829842e-06,-1.6572948879911564e-05,5.129967030370608e-05
-2.510838930902537e-05,1.5729411870779586e-06,1.0190248758590315e-05,-1.7278622181038372e-05,5.391351078287698e-05
-2.6954674467560835e-05,4.357116267783567e-06,1.288284965994535e-05,-1.7320408005616628e-05,5.358451744541526e-05
-4.094577525393106e-05,1.2451010661607143e-05,1.4934288628865033e-05,-1.2528181287052575e-05,5.264950232231058e-05
-6.206409307196736e-05,2.624766966619063e-05,1.5706182239227928e-05,-6.499552910099737e-06,5.0378748710500076e-05
-6.811900675529614e-05,3.576713061193004e-05,1.579361742187757e-05,-6.497604317701189e-06,4.625866495189257e-05
-6.045062400517054e-05,3.772809213842265e-05,1.7228043361683376e-05,-9.570176189299673e-06,4.460058335098438e-05
-4.655730663216673e-05,4.029185583931394e-05,1.844515463744756e-05,-5.375721684686141e-06,4.590990283759311e-05
-3.3755317417671904e-05,4.420890400069766e-05,1.4334721527120564e-05,4.724510915821156e-07,4.77534304081928e-05
-2.596018384792842e-05,4.557943611871451e-05,9.153985047305468e-06,-3.0850656003167387e-06,4.580479799187742e-05
-2.34192302741576e-05,4.341710882727057e-05,1.0539799404796213e-05,-8.254009117081296e-06,4.330922820372507e-05
-2.4857154130586423e-05,3.970260877395049e-05,1.4166871551424265e-05,-5.076766228739871e-06,4.419145261636004e-05
-2.482322815922089e-05,3.9726703107589856e-05,1.3027768545725849e-05,3.103580752394919e-07,4.754926703753881e-05
-2.3618718842044473e-05,4.03231279051397e-05,1.0210285836365074e-05,1.0864595623161222e-07,4.9229507567361e-05
-1.929272366396617e-05,3.637008921941742e-05,7.765819646010641e-06,-3.934197138732998e-06,4.9755813961382955e-05
-1.3870706425223034e-05,3.052653846680187e-05,6.23642108621425e-06,-7.569623903691536e-06,5.253284325590357e-05
-1.0775849659694359e-05,2.603502980491612e-05,5.900285941606853e-06,-9.186789611703716e-06,5.4091950005386025e-05
-1.308698847424239e-05,2.0799392586923204e-05,7.24684241504292e-06,-9.15224154596217e-06,5.371907900553197e-05
-1.683160189713817e-05,1.468153641326353e-05,1.1027394066331908e-05,-8.504936886311043e-06,5.465421418193728e-05
-2.006291651923675e-05,1.5237377738230862e-05,1.3928383850725368e-05,-7.114130312402267e-06,5.660426904796623e-05
-2.3487908038077876e-05,2.6040141165140085e-05,1.3584776752395555e-05,-5.5442956181650516e-06,5.7941047998610884e-05
-2.9033262762823142e-05,3.899236617144197e-05,1.0635925718815997e-05,-7.046135579003021e-06,5.910508843953721e-05
-3.609195118770003e-05,4.5315642637433484e-05,7.82856295700185e-06,-9.894417416944634e-06,6.0137052059872076e-05
-4.031111893709749e-05,4.3499883759068325e-05,7.308832664421061e-06,-1.059507758327527e-05,6.14341624896042e-05
-4.0020826418185607e-05,4.219185211695731e-05,6.265885531320237e-06,-1.062236333382316e-05,6.380506238201633e-05
-4.086467015440576e-05,4.701326179201715e-05,5.810150469187647e-06,-1.2573888852784876e-05,6.399875564966351e-05
-4.192436972516589e-05,4.8910504119703546e-05,6.348366241581971e-06,-1.2407491340127308e-05,6.090982788009569e-05
-3.448871211730875e-05,4.4973494368605316e-05,1.0257230314891785e-05,-1.3656752344104461e-05,5.84581503062509e-05
-2.468098682584241e-05,4.156032082391903e-05,1.863540819613263e-05,-1.727214112179354e-05,5.962996874586679e-05
-1.8271199223818257e-05,3.761742846108973e-05,2.0429901269380935e-05,-1.7006164853228256e-05,6.362866406561807e-05
-1.766940658853855e-05,3.198225385858677e-05,1.4085255315876566e-05,-1.6096451872726902e-05,6.807402678532526e-05
-1.8492728486307897e-05,3.1594223401043564e-05,7.728670425422024e-06,-1.7168586055049673e-05,6.712417234666646e-05
-1.6556914488319308e-05,3.498056685202755e-05,6.142698111943901e-06,-1.8153614291804843e-05,6.270006997510791e-05
-1.7748738173395395e-05,3.319597090012394e-05,7.2996067501662765e-06,-1.4817559531365987e-05,6.13792726653628e-05
-2.0325072910054587e-05,2.8198592190165073e-05,5.718028205592418e-06,-1.2370927834126633e-05,6.191387365106493e-05
-2.1276187908370048e-05,2.5101136998273432e-05,1.0515373105590697e-06,-1.2124228305765428e-05,6.601052155019715e-05
-1.6804922779556364e-05,2.986951221828349e-05,4.371001409708697e-07,-1.207469995279098e-05,6.695342744933441e-05
-8.882871043169871e-06,3.651050792541355e-05,5.195766789256595e-06,-1.1671238098642789e-05,6.491562817245722e-05
-4.253332463122206e-06,3.82124817406293e-05,9.984798452933319e-06,-1.2556214642245322e-05,6.393068179022521e-05
-4.985572559235152e-06,3.540008401614614e-05,1.0149999070563354e-05,-1.2765655810653698e-05,6.59448851365596e-05
-4.930936484015547e-06,2.8690585168078542e-05,5.593994956143433e-06,-1.2182181308162399e-05,6.943930202396587e-05
-2.4361299892916577e-06,2.1943294996162876e-05,-7.016551961669393e-08,-1.311688083660556e-05,7.318884308915585e-05
-3.4213940125482623e-06,1.7324311556876637e-05,-2.246384838144877e-06,-1.4321690287033562e-05,7.621481927344576e-05
-8.432766662735958e-06,1.3777434105577413e-05,-1.2557968602777692e-06,-1.5264598914654925e-05,7.400681352009997e-05
-1.5755354979773983e-05,1.0981825653288979e-05,-8.285236958727182e-07,-1.6570897059864365e-05,6.807891622884199e-05
-2.2312340661301278e-05,9.445720934309065e-06,-8.49741638830892e-07,-1.8401367924525402e-05,6.395446689566597e-05
-2.782588853733614e-05,9.66123025136767e-06,-5.110093184157449e-07,-1.7346554159303196e-05,6.459386349888518e-05
-2.860875247279182e-05,1.3265342204249464e-05,-6.510285288641171e-07,-1.4035167623660527e-05,6.672101881122217e-05
-2.3330429030465893e-05,1.833450915000867e-05,-2.579621195764048e-06,-1.19757551146904e-05,6.866115290904418e-05
-1.8304015611647628e-05,2.2330268620862626e-05,-4.142501893511508e-06,-1.196126322611235e-05,6.690576992696151e-05
-1.9902436179108918e-05,2.4500370273017325e-05,-5.938669801253127e-06,-1.112887457566103e-05,6.215438043000177e-05
-1.924838579725474e-05,2.4599183234386146e-05,-7.30241981727886e-06,-1.171763324236963e-05,5.854278424521908e-05
-1.551372952235397e-05,2.126660183421336e-05,-5.425434665085049e-06,-1.3545497495215386e-05,5.7535227824700996e-05
-1.5556450307485647e-05,1.9910361515940167e-05,-3.830946752714226e-06,-1.6003423297661357e-05,5.471150143421255e-05
-1.4112124517851043e-05,2.4817161829560064e-05,-5.584548034676118e-06,-1.9000033717020415e-05,5.0177979574073106e-05
-1.0658200153557118e-05,2.860477616195567e-05,-6.746387498424156e-06,-2.1741660020779818e-05,4.957786950399168e-05
-1.4785929124627728e-05,3.019886753463652e-05,-5.251630227576243e-06,-2.4476490580127575e-05,5.411876190919429e-05
-2.352971932850778e-05,2.9736142096226104e-05,-5.404855073720682e-06,-2.569856951595284e-05,5.7659683079691604e-05
-2.8933036446687765e-05,2.8812166419811547e-05,-7.797301805112511e-06,-2.4011213099583983e-05,6.067581853130832e-05
-3.3569620427442715e-05,3.0038654585951008e-05,-7.34251489120652e-06,-2.149977080989629e-05,6.252061575651169e-05
-3.751907934201881e-05,2.4789029339444824e-05,-4.2183391997241415e-06,-2.0331801351858303e-05,6.181702337926254e-05
-4.332104799686931e-05,1.8077040294883773e-05,-2.2366607481671963e-06,-2.203922667831648e-05,5.9445254009915516e-05
-5.5281871027546003e-05,1.5644620361854322e-05,-2.802788117151067e-07,-2.475524161127396e-05,5.863531623617746e-05
-7.103453390300274e-05,1.4840079529676586e-05,3.431939376241644e-06,-2.5806177291087806e-05,6.034311809344217e-05
-7.72665734984912e-05,1.5981942851794884e-05,7.979837391758338e-06,-2.193547334172763e-05,6.21304934611544e-05
-7.029549306025729e-05,1.7662965547060594e-05,1.083075039787218e-05,-1.7936201402335428e-05,6.418130942620337e-05
-5.7992157962871715e-05,1.715557482384611e-05,1.0604734598018695e-05,-1.6644340576021932e-05,6.676436169072986e-05
-4.7679732233518735e-05,1.750253068166785e-05,1.0473100701346993e-05,-1.3837481674272567e-05,6.87306746840477e-05
-4.135731069254689e-05,1.8292726963409223e-05,1.1001133316312917e-05,-9.338121344626416e-06,7.037197792669758e-05
-3.8381735066650435e-05,2.082496212096885e-05,1.11827748696669e-05,-6.271358415688155e-06,7.429023389704525e-05
-3.6182227631798014e-05,2.604773544589989e-05,9.85161113931099e-06,-4.457857812667498e-06,7.531554001616314e-05
-3.484096305328421e-05,3.050999112019781e-05,8.689384230819996e-06,-3.380270982233924e-06,6.969071546336636e-05
-3.535051291692071e-05,3.4071705158567056e-05,7.50456365494756e-06,-5.556040377996396e-06,6.291025783866644e-05
-3.35547883878462e-05,3.8566955481655896e-05,4.376301603770116e-06,-9.06968125491403e-06,6.0601501900237054e-05
-2.424943886580877e-05,4.6046468924032524e-05,-1.6261370774373063e-06,-1.1114834705949761e-05,6.029862561263144e-05
-4.436301423993427e-06,5.1090111810481176e-05,-6.8543195084203035e-06,-1.078265268006362e-05,5.9650941693689674e-05
2.0326640878920443e-05,4.730052387458272e-05,-6.552558261319064e-06,-1.0104372449859511e-05,5.9380185120971873e-05
3.4986052924068645e-05,3.817513061221689e-05,-1.5967647186698741e-06,-9.27935525396606e-06,5.857044743606821e-05
2.6118705136468634e-05,3.5420041967881843e-05,4.001243723905645e-06,-7.800356797815766e-06,5.704858631361276e-05
2.4472428776789457e-06,3.6764569813385606e-05,6.565393960045185e-06,-6.348234364850214e-06,5.881170727661811e-05
-1.3697705981030595e-05,3.391159771126695e-05,7.037587693048408e-06,-4.686983174906345e-06,6.058645885786973e-05
-1.4043085684534162e-05,2.9702576284762472e-05,9.082161341211759e-06,-1.2784880709659774e-06,5.971829159534536e-05
-4.166802227700828e-06,2.9717599318246357e-05,1.8720198568189517e-05,1.413035192854295e-06,6.072573160054162e-05
2.5463623387622647e-06,3.230799484299496e-05,2.417267569398973e-05,3.0482749480142957e-06,5.882335972273722e-05
-2.510062358851428e-06,3.443948662606999e-05,1.4154938071442302e-05,1.898803247968317e-06,5.164423055248335e-05
-1.1583452760532964e-05,3.302488039480522e-05,3.386259777471423e-06,-8.585594741816749e-07,4.729099964606576e-05
-1.4927017218724359e-05,2.2109406927484088e-05,1.18855325581535e-06,-2.8010363166686147e-06,4.595119025907479e-05
-1.3486425814335234e-05,8.31055331218522e-06,2.9586278742499417e-06,-4.009935764770489e-06,4.7306726628448814e-05
-1.636870001675561e-05,4.058511876792181e-06,2.5145538984361337e-06,-3.5221378311689477e-06,5.148828131495975e-05
-1.9886569134541787e-05,7.333174380619312e-06,4.025432190246647e-06,-3.077483825109084e-06,5.715056249755435e-05
-1.8080630979966372e-05,1.1677891052386258e-05,1.1550556337169837e-05,-3.7195291042735334e-06,5.715926818083972e-05
-1.3981423762743361e-05,1.3945637874712702e-05,1.654191146371886e-05,-1.981896957659046e-06,5.2978120947955176e-05
-1.661403257458005e-05,1.735453770379536e-05,1.8656037354958244e-05,-9.550594768370502e-07,5.138574488228187e-05
-2.5834206098807044e-05,2.1383097191574052e-05,1.8173504940932617e-05,-2.5112774437729968e-06,5.060506737208925e-05
-3.0106946724117734e-05,2.3520775357610546e-05,1.6119067367981188e-05,-2.672735490705236e-06,4.9348134780302644e-05
-2.754396336968057e-05,2.4320926968357526e-05,1.2468867680581752e-05,1.20656045510259e-06,5.023195990361273e-05
-2.6766092560137622e-05,2.7952793971053325e-05,8.03279453975847e-06,5.879591753910063e-06,5.417497959570028e-05
-2.978322845592629e-05,3.339477189001627e-05,4.388204160932219e-06,7.390234259219142e-06,5.5817992688389495e-05
-3.40158621838782e-05,3.578681935323402e-05,4.346484274719842e-06,6.0981233218626585e-06,5.3940428188070655e-05
-3.8442678487626836e-05,3.6994271795265377e-05,6.603563633689191e-06,2.2573483420273988e-06,5.2205741667421535e-05
-4.3580403144005686e-05,3.943359843106009e-05,7.238981652335497e-06,-2.51515734817076e-06,5.209138180362061e-05
-4.796821667696349e-05,4.384486237540841e-05,5.930631687078858e-06,-5.660064744006377e-06,5.23608505318407e-05
-4.840139445150271e-05,4.936617551720701e-05,4.352312771516154e-06,-7.057602488202974e-06,5.454415440908633e-05
-4.70639206469059e-05,5.448734009405598e-05,4.61123227069038e-06,-7.5239568104734644e-06,5.852854155818932e-05
-4.825998257729225e-05,5.406253694673069e-05,5.070663974038325e-06,-6.261735506996047e-06,6.175023736432195e-05
-5.176617196411826e-05,4.324231849750504e-05,3.916492460120935e-06,-5.864133072464028e-06,6.227796984603629e-05
-5.0790858949767426e-05,1.7965321603696793e-05,1.2186559672500152e-07,-5.71554619455128e-06,5.890029206057079e-05
-4.4997676013736054e-05,-1.3201835827203467e-05,-2.648913778102724e-06,-2.025089088419918e-06,5.568625056184828e-05
-3.6779245419893414e-05,-2.5437722797505558e-05,-1.1880368901984184e-06,3.1654356007493334e-06,5.7129400374833494e-05
-2.6764544600155205e-05,-1.0607531294226646e-05,2.2704982711729826e-06,-8.44292628698895e-07,6.232977466424927e-05
-2.0472823962336406e-05,1.0673670658434276e-05,4.4250896280573215e-06,-9.854517884377856e-06,6.548741657752544e-05
-2.656248034327291e-05,2.0476474674069323e-05,5.2106088332948275e-06,-1.4471100257651415e-05,6.0963684518355876e-05
-3.693726466735825e-05,2.530335223127622e-05,4.344603894423926e-06,-1.3005799701204523e-05,5.826299457112327e-05
-4.1191458876710385e-05,2.891179610742256e-05,3.915590696124127e-06,-1.1075597285525873e-05,5.733981015509926e-05
-3.942374314647168e-05,2.8834079785156064e-05,3.3384092148480704e-06,-1.2449294445104897e-05,5.4977812396828085e-05
-3.461298911133781e-05,2.8518734325189143e-05,5.286782652547117e-06,-1.277287992706988e-05,5.358633279684e-05
-2.9029986762907356e-05,2.712728201004211e-05,9.770622455107514e-06,-1.3410823157755658e-05,5.3367279178928584e-05
-2.3562321075587533e-05,2.9072205506963655e-05,1.2678901839535683e-05,-1.3841873624187429e-05,5.2973216952523217e-05
-2.1521036615013145e-05,2.9287184588611126e-05,1.2213086847623345e-05,-1.228302062372677e-05,5.202902320888825e-05
-2.097766446240712e-05,2.4194889192585833e-05,1.0974697943311185e-05,-1.0027129064837936e-05,5.0386155635351315e-05
-2.0388641132740304e-05,1.629606595088262e-05,8.933639037422836e-06,-6.493370619864436e-06,4.941266161040403e-05
-2.225106072728522e-05,1.5242409972415771e-05,5.286686246108729e-06,-3.7751619856862817e-06,5.133097874931991e-05
-2.5100085622398183e-05,2.33628015848808e-05,2.6921877633867553e-06,-5.800492999696871e-06,5.3755658882437274e-05
-2.8025304345646873e-05,3.1042149203130975e-05,3.980800556746544e-06,-9.709987352835014e-06,5.468131712405011e-05
-3.123020360362716e-05,3.4203163522761315e-05,6.729110282321926e-06,-1.1000961421814281e-05,5.1773280574707314e-05
-3.473354809102602e-05,3.6208293749950826e-05,7.43333976060967e-06,-1.0676942110876553e-05,4.7288063797168434e-05
-3.7658490327885374e-05,3.8735764974262565e-05,7.338947852986166e-06,-1.338646779913688e-05,4.357191937742755e-05
-3.8721504097338766e-05,3.837213807855733e-05,8.384437933273148e-06,-1.8429711417411454e-05,4.165044811088592e-05
-3.911313251592219e-05,3.862786979880184e-05,1.01374544101418e-05,-1.9006447473657317e-05,4.1480117943137884e-05
-3.933189145755023e-05,4.322581662563607e-05,9.894812137645204e-06,-1.3993457287142519e-05,4.2411138565512374e-05
-3.691079109557904e-05,4.9603168008616194e-05,7.639710020157509e-06,-9.576076081430074e-06,4.3407504563219845e-05
-2.960581514344085e-05,5.060113107901998e-05,3.966888016293524e-06,-8.821928531688172e-06,4.7041921789059415e-05
-2.245827818114776e-05,4.603094203048386e-05,1.5085227005329216e-06,-1.1034512681362685e-05,5.0874234148068354e-05
-1.929569771164097e-05,3.693755206768401e-05,1.3318745004653465e-06,-1.3337247764866333e-05,4.943518797517754e-05
-1.9259021428297274e-05,3.242857565055601e-05,1.9928101835375855e-07,-1.1547405847522896e-05,4.515377077041194e-05
-2.1871304852538742e-05,4.0523129428038374e-05,-1.1660678183034179e-06,-9.031487024913076e-06,4.493436426855624e-05
-2.552645673858933e-05,5.0681504944805056e-05,-1.1838105820061173e-06,-9.088134902413003e-06,5.0645954615902156e-05
-3.071046739933081e-05,5.103492003399879e-05,-3.276174140864896e-07,-1.0195250979450066e-05,5.684577627107501e-05
-3.2212017686106265e-05,4.486713805817999e-05,-5.553458208851225e-07,-1.113497910409933e-05,5.782040534541011e-05
-2.680677607713733e-05,3.974641003878787e-05,-1.3459244883051724e-06,-1.3935274182586e-05,5.5778451496735215e-05
-2.5225968784070574e-05,3.692126119858585e-05,5.451800006994745e-07,-1.90290102182189e-05,5.5751868785591796e-05
-3.190401184838265e-05,3.3339329092996195e-05,2.07496304938104e-06,-2.0409879653016105e-05,5.844209954375401e-05
-3.764939901884645e-05,3.126909723505378e-05,3.5938546716351993e-06,-1.6917856555664912e-05,6.129864777904004e-05
-3.185255263815634e-05,3.0426965167862363e-05,3.3857725156849483e-06,-1.222263108502375e-05,6.356210360536352e-05
-2.2626667487202212e-05,3.208579801139422e-05,4.877087121712975e-06,-1.212060305988416e-05,6.734759517712519e-05
-2.988460437336471e-05,3.4649710869416595e-05,7.84456824476365e-06,-1.5905807231320068e-05,7.018672476988286e-05
-5.4533244110643864e-05,3.3244872611248866e-05,1.1007989087374881e-05,-1.9623348634922877e-05,6.769943865947425e-05
-7.900498894741759e-05,2.5712428396218456e-05,1.3791234778182115e-05,-2.1919635400990956e-05,6.482019671238959e-05
-8.805530524114147e-05,1.2402610991557594e-05,1.4552080756402574e-05,-2.471782499924302e-05,6.772545748390257e-05
-7.667144382139668e-05,2.4803839551168494e-06,1.5922745660645887e-05,-2.7204237994737923e-05,7.409482350340113e-05
-3.85812199965585e-05,9.791853017304675e-07,1.7855312762549147e-05,-2.5587438358343206e-05,7.824512431398034e-05
2.5872992409858853e-05,5.871470875717932e-06,1.823707134462893e-05,-2.152026536350604e-05,7.705181633355096e-05
8.981026621768251e-05,1.410477671015542e-05,1.8001319403992966e-05,-1.9066892491537146e-05,7.313503738259897e-05
0.00011787439871113747,2.3607948605786078e-05,1.814663119148463e-05,-1.792987313820049e-05,7.23197081242688e-05
9.736623906064779e-05,3.07277514366433e-05,1.6069778212113306e-05,-1.5836973034311086e-05,7.152934995247051e-05
4.9336973461322486e-05,3.3457188692409545e-05,1.158209124696441e-05,-1.399542816216126e-05,6.717936048517004e-05
4.984490260540042e-06,3.3329695725115016e-05,7.365020337601891e-06,-1.4639466826338321e-05,6.311286415439099e-05
-1.8827782696462236e-05,2.9995368095114827e-05,8.676531251694541e-06,-1.680731111264322e-05,6.140454934211448e-05
-2.5325305614387617e-05,2.2465796064352617e-05,1.2443326340871863e-05,-1.592479929968249e-05,6.171988206915557e-05
-2.7787846192950383e-05,2.0058030713698827e-05,1.1871426977450028e-05,-1.0530322470003739e-05,6.299945380305871e-05
-3.6485958844423294e-05,2.496816887287423e-05,7.77675631979946e-06,-5.99312534177443e-06,6.507615762529895e-05
-4.220230766804889e-05,3.0590086680604145e-05,8.383876775042154e-06,-5.809110916743521e-06,6.562766793649644e-05
-3.026743434020318e-05,3.506618304527365e-05,1.1680230272759218e-05,-6.2503813751391135e-06,6.653551827184856e-05
-6.461083103204146e-06,3.977589221904054e-05,1.2437432815204374e-05,-6.170997039589565e-06,6.57806740491651e-05
1.062713454302866e-05,4.501836883719079e-05,1.039268227032153e-05,-5.077462446934078e-06,6.06009598413948e-05
1.0364453373767901e-05,4.889877891400829e-05,6.207566002558451e-06,-5.270050678518601e-06,5.909811079618521e-05
1.003501324703393e-06,4.3726671719923615e-05,2.778897851385409e-06,-5.1847623581124935e-06,6.184268568176776e-05
-1.0767227649921551e-05,3.08084963762667e-05,1.2144010952397366e-06,-5.693975708709331e-06,6.187566759763286e-05
-1.737067213980481e-05,2.1222189388936386e-05,-2.0962498403775953e-09,-8.187951607396826e-06,6.171241693664342e-05
-1.5688779967604205e-05,1.805629835871514e-05,-2.9923405691079097e-06,-7.150889814511174e-06,6.36899349046871e-05
-9.920678166963626e-06,2.148362182197161e-05,-2.6670379611459794e-06,-4.81949609820731e-06,6.84024635120295e-05
-2.9420596092677442e-06,2.996668808918912e-05,4.169813564658398e-06,-5.691467777069192e-06,7.380046736216173e-05
-3.5893788208340993e-06,3.599451156333089e-05,1.3513849808077794e-05,-9.27768815017771e-06,7.521286170231178e-05
-2.1715797629440203e-05,3.441730223130435e-05,1.9076873286394402e-05,-1.2173580216767732e-05,7.131839083740488e-05
-4.8178641009144485e-05,3.241257945774123e-05,1.6039897673181258e-05,-1.1438832189014647e-05,6.507673242595047e-05
-6.35751275694929e-05,2.8067235689377412e-05,1.1010797607013956e-05,-9.025811777974013e-06,6.035271144355647e-05
-6.462392775574699e-05,2.2245014406507835e-05,7.133401140890783e-06,-8.02702834334923e-06,5.9854424762306735e-05
-5.8445708418730646e-05,1.8763457774184644e-05,2.346224619032e-06,-8.695205906406045e-06,6.141557969385758e-05
-5.404622424975969e-05,1.5674544556532055e-05,-2.8921176635776646e-06,-9.755709470482543e-06,6.0500402469187975e-05
-5.830665759276599e-05,1.3660109289048705e-05,-5.683461495209485e-06,-1.0451403795741498e-05,5.9073736338177696e-05
-7.32991611585021e-05,1.5515908671659417e-05,-4.667964731197571e-06,-1.0127583664143458e-05,5.980458081467077e-05
-8.988550689537078e-05,1.7754626242094673e-05,-1.8310161067347508e-06,-1.075879845302552e-05,6.153103458927944e-05
-9.462341404287145e-05,1.7051219401764683e-05,4.798575314879372e-09,-1.1794708370871376e-05,6.326723814709112e-05
-8.369734132429585e-05,1.3456628039421048e-05,-2.199918753831298e-06,-9.791210686671548e-06,6.468714855145663e-05
-6.826401659054682e-05,8.317368155985605e-06,-7.296825515368255e-06,-7.53550693843863e-06,6.542869232362136e-05
-5.735724334954284e-05,8.236648682213854e-06,-9.261199920729268e-06,-7.0503915594599675e-06,6.418007978936657e-05
-5.272045382298529e-05,1.1552200703590643e-05,-6.723795650032116e-06,-4.353814347268781e-06,6.401957216439769e-05
-5.867554500582628e-05,1.103070917451987e-05,-5.618456725642318e-06,-1.1312428682686004e-07,6.52541930321604e-05
-7.16268114047125e-05,7.764008842059411e-06,-5.729300482926192e-06,2.166438434869633e-06,6.295079947449267e-05
-7.405876385746524e-05,1.1309584806440398e-05,-8.158402124536224e-06,2.2093811367085436e-06,6.27474655630067e-05
-6.214181485120207e-05,2.086126733047422e-05,-1.1081524462497327e-05,-1.8960558918479364e-06,6.467603816417977e-05
-4.613418423105031e-05,3.2971063774311915e-05,-1.0507747902011033e-05,-8.766141945670824e-06,6.315892096608877e-05
-2.9564769647549838e-05,4.161636752542108e-05,-8.65544188854983e-06,-1.0766508239612449e-05,5.886209328309633e-05
-1.6656520529068075e-05,4.655528755392879e-05,-3.995319730165647e-06,-7.41121448299964e-06,5.5788783356547356e-05
-1.4139631275611464e-05,5.119929483043961e-05,4.782553446602833e-07,-4.9396171561966185e-06,5.477039303514175e-05
-1.969535333046224e-05,5.3688672778662294e-05,3.1582018777953635e-08,-3.93594746128656e-06,5.6209173635579646e-05
-2.907907219196204e-05,5.218749720370397e-05,-1.3836822745361133e-06,-5.081228209746769e-06,5.876002614968456e-05
-4.026204987894744e-05,4.6239019866334274e-05,-2.1310152078513056e-06,-7.615335562149994e-06,5.903108467464335e-05
-4.363465995993465e-05,3.9435370126739144e-05,-2.8106030640628887e-06,-1.0407979061710648e-05,5.589654028881341e-05
-4.0346287278225645e-05,3.59291116183158e-05,-1.8171035662817303e-06,-1.186449753731722e-05,5.340767893358134e-05
-2.6970701583195478e-05,3.5267054045107216e-05,-1.1027177606592886e-06,-1.1334673217788804e-05,5.695624349755235e-05
-4.220818937028525e-06,3.4504904760979116e-05,-2.3384893665934214e-06,-9.036507435666863e-06,6.225133984116837e-05
1.476278885093052e-05,3.202385414624587e-05,-2.6447414711583406e-06,-7.732279300398659e-06,6.512608524644747e-05
1.5421221178257838e-05,2.952753311546985e-05,-1.093602918444958e-06,-7.378951067948947e-06,6.632494478253648e-05
-8.425364512731903e-07,2.8461105102906004e-05,3.04080549540231e-06,-9.161102752841543e-06,6.719342491123825e-05
-1.8820128389052115e-05,2.7280999347567558e-05,7.982655915839132e-06,-1.1275696124357637e-05,6.703977123834193e-05
-2.8908669264637865e-05,2.6440910005476326e-05,9.36698415898718e-06,-1.0049895536212716e-05,6.474748806795105e-05
-2.902355117839761e-05,2.4160744942491874e-05,6.289306838880293e-06,-8.713908755453303e-06,6.32120281807147e-05
-2.0593966837623157e-05,1.9437835362623446e-05,3.2204964099946665e-06,-9.910351764119696e-06,6.248876889003441e-05
-7.2925931817735545e-06,1.7960070181288756e-05,2.940785634564236e-06,-1.3104838217259385e-05,6.072727410355583e-05
-1.3983564031150308e-06,2.3070924726198427e-05,4.0010750126384664e-06,-1.661311944189947e-05,5.8022269513458014e-05
-7.211367574200267e-06,2.718569703574758e-05,5.573737325903494e-06,-2.0229948859196156e-05,5.718007741961628e-05
-1.5027826520963572e-05,2.58890213444829e-05,7.5003208621637896e-06,-2.001384382310789e-05,5.8163117500953376e-05
-1.5786321455379948e-05,2.6458023057784885e-05,7.497914793930249e-06,-1.0401015060779173e-05,5.894509740755893e-05
-1.5502117094001733e-05,3.2154126529349014e-05,7.619144071213668e-06,1.287034024244349e-06,6.213879532879218e-05
-1.816381700336933e-05,3.843819285975769e-05,1.233451985171996e-05,3.2394273148383945e-06,6.489329098258168e-05
-1.8725864720181562e-05,4.183763303444721e-05,1.6660429537296295e-05,-1.4302640920504928e-06,6.595966988243163e-05
-1.4184489373292308e-05,3.989160541095771e-05,2.0327604943304323e-05,-6.564036539202789e-06,6.565254443557933e-05
-6.225471224752255e-06,3.64980696758721e-05,2.4379920432693325e-05,-5.412490736489417e-06,6.472862878581509e-05
-4.6487948566209525e-06,3.4671789762796834e-05,2.1578343876171857e-05,-2.498062485756236e-06,6.234797911019996e-05
-1.3683629731531255e-05,3.003205893037375e-05,1.8168644601246342e-05,-6.314407528407173e-06,5.846980639034882e-05
-1.816431904444471e-05,2.0144298105151393e-05,1.6758682249928825e-05,-1.200163023895584e-05,5.5962384067242965e-05
-2.0782901628990658e-05,1.196537687064847e-05,1.1388267012080178e-05,-1.354862342850538e-05,5.472035991260782e-05
-2.8766216928488575e-05,1.350175716652302e-05,7.965876648086123e-06,-1.1916458788618911e-05,5.270052861305885e-05
-3.670318255899474e-05,2.3186274120234884e-05,1.0068781193695031e-05,-9.308387234341353e-06,4.8510381020605564e-05
-3.744466812349856e-05,3.109742465312593e-05,1.3150935046724044e-05,-8.315700142702553e-06,4.6646400733152404e-05
-3.3103235182352364e-05,3.1491108529735357e-05,1.1664797057164833e-05,-8.225132660300005e-06,4.854864164371975e-05
-2.9714077754761092e-05,2.945520100183785e-05,8.597824489697814e-06,-6.890454187669093e-06,5.246461296337657e-05
-2.621330895635765e-05,3.31095106957946e-05,7.723358066868968e-06,-5.244864951237105e-06,5.533650619327091e-05
-2.168022001569625e-05,3.719597225426696e-05,8.766764949541539e-06,-7.810701390553731e-06,5.863283877260983e-05
-1.703865382296499e-05,3.4999960917048156e-05,8.283365787065122e-06,-1.156823054770939e-05,6.240913353394717e-05
-1.9611408788478002e-05,3.0591436370741576e-05,5.843308372277534e-06,-1.286379756493261e-05,6.482172466348857e-05
-2.8590231522684917e-05,2.9533184715546668e-05,4.2596461753419135e-06,-1.4106371054367628e-05,6.389630289049819e-05
-3.697835200000554e-05,3.183152148267254e-05,3.616433787101414e-06,-1.484255426476011e-05,6.062431202735752e-05
-4.03494450438302e-05,3.216679397155531e-05,2.2583537884202087e-06,-1.281843833567109e-05,5.905979924136773e-05
-4.023144720122218e-05,2.7448590117273852e-05,1.0220420563200605e-06,-1.0418445526738651e-05,5.6312335800612345e-05
-3.665393523988314e-05,2.336444958928041e-05,2.75757338386029e-06,-1.245168641617056e-05,5.2728293667314574e-05
-3.252920214436017e-05,2.5898951207636856e-05,6.219235274329549e-06,-1.6389119991799816e-05,5.207459980738349e-05
-3.13468772219494e-05,3.093616760452278e-05,8.736220479477197e-06,-1.7831651348387823e-05,5.5051528761396185e-05
-3.3876101952046156e-05,3.339618706377223e-05,9.774718819244299e-06,-1.6250356566160917e-05,5.830710142618045e-05
-4.022451685159467e-05,3.2418454793514684e-05,8.81597679835977e-06,-1.4964466572564561e-05,5.983638402540237e-05
-4.9599089834373444e-05,3.1036182917887345e-05,6.226490313565591e-06,-1.3742368537350558e-05,5.907971353735775e-05
-5.699102985090576e-05,2.8876431315438822e-05,4.423899554240052e-06,-1.2983779924979899e-05,5.981136200716719e-05
-6.134947034297511e-05,2.4410745027125813e-05,3.6646345051849494e-06,-1.177854574052617e-05,6.024008325766772e-05
-6.587092502741143e-05,2.084697007376235e-05,3.715618959176936e-06,-1.0167747859668452e-05,5.871882240171544e-05
-6.061256499378942e-05,2.508910620235838e-05,3.1002280138636706e-06,-7.689245649089571e-06,5.618219802272506e-05
-4.679621270042844e-05,3.506606299197301e-05,1.293859668294317e-06,-4.641000032279408e-06,5.3409119573188946e-05
-3.6333174648461863e-05,4.193523636786267e-05,-7.558278980468458e-07,-3.7052952848171117e-06,5.369157588575035e-05
-2.3502194380853325e-05,5.0162405386799946e-05,-2.6063960376632167e-06,-3.7328873077058233e-06,5.549957859329879e-05
6.91959129994757e-08,5.854324626852758e-05,-5.594340564130107e-06,-4.147058916714741e-06,5.480250547407195e-05
2.7432262868387625e-05,5.760215935879387e-05,-7.722752343397588e-06,-5.61900651518954e-06,5.184333713259548e-05
4.618502498487942e-05,5.006351784686558e-05,-6.0199276958883274e-06,-7.211096544779139e-06,5.232593684922904e-05
4.457520481082611e-05,4.251513018971309e-05,-8.282556791527895e-07,-7.3568548941693734e-06,5.316913302522153e-05
2.147896884707734e-05,3.437258783378638e-05,3.1625465908291517e-06,-6.560428573720856e-06,5.134502498549409e-05
-4.607050414051628e-06,2.0574912923621014e-05,9.0988032752648e-07,-7.183110483310884e-06,4.759834337164648e-05
-1.8637663742993027e-05,2.707843577809399e-06,-2.19755747821182e-06,-9.183321708405856e-06,4.4860764319309965e-05
-2.147518898709677e-05,-1.877488466561772e-05,2.820723068452935e-07,-1.113331200031098e-05,4.210796032566577e-05
-2.1136305804247968e-05,-2.8355805625324138e-05,5.273579063214129e-06,-1.1415532753744628e-05,4.005848677479662e-05
-2.1464396922965534e-05,-1.2882604096375871e-05,7.721449946984649e-06,-1.0487317922525108e-05,4.239408372086473e-05
-2.234796374978032e-05,1.2187443644506857e-05,9.245742148777936e-06,-8.361927939404268e-06,4.619154060492292e-05
-2.4445633243885823e-05,2.5970282877096906e-05,1.2750743735523429e-05,-4.631849151337519e-06,4.887163231614977e-05
-2.583795867394656e-05,2.777115696517285e-05,1.5775322026456706e-05,-2.238126171505428e-06,5.079259426565841e-05
-2.424615558993537e-05,2.644737105583772e-05,1.7711012333165854e-05,-4.271264060662361e-06,5.03943047078792e-05
-2.237159787910059e-05,2.5745617676875554e-05,1.9661965779960155e-05,-9.31444901652867e-06,4.807109507964924e-05
-2.2113474187790416e-05,2.611929267004598e-05,2.141407640010584e-05,-1.5129116036405321e-05,4.897284816252068e-05
-2.046388908638619e-05,2.6231125957565382e-05,2.1801684852107428e-05,-1.8557268049335107e-05,5.2034381951671094e-05
-1.6249230611720122e-05,2.532585131120868e-05,1.850022454163991e-05,-1.932963823492173e-05,5.271033296594396e-05
-1.6332849554601125e-05,2.183331162086688e-05,1.3061071513220668e-05,-2.1016550817876123e-05,5.063111166236922e-05
-2.217947258031927e-05,1.9720249838428572e-05,1.1309901310596615e-05,-1.777084617060609e-05,4.94811320095323e-05
-2.6392866857349873e-05,2.231706093880348e-05,1.5565314242849126e-05,-1.1142945368192159e-05,4.807667573913932e-05
-2.8371887310640886e-05,2.550168937887065e-05,1.8125088899978437e-05,-8.747038009460084e-06,4.7013578296173364e-05
-2.992999361595139e-05,2.0532341295620427e-05,1.251858066098066e-05,-8.716387128515635e-06,4.7607492888346314e-05
-3.0444592994172126e-05,1.3732713341596536e-05,3.627369778769207e-06,-1.2753955161315389e-05,4.800894748768769e-05
-3.085664502577856e-05,1.2061443158017937e-05,-1.0877288332267199e-06,-1.649070327403024e-05,4.800193346454762e-05
-3.0414397770073265e-05,1.4014735825185198e-05,-7.287688674750825e-08,-1.736927697493229e-05,4.986764906789176e-05
-2.6984303985955194e-05,1.6662146663293242e-05,5.040520534294046e-08,-1.9578405044740066e-05,5.161652370588854e-05
-2.8434444175218232e-05,1.721258922771085e-05,-2.5450951852690196e-06,-1.978454747586511e-05,5.4310483392328024e-05
-3.392785583855584e-05,1.5407316823257133e-05,-2.3313480141951004e-06,-1.794540003174916e-05,5.716365194530226e-05
-3.6247209209250286e-05,1.8009710402111523e-05,8.202594159456567e-08,-1.6923215298447758e-05,5.836196942254901e-05
-3.4218886867165565e-05,2.6600480850902386e-05,3.2499824555998202e-06,-1.6851476175361313e-05,6.122997729107738e-05
-3.154111618641764e-05,3.329961691633798e-05,8.893849553714972e-06,-1.4273301530920435e-05,6.288674921961501e-05
-3.1854135158937424e-05,3.570583794498816e-05,1.4292762898548972e-05,-1.2680969120992813e-05,6.313451012829319e-05
-3.569963155314326e-05,3.624103555921465e-05,1.4265771824284457e-05,-1.2435171811375767e-05,6.25235988991335e-05
-3.986833326052874e-05,3.68108376278542e-05,1.1036067917302717e-05,-1.0694337106542662e-05,6.162990030134097e-05
-4.5596018026117235e-05,3.705001654452644e-05,8.388251444557682e-06,-8.094601980701555e-06,5.80038467887789e-05
-5.1572184020187706e-05,3.8782400224590674e-05,8.484111276629847e-06,-5.400182089942973e-06,5.371918814489618e-05
-4.886669194092974e-05,4.057390833622776e-05,9.519088962406386e-06,-1.1904552366104326e-06,5.330097701516934e-05
-3.9316357288043946e-05,4.091417577001266e-05,8.590848665335216e-06,3.7677639284083853e-06,5.650720413541421e-05
-3.219245991203934e-05,4.24094068876002e-05,5.976553438813426e-06,6.726492301822873e-06,6.010942888678983e-05
-3.0319284633151256e-05,4.542245005723089e-05,5.222033905738499e-06,5.543783572647953e-06,6.41371589154005e-05
-3.0305824111565016e-05,4.641519990400411e-05,7.692359758948442e-06,1.391970045006019e-06,6.936568388482556e-05
-2.9150147383916192e-05,4.444398291525431e-05,9.770582437340636e-06,-5.509035077011504e-07,7.000288314884529e-05
-2.2907557649887167e-05,4.4111260649515316e-05,1.0023110007750802e-05,1.2409854832640121e-07,6.479653529822826e-05
-1.8026448742602952e-05,4.4844913645647466e-05,8.83910706761526e-06,2.02501314561232e-06,6.0850677982671186e-05
-1.9267248717369512e-05,4.139905286137946e-05,4.699337296187878e-06,2.029292090810486e-06,6.142310303403065e-05
-2.487283018126618e-05,3.362096686032601e-05,2.1891820267683215e-07,-1.498069991612283e-06,6.321632827166468e-05
-3.042740536329802e-05,2.8288392059039325e-05,-1.182964524559793e-06,-3.808382416536915e-06,6.34055832051672e-05
-2.8889811801491305e-05,2.6429592253407463e-05,-8.102756510197651e-07,-5.845935902470956e-06,6.41517253825441e-05
-1.8247103071189485e-05,2.1303489120327868e-05,-2.414885500456876e-07,-6.2068797888059635e-06,6.876666884636506e-05
-6.113727067713626e-06,2.067591958621051e-05,-9.88528881862294e-07,-3.564259486665833e-06,7.407948578475043e-05
1.6226995285251178e-06,2.680796751519665e-05,-2.684117816897924e-06,-1.8574068008092581e-06,8.07081742095761e-05
3.214982143617817e-06,3.268693035352044e-05,-5.0914104576804675e-06,1.1233532859478146e-06,8.391525625484064e-05
-2.039143055299064e-06,3.84725681215059e-05,-4.674669526139041e-06,-2.2276726667769253e-06,8.146338223014027e-05
-1.5025512766442262e-05,4.113392424187623e-05,-3.2296409244736424e-06,-8.946006346377544e-06,7.635758811375126e-05
-2.9320015528355725e-05,3.5801076592179015e-05,-3.278454414612497e-06,-9.8970676845056e-06,7.190696487668902e-05
-3.18991624226328e-05,3.197640035068616e-05,-2.6892478217632743e-06,-6.9428288043127395e-06,7.16623617336154e-05
-2.7107951609650627e-05,3.729161835508421e-05,-1.649234036449343e-06,-5.3662556638300885e-06,7.03565965523012e-05
-2.428832340228837e-05,4.154555426794104e-05,-1.9444232748355716e-06,-7.4531344580464065e-06,6.87499632476829e-05
-2.5372755771968514e-05,3.4779503039317206e-05,-1.4437428035307676e-06,-1.4589501915907022e-05,6.95098060532473e-05
-2.9499435186153278e-05,2.339015009056311e-05,8.766709242991055e-07,-2.190936174883973e-05,6.979566387599334e-05
-3.296516297268681e-05,2.091980968543794e-05,3.181684405717533e-06,-2.2773127057007514e-05,6.845706957392395e-05
-3.2615458621876314e-05,2.5983097657444887e-05,4.736947175842943e-06,-1.7315267541562207e-05,6.586118979612365e-05
-2.734866393439006e-05,3.051058592973277e-05,4.843740953219822e-06,-1.0668722097761929e-05,6.30795766483061e-05
-1.9642593542812392e-05,2.8425038181012496e-05,5.982163656881312e-06,-6.692677288810955e-06,6.053399920347147e-05
-1.3462087736115791e-05,2.0418015992618166e-05,8.023505870369263e-06,-6.532121005875524e-06,5.8021978475153446e-05
-7.935845133033581e-06,1.1745067240553908e-05,7.484386060241377e-06,-1.1220598935324233e-05,5.686606891686097e-05
-4.5877895900048316e-06,8.395447366638109e-06,4.493615506362403e-06,-1.5794988939887844e-05,5.693711864296347e-05
-7.912730325188022e-06,9.966555808205158e-06,2.933629502877011e-06,-1.720465297694318e-05,5.715244333259761e-05
-1.432284898328362e-05,1.2867996701970696e-05,2.783323907351587e-06,-1.6872998457984067e-05,5.745989619754255e-05
-1.7317232050118037e-05,1.5868357877479866e-05,3.06198421640147e-06,-1.552153662487399e-05,5.553860682994127e-05
-1.587932274560444e-05,2.045672772510443e-05,3.935569111490622e-06,-1.1364965757820755e-05,5.315330417943187e-05
-1.3944988495495636e-05,2.5466324586886913e-05,6.754333753633546e-06,-9.103041520575061e-06,5.5073207477107644e-05
-1.482292191212764e-05,2.788996607705485e-05,9.863505511020776e-06,-1.248300941369962e-05,5.8215508033754304e-05
-1.61076332005905e-05,2.9381744752754457e-05,7.361828011198668e-06,-1.6217016309383325e-05,5.7985904277302325e-05
-1.6504434825037606e-05,3.087124423473142e-05,2.968276930914726e-06,-1.4618262866861187e-05,5.558157863561064e-05
-1.734006764309015e-05,2.9647006158484146e-05,8.058236744545866e-06,-1.3030316040385514e-05,5.5537166190333664e-05
-1.6978498024400324e-05,2.6247724235872738e-05,1.85317167051835e-05,-1.1422177522035781e-05,5.47384588571731e-05
-1.5241456821968313e-05,2.7233058062847704e-05,1.8545539205661044e-05,-1.133970818045782e-05,5.159448119229637e-05
-1.1858846846735105e-05,2.9591645215987228e-05,1.3480732377502136e-05,-1.4727558664162643e-05,4.9676858907332644e-05
-1.5310997696360573e-05,2.8158030545455404e-05,1.2847513062297367e-05,-1.5952155081322417e-05,4.590165917761624e-05
-2.531655081838835e-05,2.5053748686332256e-05,1.247722866537515e-05,-1.540115408715792e-05,3.783399370149709e-05
-3.199750790372491e-05,2.6819177946890704e-05,1.2884594980278052e-05,-1.2669563147937879e-05,3.061508323298767e-05
-3.5166907764505595e-05,3.4835833503166214e-05,1.4043680494069122e-05,-9.571552254783455e-06,2.9398574042716064e-05
-3.078799636568874e-05,4.003758658654988e-05,1.4465775166172534e-05,-7.618477411597269e-06,3.491204188321717e-05
-2.3076656361809e-05,3.8007288821972907e-05,1.360627356916666e-05,-5.5816412896092515e-06,4.35831789218355e-05
-1.6555097317905165e-05,3.771302363020368e-05,1.1514447578520048e-05,-4.453946530702524e-06,5.016379873268306e-05
-1.40311012728489e-05,3.9788759750081226e-05,9.63751517701894e-06,-3.130030336251366e-06,5.321207572706044e-05
-1.5163663192652166e-05,4.193781933281571e-05,1.1277054909442086e-05,-6.387428896914571e-08,5.379200229072012e-05
-1.5477600754820742e-05,4.561868991004303e-05,1.4608238416258246e-05,1.986457391467411e-06,5.781321306130849e-05
-1.3565737390308641e-05,4.794962296728045e-05,1.543326652608812e-05,-3.2095346114147105e-07,6.42349332338199e-05
-1.3222708730609156e-05,4.639993130695075e-05,1.4323260074888822e-05,-7.116288543329574e-06,6.612520519411191e-05
-1.6357627828256227e-05,4.347844878793694e-05,1.1041088328056503e-05,-1.3771593330602627e-05,6.171497807372361e-05
-2.3646216504857875e-05,4.195943256490864e-05,4.8273277570842765e-06,-1.6629630408715457e-05,5.5548149248352274e-05
-3.861101868096739e-05,3.821841164608486e-05,-2.524183855712181e-06,-1.6710888303350657e-05,4.986421481589787e-05
-6.304212001850829e-05,3.063175972783938e-05,-5.908688308409182e-06,-1.685298229858745e-05,4.918545891996473e-05
-9.658288763603196e-05,2.0830870198551565e-05,-3.653455223684432e-06,-1.81712384801358e-05,5.662997136823833e-05
-0.0001294582471018657,8.369082934223115e-06,1.8551186258264352e-06,-2.3285030692932196e-05,6.645806570304558e-05
-0.00014579787966795266,-6.5640620050544385e-06,5.95690835325513e-06,-2.666033287823666e-05,7.120505324564874e-05
-0.0001299794967053458,-2.2132166122901253e-05,5.732755198550876e-06,-2.318200859008357e-05,6.76165145705454e-05
-7.708170596743003e-05,-3.633191954577342e-05,1.362101897939283e-06,-1.8462318621459417e-05,6.573599966941401e-05
-7.4326235335320234e-06,-3.919620212400332e-05,-3.6305518733570352e-06,-1.5391620763693936e-05,6.8952540459577e-05
3.408376142033376e-05,-2.3630769646842964e-05,-5.521283128473442e-06,-1.191242608911125e-05,6.953119009267539e-05
2.720429802138824e-05,-3.121231657132739e-06,-3.370810418346082e-06,-7.251492206705734e-06,6.757612572982907e-05
-1.2485099432524294e-05,4.392654318507994e-06,-4.2712352410489984e-07,-7.443596132361563e-06,6.567253149114549e-05
-5.63148787477985e-05,-4.789150352735305e-06,2.0008155132700267e-08,-2.986419758599368e-06,6.472389213740826e-05
-8.339268242707476e-05,-1.723727473290637e-05,-2.688881977519486e-06,4.5288566070667e-06,6.194855814101174e-05
-8.258962043328211e-05,-1.7891125025926158e-05,-5.972446160740219e-06,6.252622824831633e-06,5.554153540288098e-05
-4.788279693457298e-05,-8.623391295259353e-06,-4.925815119349863e-06,8.382172381971031e-06,5.536078242585063e-05
4.876423645328032e-06,6.254833806451643e-06,-1.8411514020044706e-06,8.264827556558885e-06,6.015274993842468e-05
4.42541713709943e-05,2.1035433746874332e-05,1.9824469177365245e-07,7.326902050408535e-06,6.331979966489598e-05
4.819728565053083e-05,3.3834148780442774e-05,2.619423639771412e-06,5.341417818272021e-06,6.42031809547916e-05
3.074450432904996e-05,4.5305783714866266e-05,8.6722520791227e-06,-6.290686087595532e-07,6.364368891809136e-05
2.157301605620887e-05,5.509391849045642e-05,1.6012414562283084e-05,-6.404360647138674e-06,6.156187009764835e-05
2.5313363948953338e-05,6.284291885094717e-05,1.8107599316863343e-05,-7.842850209272001e-06,5.706190859200433e-05
2.6006571715697646e-05,6.687247514491901e-05,1.2975888239452615e-05,-9.604922524886206e-06,5.3341897000791505e-05
1.542931204312481e-05,6.57074197079055e-05,5.144421265868004e-06,-1.257817439181963e-05,5.2010615036124364e-05
-1.1606416592258029e-06,6.420946010621265e-05,3.0128128400974674e-06,-1.4769333574804477e-05,5.339014751370996e-05
-1.7766888049663976e-05,6.730305904056877e-05,8.71664633450564e-06,-1.6412272088928148e-05,5.2949962991988286e-05
-3.103847484453581e-05,7.210567855508998e-05,1.4639082110079471e-05,-1.790020178304985e-05,4.833945422433317e-05
-3.8114703784231097e-05,7.443793583661318e-05,1.3714490705751814e-05,-2.139734169759322e-05,4.721931691165082e-05
-3.928395381080918e-05,7.182536501204595e-05,7.575539257231867e-06,-2.6077173970406875e-05,5.4727457609260455e-05
-3.785912849707529e-05,6.410945934476331e-05,1.3842164889865671e-06,-3.0511548175127245e-05,6.665765977231786e-05
-3.6687953979708254e-05,5.488895476446487e-05,-7.609825729559816e-07,-3.1843839678913355e-05,7.337814167840406e-05
-3.46911619999446e-05,4.938394340570085e-05,2.369059302509413e-06,-2.83010504062986e-05,7.036215538391843e-05
-3.141092020086944e-05,4.38454226241447e-05,6.0132065300422255e-06,-2.160915573767852e-05,6.68755455990322e-05
-2.9524666388169862e-05,3.607709368225187e-05,6.218485395947937e-06,-1.8173652279074304e-05,6.7781082179863e-05
-3.222132727387361e-05,3.206936162314378e-05,5.372001396608539e-06,-1.697087282082066e-05,6.905822374392301e-05
-3.734659912879579e-05,3.5973549529444426e-05,6.7063947426504456e-06,-1.4590591490559746e-05,6.770472100470215e-05
-3.4899501770269126e-05,4.048168921144679e-05,6.5629365053609945e-06,-1.4558955626853276e-05,6.603253132198006e-05
-2.993368252646178e-05,3.761726839002222e-05,4.35523497799295e-06,-1.4018019101058599e-05,6.683233368676156e-05
-3.5571538319345564e-05,3.375794767634943e-05,4.651778453990119e-06,-9.239353857992683e-06,6.190842395881191e-05
-4.879048719885759e-05,3.844802631647326e-05,4.194313078187406e-06,-3.870973159791902e-06,5.625324047286995e-05
-5.463905836222693e-05,4.37771413999144e-05,3.1086301532923244e-06,-3.91286312151351e-06,6.140393088571727e-05
-5.446638533612713e-05,4.362677282188088e-05,9.843556654232088e-07,-1.054319363902323e-05,7.314030517591164e-05
-5.126089308760129e-05,4.0702543628867716e-05,-2.8576159820659086e-06,-1.4010225640959106e-05,8.276583685074002e-05
-3.458670835243538e-05,3.6520021239994094e-05,-4.274356342648389e-06,-8.969193913799245e-06,8.925875590648502e-05
-3.4962963582074735e-06,3.258286233176477e-05,-2.9804093628627015e-06,-4.033875939057907e-06,9.126058284891769e-05
2.9579516194644384e-05,3.1703501008450985e-05,-7.672586548324034e-07,-6.028483312547905e-06,8.669098315294832e-05
4.450801861821674e-05,3.338544047437608e-05,3.8828975448268466e-06,-9.966341167455539e-06,8.001343667274341e-05
3.349181133671664e-05,3.522658153087832e-05,7.0031928771641105e-06,-1.1229111805732828e-05,6.915785343153402e-05
8.7453536252724e-06,3.4693905035965145e-05,6.689153906336287e-06,-1.1275074939476326e-05,5.03193041367922e-05
-9.273072464566212e-06,3.177321923431009e-05,8.044776222959626e-06,-1.2229384083184414e-05,2.6532299671089277e-05
-1.451805655960925e-05,3.2325311622116715e-05,8.983558473119047e-06,-1.412735309713753e-05,6.692740043945378e-06
-1.1648132385744248e-05,3.693704275065102e-05,9.721885362523608e-06,-1.562346369610168e-05,-1.5217689224300557e-06
-9.378733011544682e-06,4.201567207928747e-05,1.0904750524787232e-05,-1.8183653082815e-05,6.522191142721567e-06
-1.1492228622955736e-05,4.388278830447234e-05,1.1130310667795129e-05,-2.0081468392163515e-05,3.6264224036131054e-05
-1.6430783944088034e-05,3.834819290204905e-05,9.052931090991478e-06,-1.890124440251384e-05,8.447342406725511e-05
-2.3666319975745864e-05,2.4884137019398622e-05,5.205882189329714e-06,-1.5484420146094635e-05,0.00012332135520409793
-3.1350369681604207e-05,9.77881336439168e-06,-2.0548668544506654e-07,-1.267626339540584e-05,0.0001277350093005225
-3.2811974961077794e-05,4.44573151980876e-06,-4.287143838155316e-06,-1.171405801869696e-05,0.0001059839196386747
-2.8662745535257272e-05,1.1381724107195623e-05,-5.570171197177842e-06,-1.2981017789570615e-05,8.517325477441773e-05
-2.8716318411170505e-05,1.937250272021629e-05,-5.4360284593713e-06,-1.5312567484215833e-05,8.049922325881198e-05
-3.700497109093703e-05,2.1922547603026032e-05,-6.262636702558666e-07,-1.5601899576722644e-05,8.251729741459712e-05
-5.20252542628441e-05,2.0141165805398487e-05,7.531493338319706e-06,-1.5617088138242252e-05,7.967405690578744e-05
-6.823635339969769e-05,1.6774543837527744e-05,1.0647179806255735e-05,-1.5413328583235852e-05,7.127566641429439e-05
-8.019978849915788e-05,1.3705077435588464e-05,1.0889008990488946e-05,-1.3766247320745606e-05,6.176466558827087e-05
-8.275241270894185e-05,1.1317317330394872e-05,1.1864575753861573e-05,-1.2507874998846091e-05,5.802285159006715e-05
-7.238893158501014e-05,8.866230928106233e-06,1.4810063476033974e-05,-1.2639538908842951e-05,5.582934318226762e-05
-5.236968718236312e-05,4.460710442799609e-06,1.6252566638286225e-05,-1.1467325748526491e-05,4.1464903915766627e-05
-3.974190622102469e-05,-3.4171537208749214e-06,1.324384084000485e-05,-8.689762580615934e-06,1.906489887915086e-05
-4.332902972237207e-05,-8.749889275350142e-06,8.04467526904773e-06,-9.349831088911742e-06,8.042273293540347e-06
-5.2773448260268196e-05,-5.51674202142749e-06,2.0506706732703606e-06,-1.603641067049466e-05,1.1332135727570858e-05
-5.751998833147809e-05,3.692670816235477e-06,2.6319844437239226e-06,-1.936191438289825e-05,1.733230601530522e-05
-5.781235813628882e-05,1.2557125955936499e-05,6.860417670395691e-06,-8.050767064560205e-06,1.9833043552353047e-05
-5.2609833801398054e-05,1.8104487025993876e-05,1.3498447515303269e-05,7.273941719176946e-06,1.095702828024514e-05
-4.163162884651683e-05,2.0927733203279786e-05,2.0366409444250166e-05,1.671875361353159e-05,-1.2400390005495865e-05
-3.225206091883592e-05,2.1880105123273097e-05,2.487208075763192e-05,2.021510044869501e-05,-3.702097455970943e-05
-3.1189669243758544e-05,2.1777394067612477e-05,2.4910312276915647e-05,2.144751306332182e-05,-4.673376679420471e-05
-3.483815453364514e-05,2.423104342597071e-05,2.4475730242556892e-05,2.3830591089790687e-05,-3.7981746572768316e-05
-3.692476457217708e-05,3.167291288264096e-05,2.80936492345063e-05,2.6662921300157905e-05,-2.052994204859715e-05
-3.947020013583824e-05,4.0830425859894603e-05,3.210274371667765e-05,3.104823190369643e-05,-8.865810059432988e-07
-4.7554814955219626e-05,4.362687832326628e-05,3.032920358236879e-05,3.0562267056666315e-05,1.9399600205360912e-05
-5.6372442486463115e-05,3.9208443922689185e-05,2.425435923214536e-05,2.4294964532600716e-05,3.629997081588954e-05
-5.659633461618796e-05,3.601298158173449e-05,1.9338151105330326e-05,1.8850678316084668e-05,4.6271630708361045e-05
-4.7418219764949754e-05,3.63753097190056e-05,1.592206535860896e-05,1.3390214917308185e-05,5.333428634912707e-05
-3.4348631743341684e-05,3.3020325645338744e-05,1.204636828333605e-05,3.17942067340482e-07,6.8904941144865e-05
-2.3546141164842993e-05,2.0802879589609802e-05,5.050248546467628e-06,-2.3422340746037662e-05,9.71651534200646e-05
-2.0342738935141824e-05,8.50289325171616e-06,3.462428921352512e-08,-5.3449235565494746e-05,0.00013030917034484446
-2.2015721697243862e-05,9.965287063096184e-06,-1.683117034190218e-06,-7.884528167778626e-05,0.0001616749941604212
-1.8636497770785354e-05,2.0192665033391677e-05,-5.5506002354377415e-06,-9.536086145089939e-05,0.00019703531870618463
-1.3076832146907691e-05,2.5403973268112168e-05,-9.932975444826297e-06,-0.00010229697363683954,0.00022447964875027537
-8.770793101575691e-06,2.8315676900092512e-05,-1.0782912795548327e-05,-0.00010223794379271567,0.00022125006944406778
-3.5665841551235644e-06,3.460119114606641e-05,-9.799524377740454e-06,-0.00010577126522548497,0.00019578960200306028
-3.8006010072422214e-06,4.391090260469355e-05,-6.251519607758382e-06,-0.00010633782221702859,0.00016695683007128537
-3.981220743298763e-06,4.786144563695416e-05,-6.930879408173496e-07,-8.514997898600996e-05,0.00013487193791661412
-6.20635603354458e-07,4.197730595478788e-05,1.9658893961604917e-06,-4.7702935262350366e-05,0.00011063261626986787
-5.056841018813429e-06,3.475107587291859e-05,-1.2747849496008712e-06,-1.6005929865059443e-05,0.00010569811274763197
-2.0276795112295076e-05,3.344738433952443e-05,-4.340061423135921e-06,-4.071037892572349e-06,0.00010621678666211665
-4.0138587792171165e-05,3.640308204921894e-05,-5.485871497512562e-06,-5.872140718565788e-06,9.520802996121347e-05
-4.959038778906688e-05,3.651111546787433e-05,-3.837460553768324e-06,-6.13712654740084e-06,7.282826845766976e-05
-4.585956412483938e-05,3.365950760780834e-05,-4.865178652835311e-06,-6.239970389287919e-06,5.628238068311475e-05
-4.009338590549305e-05,3.6103170714341104e-05,-5.918908755120356e-06,-8.13017049949849e-06,4.915523459203541e-05
-3.7246041756588966e-05,3.9610105886822566e-05,-3.896685939253075e-06,-8.955354132922366e-06,4.197875750833191e-05
-3.245213520131074e-05,3.652560917544179e-05,-2.506964847270865e-06,-6.154677976155654e-06,2.2943433577893302e-05
-3.379322879482061e-05,2.6926141799776815e-05,-3.905712674168171e-06,-5.726827566832071e-06,-3.818268396571511e-06
-4.598460873239674e-05,1.4640470908489078e-05,-5.88698230785667e-06,-8.210939085984137e-06,-2.6044321202789433e-05
-6.112764094723389e-05,7.458983873220859e-06,-3.6333456137072062e-06,-1.1202487257833127e-05,-3.2573014323133975e-05
-7.016144809313118e-05,2.002993596761371e-06,-6.121317710494623e-07,-1.6395706552430056e-05,-1.2400979358062614e-05
-6.850702629890293e-05,-7.647572601854336e-06,1.9316394173074514e-06,-2.2530653950525448e-05,2.847319410648197e-05
-5.116031752550043e-05,-1.0876359738176689e-05,2.012441882470739e-06,-2.7680956918629818e-05,6.419538840418682e-05
-1.107432308344869e-05,2.4861715246515814e-06,-1.5067123513290426e-06,-2.5480221665930003e-05,7.796556747052819e-05
4.098362842341885e-05,2.3632313968846574e-05,-6.898395440657623e-06,-1.7999323972617276e-05,7.344410551013425e-05
7.636691589141265e-05,3.9453796489397064e-05,-6.525569915538654e-06,-1.2936156963405665e-05,5.967695688013919e-05
7.425122748827562e-05,4.624356733984314e-05,2.4553271487093298e-06,-1.361399881716352e-05,4.991978494217619e-05
4.3821553845191374e-05,4.4701424485538155e-05,1.346364206256112e-05,-1.718796011118684e-05,5.6632503401488066e-05
7.437240128638223e-06,3.63334002031479e-05,1.6873398635652848e-05,-1.7076998119591735e-05,7.206261943792924e-05
-1.6625710486550815e-05,2.9221366276033223e-05,1.2767466614604928e-05,-6.867622232675785e-06,7.452722638845444e-05
-2.43259928538464e-05,2.8949360057595186e-05,8.401487320952583e-06,1.001270084088901e-05,6.114055577199906e-05
-2.5885001377901062e-05,3.427767296670936e-05,7.641158845217433e-06,2.3376487661153078e-05,4.063931919517927e-05
-2.361920451221522e-05,3.785704029724002e-05,6.912708158779424e-06,3.0571711249649525e-05,2.7519758077687584e-05
-7.49295440982678e-06,3.48886642314028e-05,3.7297365906852065e-06,3.7069803511258215e-05,2.9406342946458608e-05
1.1896424439328257e-05,2.884868263208773e-05,-6.861132533231284e-07,4.207621168461628e-05,3.92231740988791e-05
2.074380245176144e-05,2.7377989681554027e-05,-3.2228131203737576e-06,3.888525679940358e-05,4.250438360031694e-05
1.4823247511230875e-05,3.1730356568004936e-05,-1.5175431826719432e-06,3.251118687330745e-05,4.017474566353485e-05
4.707073912868509e-07,3.4129585401387885e-05,1.2881515658591525e-06,3.077469227719121e-05,4.2735682654893026e-05
-1.2334004168224055e-05,3.199220373062417e-05,4.992313051843666e-07,3.345308869029395e-05,4.791337050846778e-05
-1.9799063011305407e-05,2.7462576326797716e-05,-2.289873009431176e-06,3.983667556894943e-05,4.1437684558331966e-05
-2.1629199181916192e-05,2.4493498131050728e-05,-5.3134413064981345e-06,4.141858153161593e-05,1.7345719243166968e-05
-2.0985991795896553e-05,2.3553498976980336e-05,-5.6964299801620655e-06,3.304129859316163e-05,5.18434490004438e-06
-1.836949923017528e-05,2.7198535462957807e-05,-3.806922450166894e-06,1.552225512568839e-05,3.485606430331245e-05
-1.6284686353174038e-05,3.126336741843261e-05,-5.958410383755108e-06,-6.227533958735876e-06,8.588572381995618e-05
-1.7958447642740794e-05,3.1813178793527186e-05,-9.036532901518513e-06,-2.546132236602716e-05,0.00011609950161073357
-2.6700763555709273e-05,3.1228835723595694e-05,-7.534408268838888e-06,-3.804804873652756e-05,0.000105564649857115
-3.9723014197079465e-05,3.278955045971088e-05,-1.1239737887080992e-06,-4.316082413424738e-05,6.50378133286722e-05
-4.841687768930569e-05,3.745709909708239e-05,4.919644652545685e-06,-4.696287214756012e-05,2.3656019038753584e-05
-5.1382998208282515e-05,4.058230115333572e-05,8.912478733691387e-06,-4.750661537400447e-05,3.915866386705602e-07
-5.221714673098177e-05,3.592613211367279e-05,1.1653085493890103e-05,-3.371809725649655e-05,-9.960539273379254e-07
-5.205971683608368e-05,2.4286788175231777e-05,1.2649815289478283e-05,-3.0624673854617868e-06,1.2731284186884295e-05
-5.148184936842881e-05,1.7669362932792865e-05,1.3276235222292598e-05,2.898552338592708e-05,2.84835714410292e-05
-4.824392090085894e-05,2.5678120437078178e-05,1.670086567173712e-05,4.932043520966545e-05,4.23425663029775e-05
-4.179769894108176e-05,4.052966687595472e-05,2.143497476936318e-05,5.590195723925717e-05,5.8023291785502806e-05
-3.994516373495571e-05,4.4216398237040266e-05,2.2403004550142214e-05,5.234101627138443e-05,7.07120998413302e-05
-4.720744618680328e-05,3.801671846304089e-05,1.9127312043565325e-05,4.317748607718386e-05,7.486431422876194e-05
-4.990989691577852e-05,3.347716119606048e-05,1.6241448975051753e-05,3.216670666006394e-05,7.369912054855376e-05
-3.882351302308962e-05,3.480038503766991e-05,1.4329492842080072e-05,2.187148311350029e-05,6.88009531586431e-05
-2.749302439042367e-05,3.9803999243304133e-05,1.0002861927205231e-05,1.3176791071600746e-05,5.937651440035552e-05
-2.35585084737977e-05,4.314494799473323e-05,2.8213983114255825e-06,2.094718865919276e-06,4.7680769057478756e-05
-2.1888185074203648e-05,4.0947783418232575e-05,-2.362764774943571e-07,-1.4278927665145602e-05,4.5176202547736466e-05
-2.1475412722793408e-05,3.746799484360963e-05,1.0601232816043193e-06,-4.0018425352172926e-05,7.222581189125776e-05
-2.1216090317466296e-05,3.321753320051357e-05,-2.3524560219811974e-06,-6.670311267953366e-05,0.00010440474579809234
-2.0838580894633196e-05,2.898841012211051e-05,-7.697118235228118e-06,-8.329343108925968e-05,0.00010070906137116253
-2.1582025510724634e-05,2.5891868062899448e-05,-9.608547770767473e-06,-8.890469325706363e-05,6.244077667361125e-05
-2.3378912374028005e-05,2.0539320757961832e-05,-9.940988093148917e-06,-8.204105688491836e-05,2.296824095537886e-05
-2.1586054572253488e-05,1.6257301467703655e-05,-1.2469387002056465e-05,-7.589174492750317e-05,1.064011303242296e-05
-1.5689171050325967e-05,1.542727477499284e-05,-1.5858984625083394e-05,-7.290542998816818e-05,1.7393436792190187e-05
-1.7011310774250887e-05,1.673263977863826e-05,-1.6617103028693236e-05,-6.649416172876954e-05,3.2322808692697436e-05
-2.8442873372114263e-05,1.7549335098010488e-05,-1.4778021977690514e-05,-5.284886356093921e-05,5.439002052298747e-05
-4.032368815387599e-05,1.4893104889779352e-05,-1.00548122645705e-05,-3.1431056413566694e-05,8.103226718958467e-05
-4.873977741226554e-05,8.484886166115757e-06,-3.6170979456073837e-06,-1.0848032616195269e-05,0.00010374755220254883
-5.3134361223783344e-05,-1.5435388078799406e-08,-1.4887496035953518e-06,-9.826071618590504e-07,0.00011766707757487893
-5.43276037205942e-05,-5.031420187151525e-06,-3.518062158036628e-06,-2.0255506569810677e-06,0.00012195332237752154
-5.47536437807139e-05,-3.7491897728614276e-06,-3.3261767384829e-06,-2.6147854441660456e-06,0.0001177011217805557
-5.1510989578673616e-05,1.3733912282987149e-06,-2.0480902662711742e-07,7.128864467631502e-07,0.00011232446559006348
-4.4464053644333035e-05,9.011449037643615e-06,1.7411332464689622e-06,3.605209030865808e-06,0.00011295168224023655
-3.953636041842401e-05,1.7828393538366072e-05,2.0664045052853908e-07,3.3207402339030523e-06,0.0001196004668599926
-4.147501022089273e-05,2.497202694939915e-05,-3.199919547114405e-06,1.7669975704848184e-06,0.000124285405036062
-5.290411354508251e-05,3.10864343191497e-05,-5.552640686801169e-06,-5.349388629838359e-07,0.00011966687452513725
-6.893770478200167e-05,4.075654214830138e-05,-3.591081167542143e-06,-4.912207714369288e-06,0.00010114447650266811
-7.426504453178495e-05,5.221287938184105e-05,7.447719099218375e-07,-6.414414201572072e-06,7.473264122381806e-05
-6.52756862109527e-05,5.955467713647522e-05,2.8506551643658895e-06,-7.08967263562954e-07,5.4279433243209496e-05
-5.2929073717677966e-05,5.794487151433714e-05,2.6040022476081504e-06,5.665946900990093e-06,4.4708565837936476e-05
-4.191567495581694e-05,4.277701009414159e-05,3.946068318327889e-06,6.96370761943399e-06,4.241755959810689e-05
-2.745601159404032e-05,1.541647725389339e-05,9.105514436669182e-06,5.813697043777211e-06,4.207723759463988e-05
-9.042027159011923e-06,-6.127989763626829e-06,1.1553083822946064e-05,5.977264663670212e-06,4.1391042032046244e-05
1.8316139858143288e-06,-1.0027970347437076e-05,1.067441189661622e-05,6.726351330144098e-06,4.369449379737489e-05
-4.1185793975273555e-07,-5.175998012418859e-06,1.2805970072804485e-05,4.976995114702731e-06,4.7667723265476525e-05
-4.554276983981254e-06,-4.021939730591839e-06,1.3891888556827325e-05,4.468533461476909e-06,5.2709841838805005e-05
-2.2980718767939834e-06,-4.660076228901744e-06,1.2831157619075384e-05,5.687425527867163e-06,5.375017644837499e-05
1.5882177706316725e-07,2.5136571366601856e-06,1.2512340617831796e-05,4.6359537009266205e-06,5.254587085801177e-05
-3.649715608844417e-06,1.5987203369149938e-05,1.286937822442269e-05,1.3389765172178159e-06,4.8998983402270824e-05
-5.8882205848931335e-06,2.7684516680892557e-05,1.2947945833730046e-05,-4.127059582970105e-06,4.4375563447829336e-05
1.4882685945849516e-06,2.972520269395318e-05,1.2881053407909349e-05,-8.177851668733638e-06,4.335085395723581e-05
1.0450730769662187e-05,2.5150822693831287e-05,1.447043632651912e-05,-1.0345595910621341e-05,4.212247222312726e-05
9.333241905551404e-06,2.2230860849958844e-05,1.6141515516210347e-05,-1.2802827768609859e-05,4.089989670319483e-05
-3.772076979657868e-06,2.8366781407385133e-05,1.4153626580082346e-05,-1.1870321941387374e-05,3.9521495637018234e-05
-1.6817539290059358e-05,4.118476135772653e-05,7.733209713478573e-06,-5.942666120972717e-06,4.1079292714130133e-05
-1.8398732208879665e-05,5.195827179704793e-05,3.3168291793117533e-06,-1.5782219406901277e-06,4.1669354686746374e-05
-1.1902367987204343e-05,5.857490032212809e-05,3.4655117815418635e-06,-2.9816981168551138e-06,4.18895433540456e-05
-8.915572834666818e-06,6.05418135819491e-05,6.341776952467626e-06,-6.040128027962055e-06,4.2620649765012786e-05
-1.3982474229123909e-05,6.048865907359868e-05,1.099980636354303e-05,-7.267874025274068e-06,4.508190613705665e-05
-2.0798208424821496e-05,5.9223671996733174e-05,1.5828913092263974e-05,-8.184872967831325e-06,4.856183295487426e-05
-2.5108116460614838e-05,5.495385994436219e-05,1.662861723161768e-05,-1.0823137017723639e-05,5.0500726501923054e-05
-2.9213653760962188e-05,4.8690584662836045e-05,1.3161872630007565e-05,-1.1969379556830972e-05,4.542463648249395e-05
-3.46097003784962e-05,4.568062649923377e-05,9.894398317555897e-06,-1.039570452121552e-05,3.613708395278081e-05
-3.775944423978217e-05,4.7144971176749095e-05,9.3602229753742e-06,-8.471308319712989e-06,3.279441443737596e-05
-3.5269767977297306e-05,4.9204354581888765e-05,1.0509433195693418e-05,-8.323596375703346e-06,3.750950054381974e-05
-3.084880154347047e-05,4.448138133739121e-05,1.1318154975015204e-05,-8.324729606101755e-06,4.576156061375514e-05
-2.8243342967471108e-05,3.106724034296349e-05,1.3226969713286962e-05,-8.630481715954375e-06,5.0556540372781456e-05
-3.1159157515503466e-05,2.1154080968699418e-05,1.8046950572170317e-05,-1.334853186563123e-05,5.2028062782483175e-05
-4.126132625970058e-05,2.4026152459555306e-05,2.103748920490034e-05,-1.665392301219981e-05,5.5045773478923365e-05
-4.5925506128696725e-05,3.12028314510826e-05,1.9086108295596205e-05,-1.1521967280714307e-05,5.793995296698995e-05
-4.2613621189957485e-05,2.8731783459079452e-05,1.6056961612775922e-05,-4.14444230045774e-06,5.7255241699749604e-05
-3.829889828921296e-05,2.110238710884005e-05,1.0947082955681253e-05,-6.18251624473487e-06,5.408584911492653e-05
-3.5962457332061604e-05,1.8067734345095232e-05,5.246358796284767e-06,-1.1649520274659153e-05,5.277711170492694e-05
-3.462836684775539e-05,1.9540346329449676e-05,2.583286459412193e-06,-1.0345103873987682e-05,5.3873667638981715e-05
-3.454748366493732e-05,2.5316903702332638e-05,5.642000814987114e-06,-8.672510375618003e-06,5.399152360041626e-05
-3.1476061849389225e-05,2.685083745745942e-05,1.2033098755637184e-05,-9.575238436809741e-06,5.2230345318093896e-05
-2.3185664758784696e-05,1.733984572638292e-05,1.4797198673477396e-05,-1.2103142580599524e-05,4.205076038488187e-05
-1.8557324438006617e-05,9.958186637959443e-06,1.3272627256810665e-05,-1.350124875898473e-05,3.697798456414603e-05
-1.7559681509737857e-05,1.5067278582137078e-05,9.739739653014112e-06,-1.3538402527046856e-05,4.293261008569971e-05
-1.7082429621950723e-05,2.4065082470769994e-05,7.072033440636005e-06,-1.4645866031059995e-05,5.539887206396088e-05
-1.7469090380473062e-05,3.074886990361847e-05,5.233898718870478e-06,-1.608626735105645e-05,6.508082879008725e-05
-1.8443906810716726e-05,3.241803278797306e-05,4.2926621972583234e-06,-1.4087375348026399e-05,6.761839904356748e-05
-1.7490425307187252e-05,2.9419970815069973e-05,7.315870789170731e-06,-1.010755750030512e-05,6.288450822466984e-05
-1.863102261268068e-05,2.689518987608608e-05,1.1376754628145136e-05,-7.96228414401412e-06,5.716409214073792e-05
-1.936428452609107e-05,2.7527392376214266e-05,1.1105477824457921e-05,-9.265847438655328e-06,5.7801935327006504e-05
-1.9176401110598817e-05,2.7791069442173466e-05,8.406711458519567e-06,-1.3989655599289108e-05,6.116167787695304e-05
-2.1770898456452414e-05,2.4919323550420813e-05,6.487624887085985e-06,-1.6750751456129365e-05,6.361907435348257e-05
-2.5691066184663214e-05,2.3262919057742693e-05,5.33540014657774e-06,-1.6921663700486533e-05,6.27940462436527e-05
-2.912553281930741e-05,2.4676110115251504e-05,6.0497873164422344e-06,-1.9119546777801588e-05,5.94382181589026e-05
-3.272208050475456e-05,2.74925787380198e-05,7.060399184410926e-06,-2.398629476374481e-05,5.369617429096252e-05
-3.7494257412618026e-05,2.8163472961750813e-05,7.805342647770885e-06,-2.423487421765458e-05,4.7057033953024074e-05
-4.00577591790352e-05,2.5775218091439456e-05,1.0701208339014556e-05,-1.612027335795574e-05,3.794570511672646e-05
-4.112389433430508e-05,2.6955447538057342e-05,1.4538490177073982e-05,-7.372530490101781e-06,2.6212172087980434e-05
-4.253943188814446e-05,3.692863538162783e-05,1.880341733340174e-05,-6.052715434634592e-06,1.4476120668405201e-05
-3.783823922276497e-05,4.6401324652833864e-05,2.2360422008205205e-05,-6.947586825845065e-06,1.142087876360165e-05
-1.7868696886580437e-05,4.797602377948351e-05,2.2287731553660706e-05,-8.450847417407203e-06,1.815989708120469e-05
1.1472941878309939e-05,4.5523491280619055e-05,1.9165723642800003e-05,-1.0939056664938107e-05,3.0989122024038807e-05
3.101231777691282e-05,4.638884274754673e-05,1.5368283129646443e-05,-1.1194322723895311e-05,4.764438926940784e-05
2.311840398760978e-05,4.4600325054489076e-05,1.2583841453306377e-05,-4.378322046250105e-06,6.686739652650431e-05
-1.2551364534374443e-06,3.487506546662189e-05,1.1454834748292342e-05,5.528491442419181e-07,7.726578041911125e-05
-1.1051774890802335e-05,2.16773223655764e-05,8.754381269682199e-06,-5.029944077250548e-06,7.990061567397788e-05
-9.051712368091103e-06,1.072049326467095e-05,6.694677722407505e-06,-1.1799371350207366e-05,7.830762478988618e-05
-1.271487599296961e-05,1.2471582522266544e-05,7.6051201176596805e-06,-1.3896339623897802e-05,7.327549246838316e-05
-2.1924128304817714e-05,2.26926313189324e-05,7.679550435568672e-06,-1.5899935533525422e-05,6.221090734470636e-05
-3.4317119570914656e-05,2.6483379770070314e-05,6.854536877654027e-06,-2.0878122086287476e-05,5.112599683343433e-05
-4.054142118548043e-05,2.2499438273371197e-05,7.130236554075964e-06,-1.874022746051196e-05,5.835911724716425e-05
-3.6131365050096065e-05,2.0723198758787476e-05,8.270259058917873e-06,-1.2456172044039704e-05,7.819280290277675e-05
-1.9963425074820407e-05,2.4562083126511425e-05,9.459208740736358e-06,-8.690987669979222e-06,9.358758688904345e-05
-2.681748810573481e-06,2.7460831915959716e-05,1.1977172107435763e-05,-6.219602710189065e-06,9.237526683136821e-05
2.3018383217277005e-06,2.8511425625765696e-05,1.3064667655271478e-05,-4.687148248194717e-06,7.774135883664712e-05
-3.938259851565817e-06,3.2763888157205656e-05,1.0231277883576695e-05,-6.106728051236132e-06,6.434966780943796e-05
-1.3470979865815025e-05,4.193552740616724e-05,6.435596787923714e-06,-7.345087851717835e-06,6.466515333158895e-05
-2.0985438823117875e-05,5.3322008170653135e-05,7.649629878869746e-06,-4.9728573685570154e-06,7.206216105259955e-05
-2.496619890735019e-05,6.04652741458267e-05,9.319453965872526e-06,-3.6087565149500733e-06,7.502747757826e-05
-2.4463939553243108e-05,5.8476733101997524e-05,4.5594920266012195e-06,-5.31171554030152e-06,7.199967512860894e-05
-2.2931573766982183e-05,4.932572483085096e-05,-3.4482375212974148e-06,-8.328041985805612e-06,6.598755135200918e-05
-2.1452075088745914e-05,3.7303598219295964e-05,-8.854417501424905e-06,-1.1235981219215319e-05,6.050484080333263e-05
-1.9459785107756034e-05,2.087815482809674e-05,-1.0443845894769765e-05,-1.4028373698238283e-05,5.621875970973633e-05
-1.770585004123859e-05,6.334163913379598e-07,-8.566922588215675e-06,-1.4635717889177613e-05,5.125445022713393e-05
-1.806809814297594e-05,-1.0675862540665548e-05,-5.421834430308081e-06,-1.3010151633352507e-05,5.061131014372222e-05
-1.9760818759095855e-05,-3.630572336987825e-06,-3.776177891268162e-06,-1.1344249287503771e-05,5.7552028010832146e-05
-1.7445572666474618e-05,7.941395779198501e-06,-1.667312631070672e-06,-9.096868780034129e-06,6.497358117485419e-05
-1.0910475793934893e-05,1.3735982065554708e-05,-7.139811373235716e-07,-4.836921107198577e-06,6.636603211518377e-05
-6.5696212914190255e-06,2.4678456611582078e-05,-9.129261684392986e-07,-5.125541520101251e-07,6.136173760751262e-05
-4.661005277739605e-06,4.088512287125923e-05,-4.665354822463996e-07,1.994449803532916e-06,6.0563474107766524e-05
-5.587346095126122e-06,5.034798596170731e-05,9.258652653443278e-07,2.610517640277976e-06,6.700084486510605e-05
-1.3557365491578821e-05,4.987544525647536e-05,3.287344497948652e-06,3.0203234473447083e-06,7.065026147756726e-05
-2.8827704227296636e-05,4.443267607712187e-05,4.469562099984614e-06,3.015846459675231e-06,7.032776193227619e-05
-3.8204543670872226e-05,4.083070598426275e-05,9.10086555450107e-07,3.0196802072168794e-06,6.98181102052331e-05
-3.366484452271834e-05,4.215064473100938e-05,-1.7616555396671174e-06,3.273504944445449e-06,7.108615682227537e-05
-2.4829198082443327e-05,4.443295256351121e-05,-9.954727602234925e-07,3.6061039736523526e-06,7.535963231930509e-05
-2.562176996434573e-05,4.140390228712931e-05,-1.3143782098268275e-06,3.487456297079916e-06,8.185784827219322e-05
-3.6505232856143266e-05,3.591303538996726e-05,-3.6772680687136017e-06,3.5270982152724173e-06,8.689460810273886e-05
-5.4441137763205916e-05,3.2552401535212994e-05,-6.408774424926378e-06,3.7519962461374234e-06,8.612107922090217e-05
-7.699085108470172e-05,3.5550834581954405e-05,-5.890436568734003e-06,2.2979611458140425e-06,7.558979268651456e-05
-9.414475061930716e-05,4.154584530624561e-05,-1.870723735919455e-06,2.2975122249135893e-07,5.4154581448528916e-05
-9.769927419256419e-05,3.96818904846441e-05,2.0695152258554117e-08,8.314466413139598e-07,2.596714512037579e-05
-8.919648826122284e-05,2.561987093940843e-05,-2.2836532025394263e-06,2.4186713289964246e-06,8.855997293721884e-06
-7.290349458344281e-05,7.150917554099578e-06,-4.199140676064417e-06,1.6954924149104045e-06,1.6198240700759925e-05
-5.095186861581169e-05,-2.3628974759049015e-06,-2.2519536742038326e-06,2.354770316514987e-07,3.6218742025084794e-05
-2.994476744788699e-05,1.034123783938412e-06,2.4579730961704627e-06,-4.341754447523272e-06,5.414975748863071e-05
-1.861137388914358e-05,1.038104801409645e-05,7.452865247614682e-06,-1.1719281246769242e-05,6.646430847467855e-05
-2.0030522136949003e-05,1.8283333702129312e-05,9.392549145559315e-06,-1.619589966139756e-05,7.42213596822694e-05
-2.654980926308781e-05,2.3751830667606555e-05,5.272113412502222e-06,-1.6457219317089766e-05,7.570828165626153e-05
-3.1129126000450924e-05,2.6763473215396516e-05,-1.9937076558562694e-06,-1.746057932905387e-05,7.006568921497092e-05
-3.199529237463139e-05,2.726439015532378e-05,-7.036174793029204e-06,-2.0522407794487663e-05,6.453183596022427e-05
-2.8625237973756157e-05,2.4232760551967658e-05,-7.296072453755187e-06,-2.199565824412275e-05,6.589447002625093e-05
-1.3357213902054355e-05,1.9052367861149833e-05,-5.301476448948961e-06,-2.256914558529388e-05,6.902934546815231e-05
1.54401313920971e-05,1.5985884601832367e-05,-5.248352408671053e-06,-2.5714094590512104e-05,7.017652387730777e-05
4.141861427342519e-05,1.3348856555239763e-05,-3.5367543205211405e-06,-2.9065275157336146e-05,6.599690823350102e-05
4.313905810704455e-05,1.1643129255389795e-05,1.8987939256476238e-06,-3.20102772093378e-05,5.574782699113712e-05
1.7874514014692977e-05,1.2770188732247334e-05,5.233076990407426e-06,-2.9295249987626448e-05,4.479246854316443e-05
-1.5676361726946197e-05,1.763276850397233e-05,8.359161256521475e-06,-2.0995297745685093e-05,4.213211650494486e-05
-4.178126619081013e-05,2.0265573766664602e-05,9.31853810470784e-06,-1.616536064830143e-05,5.1904149586334825e-05
-5.9062505897600204e-05,1.8850974811357446e-05,9.36943160922965e-06,-1.535494448035024e-05,6.088072041166015e-05
-7.52033301978372e-05,1.991558019653894e-05,1.3309605492395349e-05,-1.6561016309424303e-05,5.884419442736544e-05
-9.467400377616286e-05,1.8683436792343855e-05,1.4783018741582055e-05,-1.6828103980515152e-05,5.0644477596506476e-05
-0.00010964911780320108,1.868479921540711e-05,1.4658111467724666e-05,-1.5109721971384715e-05,4.69322876597289e-05
-9.848244371823967e-05,1.8187205569120124e-05,1.0848493730009068e-05,-1.2062567293469328e-05,4.858912870986387e-05
-5.8159290347248316e-05,1.6381198292947374e-05,5.923694061493734e-06,-9.492465324001387e-06,5.322824654285796e-05
-1.5839797924854793e-05,1.822931517381221e-05,7.246881068567745e-06,-1.0302207556378562e-05,5.687975135515444e-05
6.902882887516171e-06,2.5872066544252448e-05,8.00036832515616e-06,-1.4435149751079734e-05,5.707121817977168e-05
5.867991148988949e-06,3.3002750569721684e-05,5.712136044166982e-06,-1.8484104657545686e-05,6.277590728132054e-05
-9.894280083244666e-06,3.427954652579501e-05,4.1341036194353364e-06,-2.0527970264083706e-05,7.5637421105057e-05
-2.4102053430397063e-05,3.512707553454675e-05,7.286446816578973e-06,-1.9831166355288588e-05,8.396729390369728e-05
-2.5007861040649004e-05,3.884173202095553e-05,1.1585945685510524e-05,-1.7617299818084575e-05,8.008016448002309e-05
-1.8054741303785704e-05,4.2491694330237806e-05,1.0039200788014568e-05,-1.6263626093859784e-05,6.950404349481687e-05
-1.310468178417068e-05,4.206330777378753e-05,2.7792395940196e-06,-1.796026117517613e-05,5.967466495349072e-05
-1.3319086974661332e-05,4.0915034333011135e-05,-3.3191679449373623e-06,-2.0629166101571172e-05,5.310942287906073e-05
-1.6010959370760247e-05,3.948709854739718e-05,-5.115819476486649e-06,-2.0128911273786798e-05,4.727825216832571e-05
-1.8790040485328063e-05,3.831753565464169e-05,-4.486708348849788e-06,-1.5615030861226842e-05,4.1301311284769326e-05
-2.0762612621183507e-05,3.7253772461554036e-05,-2.913366415668861e-06,-7.013838512648363e-06,3.4144271921832114e-05
-1.9433104171184823e-05,3.801519051194191e-05,8.257347872131504e-07,4.45202067567152e-06,2.87840302917175e-05
-1.4385303984454367e-05,4.0295552025781944e-05,7.293808266695123e-06,1.5370131222880445e-05,2.687849337235093e-05
-1.2747869732265826e-05,4.042666478198953e-05,9.335480172012467e-06,2.3943039195728488e-05,2.487259371264372e-05
-1.990058990486432e-05,3.917021967936307e-05,3.3573510336282197e-06,3.086203651037067e-05,2.4340301024494693e-05
-2.9137818273738958e-05,3.695613850140944e-05,-1.378133333673759e-06,3.576131712179631e-05,2.338003287150059e-05
-3.198936246917583e-05,3.0318555218400434e-05,1.755427888383565e-06,3.683924660435878e-05,2.098695949825924e-05
-2.9313019695109688e-05,2.418798794678878e-05,8.161212463164702e-06,3.419303538976237e-05,2.0351721104816534e-05
-2.9113019991200417e-05,1.923514537338633e-05,1.610254548722878e-05,2.906854024331551e-05,3.149623080389574e-05
-3.149772237520665e-05,1.7037504221661948e-05,2.2618054572376423e-05,2.3655384211451747e-05,5.212503674556501e-05
-3.212486262782477e-05,2.3639751816517673e-05,2.9243437893455848e-05,2.134645910700783e-05,6.377482350217178e-05
-3.1697883969172835e-05,3.302855839137919e-05,3.493854819680564e-05,2.1639834812958725e-05,6.437320553231984e-05
-3.0091649023233913e-05,4.342725151218474e-05,3.289281085017137e-05,1.8474633179721422e-05,6.618130282731727e-05
-2.745527854131069e-05,5.2660692745121196e-05,2.573041092546191e-05,6.839586148998933e-06,8.177456766134128e-05
-2.375132498855237e-05,5.3042254876345396e-05,1.801596226869151e-05,-7.9032797657419e-06,0.00010265915625495836
-1.968215474335011e-05,4.478080154513009e-05,1.2172959031886421e-05,-2.0291254259063862e-05,0.00010937991464743391
-1.9340172002557665e-05,3.164527515764348e-05,7.061672931740759e-06,-3.474607729003765e-05,0.00010417638259241357
-1.649512523727026e-05,2.36176547332434e-05,2.2118936158221914e-06,-5.424645860330202e-05,9.89437394309789e-05
-1.1474434359115548e-05,2.4037253751885146e-05,1.7483636156612192e-06,-7.336179260164499e-05,9.700692316982895e-05
-8.132804396154825e-06,2.6736595827969722e-05,5.831099770148285e-06,-8.821680239634588e-05,9.424010204384103e-05
-1.1262989573879167e-05,2.2433890990214422e-05,7.121952421584865e-06,-9.835425589699298e-05,9.103475167648867e-05
-1.8109200027538463e-05,8.379694918403402e-06,3.009403371834196e-06,-9.632112778490409e-05,9.186266834149137e-05
-2.422697980364319e-05,-5.840722678840393e-06,-2.2186297883308725e-06,-7.456092862412333e-05,9.394172229804099e-05
-3.181431020493619e-05,-9.599094482837245e-06,-4.8809793042892125e-06,-4.648040339816362e-05,8.360866195289418e-05
-4.137845826335251e-05,-8.981191967905033e-07,-2.8591327918547904e-06,-2.9884457035223022e-05,5.644566044793464e-05
-4.9620281060924754e-05,1.2444255844457075e-05,2.2064955373934936e-06,-2.6078549126395956e-05,3.376976746949367e-05
-5.127494296175428e-05,2.2905878722667694e-05,5.557993063121103e-06,-2.8432943508960307e-05,4.116767013329081e-05
-4.261602589394897e-05,2.838301043084357e-05,3.16028081215336e-06,-3.136706436634995e-05,6.626656249864027e-05
-2.633831354614813e-05,3.0307484848890454e-05,-1.340296307716926e-06,-2.9535329304053448e-05,7.829073729226366e-05
-1.5579456885461695e-05,2.7359807063476183e-05,1.0917636927842977e-07,-2.409430089755915e-05,7.595960778417066e-05
-1.4240270502341446e-05,2.3187491024145856e-05,4.088265541213332e-06,-1.8997372535523027e-05,7.190348696894944e-05
-1.6940337445703335e-05,2.3504568162024952e-05,4.467120106710354e-06,-1.2829646038881037e-05,6.876777479192242e-05
-2.1214249500189908e-05,2.8273136194911785e-05,3.3380163131369045e-06,-8.188393621821888e-06,6.091013710829429e-05
-3.254770490457304e-05,3.127812306047417e-05,4.05380706069991e-06,-1.0337867934140377e-05,3.6614874261431396e-05
-4.754221299663186e-05,2.6174308004556224e-05,4.6208456296881195e-06,-1.6704412701074034e-05,-3.6634717162087327e-06
-5.653601692756638e-05,1.9741744836210273e-05,2.4326441234734375e-06,-2.3504246200900525e-05,-3.031750748050399e-05
-5.1648588851094246e-05,2.454950663377531e-05,3.651420684036566e-06,-2.528882941987831e-05,2.354693378947559e-06
-3.806034874287434e-05,3.0119832445052452e-05,4.56169800600037e-06,-2.20503679884132e-05,7.492716395063326e-05
-2.5716512027429417e-05,3.2066989660961553e-05,6.207110345712863e-06,-2.1328009097487666e-05,0.00011542997526703402
-2.0296420188969932e-05,3.325666693854146e-05,8.45008162286831e-06,-2.279285399708897e-05,0.00010718340490711853
-2.156694608856924e-05,3.404774543014355e-05,8.147082553477958e-06,-2.397504613327328e-05,8.400349179282784e-05
-2.2004278434906155e-05,3.5228702472522855e-05,7.70374208514113e-06,-2.2327820261125453e-05,7.554165495093912e-05
-2.003499866987113e-05,3.639207352534868e-05,2.9687778351217275e-06,-2.0968269382137805e-05,7.861459744162858e-05
-1.7447115169488825e-05,3.990655386587605e-05,-3.2173898034670856e-07,-2.0826308173127472e-05,8.501834236085415e-05
-1.677413638390135e-05,4.1282622987637296e-05,-1.1819402061519213e-06,-1.9677576347021386e-05,9.118048910750076e-05
-1.9722807337529957e-05,3.768098758882843e-05,-8.316874300362542e-07,-1.6170373783097602e-05,9.829456394072622e-05
-2.4254695745185018e-05,3.475570701994002e-05,-1.300955318583874e-06,-1.2383623470668681e-05,0.00010555078915785998
-2.7179123208043166e-05,3.7939742469461635e-05,-3.0668893487018067e-06,-7.983888281160034e-06,0.0001084650430129841
-2.8299509722273797e-05,4.0083774365484715e-05,-2.437517878206563e-06,-5.358475846151123e-06,0.00010569560254225507
-2.5275794541812502e-05,3.6508361517917365e-05,7.1686781666358e-07,-5.535509444598574e-06,0.00010027903044829145
-1.862605131464079e-05,2.82563178188866e-05,3.990661753050517e-06,-4.133381025894778e-06,9.329830936621875e-05
-1.7866801499621943e-05,2.0353088984848e-05,3.942618150176713e-06,-8.96774963621283e-07,8.416377386311069e-05
-2.1303929315763526e-05,1.862847784650512e-05,1.5194318621070124e-06,1.0564633612375474e-06,7.169985474320129e-05
-1.93975429283455e-05,2.557808875280898e-05,-2.228982651786282e-07,1.3365666973186308e-06,5.0513346650404856e-05
-1.5248277122736908e-05,3.3695010642986745e-05,-2.6715676426647406e-07,2.2456731585407397e-06,2.0642673916881904e-05
-1.6318721463903785e-05,3.655088949017227e-05,1.1249902627241681e-06,2.267155878143967e-06,-9.596564041203237e-07
-2.246670010208618e-05,3.5567481972975656e-05,4.040011845063418e-06,2.6728703232947737e-06,4.038306997244945e-06
-3.0694562155986205e-05,3.4082600905094296e-05,7.805484528944362e-06,1.7585106206752243e-06,2.233272789453622e-05
-3.773392381845042e-05,3.212496085325256e-05,1.1562769032025244e-05,1.2178549013697193e-06,3.438687781454064e-05
-3.8872225559316576e-05,3.079315138165839e-05,1.1720220754796173e-05,2.9524242108891485e-06,3.123744318145327e-05
-3.3620945032453164e-05,2.886675611080136e-05,9.827077519730665e-06,1.0561871022218838e-06,1.832317138905637e-05
-3.0404578865272924e-05,2.232638325949665e-05,9.65830167842796e-06,-4.652765255741542e-06,1.3903204489906784e-05
-2.9524268029490486e-05,2.0812181901419535e-05,1.0373057193646673e-05,-8.229634659073781e-06,2.493744068488013e-05
-2.699986544030253e-05,2.807146120176185e-05,1.0437367564009037e-05,-6.322102308331523e-06,3.802665014518425e-05
-2.22981943807099e-05,3.9176895370474085e-05,1.3569170732807834e-05,-3.6879175695503363e-06,4.6508012019330636e-05
-2.110795867338311e-05,4.3900996388401836e-05,1.997832441702485e-05,-2.5647073016443755e-06,5.594876711256802e-05
-2.9923021429567598e-05,4.07745610573329e-05,2.2382471797754988e-05,1.1964253872065456e-06,7.096344052115455e-05
-3.944891068385914e-05,3.749625102500431e-05,2.0281786419218406e-05,5.867715572094312e-06,8.318779873661697e-05
-3.8944890548009425e-05,3.5103199479635805e-05,1.4424042092286982e-05,8.346196409547701e-06,8.38952255435288e-05
-2.592034979898017e-05,3.3081829315051436e-05,8.327836440003011e-06,4.18156741943676e-06,7.332144014071673e-05
-1.1588424058572855e-05,2.9484168408089317e-05,5.7126235333271325e-06,-2.641397031766246e-06,5.1394996262388304e-05
-4.9719396884029265e-06,2.5852472390397452e-05,4.575516868499108e-06,-5.694129868061282e-06,2.185649827879388e-05
-8.833055289869662e-06,2.4477809347445145e-05,6.390935141098453e-06,-4.356425506557571e-06,4.23833989771083e-06
-1.4903413102729246e-05,2.6907673600362614e-05,8.796543625066988e-06,-3.6979261039959965e-06,1.217410772369476e-05
-1.5489238649024628e-05,3.0374250854947604e-05,6.175460839585867e-06,-5.487361704581417e-06,3.1752835639053956e-05
-1.3501491594070103e-05,3.166870737913996e-05,1.947046939676511e-06,-7.62277204557904e-06,4.72940992040094e-05
-1.512096423539333e-05,3.3856926165753976e-05,2.9411778541543754e-06,-7.174541224230779e-06,5.198153303354047e-05
-2.0016819689772092e-05,3.8530994061147794e-05,6.276108706515515e-06,-2.95855261356337e-06,5.0546008424134925e-05
-2.2923402866581455e-05,4.121088932151906e-05,6.578881311725127e-06,3.7647557746822713e-06,5.0062746595358476e-05
-2.1470439605764113e-05,3.814864976448007e-05,4.474916750041302e-06,9.25481435842812e-06,5.135785977472551e-05
-1.79298767761793e-05,3.312625995022245e-05,2.372864628341631e-06,8.269432328233961e-06,5.444777707452886e-05
-1.770651579136029e-05,3.058239599340595e-05,1.0421947536087828e-06,4.51019923275453e-06,5.7895438658306375e-05
-2.0728753952425905e-05,3.037023270735517e-05,1.6594891576460213e-06,2.3084362510417122e-06,5.839991717948578e-05
-2.627622234285809e-05,3.0017134122317657e-05,1.9340709513926413e-06,1.9562246507121017e-06,5.697815868188627e-05
-2.9069087759125978e-05,3.0278635676950216e-05,-8.260166737272812e-07,1.4812462723057251e-06,5.6384826166322455e-05
-2.5050296244444326e-05,3.0352772228070535e-05,-4.148771495238179e-06,1.6014132597774733e-07,5.8556754083838314e-05
-2.0516346921795048e-05,2.4460581698804162e-05,-4.309938503865851e-06,-1.973662847376545e-06,6.37899647699669e-05
-2.3255452106241137e-05,1.6636586224194616e-05,1.079514163393469e-06,-2.8880783702334156e-06,7.073721644701436e-05
-3.0565104680135846e-05,1.4414047655009199e-05,5.622456228593364e-06,-1.2691826896116254e-06,7.340915908571333e-05
-3.982058115070686e-05,1.2158568097220268e-05,4.056940269947518e-06,3.685769627281843e-07,7.040581112960353e-05
