-3.5326596844242886e-05,-9.433831849037233e-08,-5.415512532636058e-06,-2.952113027276937e-05,5.861811223439872e-05
-3.980990368290804e-05,9.819356819207314e-06,-6.651234798482619e-06,-3.018776624230668e-05,5.485496512847021e-05
-3.6668578104581684e-05,2.3264863557415083e-05,-1.0839391507033724e-05,-2.668320848897565e-05,5.4718475439585745e-05
-3.410223507671617e-05,3.1659757951274514e-05,-1.1020541023754049e-05,-2.1188199752941728e-05,5.676966975443065e-05
-2.9997194360475987e-05,3.236633710912429e-05,-1.0136381206393708e-05,-1.6886415323824622e-05,5.714779399568215e-05
-2.7427753593656234e-05,2.789451536955312e-05,-8.669525414006785e-06,-1.3765179573965725e-05,5.532303839572705e-05
-2.663426857907325e-05,2.41051493503619e-05,-9.283524377678987e-06,-8.895398423192091e-06,5.579011485679075e-05
-2.708538704609964e-05,2.3532147679361515e-05,-7.283229933818802e-06,-6.693935119983507e-06,5.757416147389449e-05
-3.0111888918327168e-05,2.3914219127618708e-05,-3.77926767214376e-06,-6.936202225915622e-06,5.8097197324968874e-05
-2.58138170465827e-05,2.3006996343610808e-05,-3.3666601666482165e-06,-7.504509994760156e-06,5.7269364333478734e-05
-1.1601452570175752e-05,2.556620711402502e-05,-4.135622930334648e-06,-4.543692739389371e-06,5.692161721526645e-05
2.125528908436536e-06,3.3613065170357004e-05,-3.654346755865845e-06,-1.854760967034963e-06,6.04583510721568e-05
3.831063622783404e-06,4.229597470839508e-05,-4.083245528363477e-07,-2.409834678473999e-06,7.31490072212182e-05
-5.918417627981398e-06,4.589896707329899e-05,-4.635449499801325e-07,-5.101709120935993e-06,9.364860306959599e-05
-1.9487137251417153e-05,3.977557207690552e-05,-4.513486601354089e-06,-5.379827143769944e-06,0.00011231038661208004
-3.1667823350289837e-05,2.9696841011173092e-05,-8.651928510516882e-06,-1.2760149274981814e-06,0.00012218102347105742
-3.918498259736225e-05,2.6291399990441278e-05,-7.411704700643895e-06,5.427679752756376e-06,0.00012718551442958415
-4.140822056797333e-05,2.5478811949142255e-05,-3.2621665013721213e-06,1.0710091373766772e-05,0.00013222804409451783
-4.141044701100327e-05,1.7882264728541486e-05,-1.5252595630954602e-06,1.3007472261961084e-05,0.0001350793900201097
-4.050327333970927e-05,1.4164399544824846e-05,-6.564669547515223e-06,1.3427496924123261e-05,0.00013061320350971073
-3.805534288403578e-05,3.0654871807200834e-05,-1.4217489479051437e-05,1.5596297089359723e-05,0.00010917477629845962
-3.4006196074187756e-05,5.6582466640975326e-05,-1.5844194422243163e-05,2.1946530978311785e-05,5.0979844672838226e-05
-2.9886228730902076e-05,6.683538958895952e-05,-1.2636141036637127e-05,2.5348908820888028e-05,-3.799588012043387e-05
-2.7348423827788793e-05,5.9700614656321704e-05,-1.2824022633139975e-05,2.026381298492197e-05,-8.269912359537557e-05
-2.7633175704977475e-05,5.144027090864256e-05,-1.67656980920583e-05,9.544455679133534e-06,-4.466075188247487e-05
-3.2905467378441244e-05,5.497312668012455e-05,-1.61344123625895e-05,-2.973828031826997e-06,1.5166539014899172e-05
-3.725702845258638e-05,6.135630246717483e-05,-3.3134285786218243e-06,-1.554092341393698e-05,3.812353315879591e-05
-3.095249485340901e-05,5.0018592446576804e-05,1.579680792929139e-05,-2.411067544016987e-05,3.376572567503899e-05
-2.1222851501079276e-05,2.8875627322122455e-05,2.2391437596525066e-05,-2.0422818124643527e-05,3.664241012302227e-05
-1.3005884284211788e-05,2.1124198610777967e-05,1.9654151401482522e-05,-1.0263632248097565e-05,4.736933624371886e-05
-1.1246181202295702e-05,2.6100273316842504e-05,1.7713033230393194e-05,-6.482704520749394e-06,5.0528971769381315e-05
-1.7356171156279743e-05,2.7750207664212212e-05,1.7868855138658546e-05,-7.719037967035547e-06,4.473513399716467e-05
-2.012104778259527e-05,2.2564003302250057e-05,2.226379183412064e-05,-1.1419672773627099e-05,3.4551278076833114e-05
-1.8940443624160253e-05,2.3505122953793034e-05,2.520165071473457e-05,-1.3877247511118185e-05,2.579616557341069e-05
-1.2400322702887934e-05,3.559087781468406e-05,2.2248117602430284e-05,-1.4457348697760608e-05,2.286036942678038e-05
-5.0809685490094125e-06,5.077481546322815e-05,1.6002177289919928e-05,-1.240279379999265e-05,2.7450485504232347e-05
-5.479075753100915e-06,5.736498496844433e-05,1.3338331882550847e-05,-8.638054168841336e-06,3.265272971475497e-05
-1.5020198588899802e-05,4.8963443987304345e-05,1.3303436389833223e-05,-7.763683242956176e-06,3.6632111005019397e-05
-2.4648850740049966e-05,3.2289597584167495e-05,1.3904193110647611e-05,-9.105731805902906e-06,4.528958743321709e-05
-3.0146064091240987e-05,2.1636255041812547e-05,1.6248040992650203e-05,-9.255082659365144e-06,6.3977568061091e-05
-3.667808778118342e-05,1.7881951862364076e-05,1.8227270629722625e-05,-8.123381121549755e-06,8.84831533767283e-05
-4.944037937093526e-05,1.279286607314134e-05,1.796517608454451e-05,-6.854432740510674e-06,0.00010607761942083016
-6.181768549140543e-05,2.7386961392039666e-06,1.7848018615040928e-05,-5.911251719226129e-06,0.00010864558134926483
-6.490404484793544e-05,-5.364935077523114e-06,2.029608003795147e-05,-5.7240463320340496e-06,0.00010038102482212707
-6.083719927119091e-05,-6.2339959185919724e-06,2.1306272174115293e-05,-6.112491519161267e-06,8.747303218115121e-05
-5.3414860303746536e-05,-2.5557862954883603e-06,1.662592330831103e-05,-7.584080776723567e-06,7.601859397254884e-05
-4.3878855649381876e-05,4.462072865862865e-06,8.599815373599995e-06,-9.322127880295739e-06,7.164677663240582e-05
-3.377806206117384e-05,1.336270543106366e-05,5.064297056378564e-06,-1.069055542757269e-05,7.531612209277228e-05
-2.962489270430524e-05,2.0926860088366084e-05,4.877704668615479e-06,-1.2294888620090205e-05,8.35775354062207e-05
-3.575436130631715e-05,2.3662663807044737e-05,4.451595941645792e-06,-1.5486775737372227e-05,9.705836419016123e-05
-4.593297126120888e-05,2.685957406356465e-05,4.7115322558966e-06,-1.866192906163633e-05,0.00011852935131173581
-4.473570152185857e-05,3.595500675146468e-05,7.69184043747373e-06,-1.9032058844459243e-05,0.00013334567483980209
-3.6275941965868697e-05,4.182041448075324e-05,1.0210602340521291e-05,-1.6951325960690156e-05,0.0001299351715715602
-3.3114753023255616e-05,3.8960115489317104e-05,8.704600077180658e-06,-1.664416595303919e-05,0.00011211870150873438
-3.936846405849792e-05,3.7446538044605404e-05,5.255274572846247e-06,-2.3794091248419136e-05,8.605085167801008e-05
-4.603396519087255e-05,4.297476334613748e-05,3.7417432849906618e-06,-3.264298356953077e-05,5.771796713816002e-05
-4.290483411750756e-05,5.204053013585508e-05,4.498268026509322e-06,-3.715620550792664e-05,3.727369403350167e-05
-3.484138142084703e-05,6.045393456588499e-05,3.7747490750916768e-06,-3.824180384981446e-05,2.866603790607769e-05
-3.087942241108976e-05,6.670162838418037e-05,1.1968014632657287e-06,-3.376918175490573e-05,2.7913720259675756e-05
-3.0188553864718415e-05,5.972646249574609e-05,-3.1275462788471486e-06,-3.348794052726589e-05,3.391183417988941e-05
-2.4159826352843083e-05,3.434558311710134e-05,-6.826960998296272e-06,-3.6142409953754395e-05,4.3947220547124743e-05
-1.319199782301439e-05,3.4558172501419904e-06,-4.511355200520484e-06,-3.410945646464825e-05,4.7186651499941945e-05
-8.356503713002894e-06,-1.2204151971673127e-05,1.978335149033228e-06,-3.06032488879282e-05,4.484548844629899e-05
-1.2632974176085554e-05,-9.568550012772903e-06,5.249854893918382e-06,-2.7570076781557873e-05,4.415625153342262e-05
-1.604170392965898e-05,-9.085784427043109e-07,2.5171973447868368e-06,-2.688334097911138e-05,4.800408351002261e-05
-1.352810886601219e-05,1.0524152457946911e-05,6.95730818733864e-07,-2.8562966690515168e-05,5.3285581088857725e-05
-8.618540050520096e-06,2.462417796778027e-05,1.4614607835028437e-06,-2.8474103601183742e-05,6.0397567722247913e-05
-8.332749530381989e-06,3.9974856917979196e-05,1.1583269952097908e-06,-2.398569449724164e-05,6.947270594537258e-05
-1.2638781299756374e-05,5.085203156340867e-05,-8.57592397096596e-07,-1.792504554032348e-05,7.420923066092655e-05
-1.5016208635643125e-05,5.318041439750232e-05,-1.1883769275300438e-06,-1.4518222087644972e-05,7.160036329878494e-05
-1.625593358767219e-05,4.519269714364782e-05,1.1645424180528607e-08,-1.5165507647907361e-05,6.523785850731656e-05
-2.1676658434444107e-05,3.057997673749924e-05,7.3210168238802e-07,-1.4310925507743377e-05,5.7290653785457835e-05
-2.886491347453557e-05,2.034092540270649e-05,8.586633981622072e-08,-1.064034404407721e-05,4.971708040102385e-05
-3.444524554652162e-05,2.1544095943681896e-05,-3.2259331419481896e-06,-6.491883141279686e-06,4.532276943791658e-05
-3.725000351550989e-05,3.142754576401785e-05,-5.632261945720529e-06,-3.957438366342103e-06,4.2537591070868075e-05
-3.3676908060442656e-05,4.375614662421867e-05,-3.7787003748235293e-06,-6.04595834374777e-06,4.153031113673933e-05
-2.5839535737759434e-05,5.623248580377549e-05,-2.750339263002388e-06,-1.0215462680207565e-05,3.9100588764995337e-05
-2.4425977244391106e-05,6.564956129295751e-05,-5.683018116542371e-06,-1.0317891792510636e-05,3.4710741601884365e-05
-3.1785122700966895e-05,6.89655207679607e-05,-4.51975620308076e-06,-8.364574568986427e-06,2.901524021581281e-05
-4.214665023027919e-05,6.544286588905379e-05,1.757911860522654e-07,-7.4661397775344085e-06,2.62176945398096e-05
-5.271286136121489e-05,5.675277498085052e-05,2.971782123495359e-06,-7.6268934208201244e-06,3.114048740826547e-05
-5.882946425117552e-05,4.799956877832301e-05,4.209093731333269e-06,-6.653588116023457e-06,4.000039189122617e-05
-5.929260441916995e-05,4.069169517606497e-05,6.156754807307152e-06,-5.0387689043418504e-06,4.280195207684301e-05
-5.54563375771977e-05,3.027384627785068e-05,8.6182344603003e-06,-4.5482252062356565e-06,4.0827708289725706e-05
-4.5983360905665904e-05,2.3993043214431964e-05,1.3073690752207767e-05,-6.046613179933047e-06,4.3136511521879584e-05
-3.2120926334755495e-05,2.4898045012378134e-05,2.0529261746560223e-05,-7.505492703785421e-06,5.2150702686049044e-05
-2.335906719963532e-05,1.9050203263759613e-05,2.760219285846688e-05,-5.32080548509839e-06,7.098991045495495e-05
-2.0030431187478825e-05,-4.890569471172057e-06,3.067539364565164e-05,-1.977796955543454e-06,9.733976185088977e-05
-1.364383933832869e-05,-2.479817885614466e-05,3.166092574247159e-05,4.8564343160251155e-06,0.0001176449513877742
6.930190011189552e-06,-5.397958830144489e-06,3.2725074561312795e-05,1.567910840094555e-05,0.00011574860400287434
4.038572660647333e-05,3.415405808482319e-05,3.211938383174129e-05,2.57648789556697e-05,9.24755004234612e-05
6.33871677564457e-05,6.289298471529037e-05,2.9681854357477278e-05,3.159919651807286e-05,6.735943316016346e-05
6.0470192693173885e-05,7.326426566578448e-05,2.6330535547458567e-05,3.46477136190515e-05,5.141301153344102e-05
3.5982033296022564e-05,6.35022806818597e-05,2.0121075067436323e-05,3.573481080820784e-05,4.2995856347261e-05
5.507806235982571e-06,3.685011688503437e-05,1.10253376988112e-05,3.2642241421854123e-05,3.62628634320572e-05
-2.1165955331525765e-05,1.6548739949939772e-05,2.329951939827879e-06,2.2232656192500144e-05,2.902823871409055e-05
-3.670004662126303e-05,1.5844932931941003e-05,-1.886879772428074e-06,9.320136996393558e-06,2.495284570613876e-05
-3.860694414470345e-05,2.4633654902572744e-05,-1.8983616882906063e-06,1.5175493217611802e-06,3.091645703534596e-05
-3.387781180208549e-05,3.185192326782271e-05,-1.6860176401678473e-06,-1.5186259361144039e-06,4.4934531615581363e-05
-2.8741920687025413e-05,2.865469468815718e-05,-2.600120296847308e-06,-5.393508672568714e-06,6.029635187587701e-05
-2.190891063946765e-05,1.1837228157673962e-05,-1.7660174762568204e-06,-1.5093040929059498e-05,6.87925930833444e-05
-1.6395961210946552e-05,-5.280468030832708e-06,8.826071429268723e-09,-2.6437124688527547e-05,6.60464575048536e-05
-2.1359484890126623e-05,-3.105366204181337e-06,1.8829549617294106e-06,-3.447798371780664e-05,6.118892633821815e-05
-3.354512955411337e-05,1.4918524357199203e-05,6.844491053925594e-06,-3.70889320038259e-05,6.711221794830635e-05
-4.267408075975254e-05,3.252533861086704e-05,1.1256422112637665e-05,-2.8660089810728095e-05,8.10519777587615e-05
-4.5561893784906715e-05,3.528290835674852e-05,1.1632987479970325e-05,-1.281602271774318e-05,8.814811008051038e-05
-3.914513945346698e-05,2.6488492949283682e-05,9.273730938730296e-06,-3.0268843147496227e-06,8.832454477669671e-05
-3.2527019357075915e-05,2.1555146304308437e-05,9.198894986184314e-06,1.0425502523503383e-06,9.106255311053246e-05
-3.3454660297138616e-05,2.118445081578102e-05,1.2725590750051197e-05,1.8814743043549242e-06,0.00010047042451333255
-3.9474183722632006e-05,1.60778290592134e-05,1.0364751688030083e-05,-1.806502496037865e-06,0.00010823592310771346
-4.9306614528177306e-05,1.7752938219928183e-05,4.7302028178819455e-06,-4.795002496393863e-06,7.837538578314707e-05
-5.980799323879182e-05,2.5312378056696616e-05,5.9475191847013775e-06,-4.529270881903358e-06,1.0143880899704527e-05
-6.890363874845207e-05,3.1097388273337856e-05,1.2154810065112542e-05,-9.681532901595347e-06,-4.758151408168487e-05
-6.80506564094685e-05,3.408713746466674e-05,1.483903452026425e-05,-2.31749963859329e-05,-6.588760152226314e-05
-5.1231825636932626e-05,3.250324880355038e-05,8.23876052891137e-06,-3.647783523774706e-05,-4.3251540773781016e-05
-2.3086065993993543e-05,2.6357265596743673e-05,-1.9761305338761304e-06,-4.8704056098358706e-05,-3.248538860134431e-06
4.556431576929754e-06,2.108829539793078e-05,-7.260932761710137e-06,-5.7077613746514544e-05,3.3812593756010756e-05
1.8966824427479878e-05,2.112195397785399e-05,-6.3525890254823025e-06,-5.135075480211526e-05,5.3662253776565194e-05
1.2955507372680586e-05,2.0599840354407206e-05,-8.911523764254525e-06,-3.424172609811649e-05,6.061835665605031e-05
7.67687197367195e-07,1.9927463654312305e-05,-1.2449620953702834e-05,-1.837550735217519e-05,6.79483637213707e-05
-6.114754341979278e-06,2.061439590761438e-05,-1.2014982530672569e-05,-7.896351235103793e-06,8.34833481349051e-05
-8.537187568435911e-06,2.526739626773633e-05,-8.437527867499739e-06,-2.461148142174352e-06,0.00010004060459323227
-1.2886740478279535e-05,2.815712650772184e-05,-5.5426335165975615e-06,-1.770778908394277e-06,9.864786261459813e-05
-2.3343471184489317e-05,2.9732105758739635e-05,-4.040726707899012e-06,-4.1094103835348506e-06,8.218941366067156e-05
-3.316323272883892e-05,3.6478701076703146e-05,-2.023621846092283e-06,-7.769485819153488e-06,8.304074435727671e-05
-3.644044045358896e-05,4.647723835660145e-05,3.1213478450808907e-06,-9.508701623417437e-06,0.00011036272189812735
-3.4991131542483345e-05,5.298863470670767e-05,1.044584860210307e-05,-9.333457455795724e-06,0.00012730192975141108
-3.529956302372739e-05,5.4315936722559854e-05,1.2079608495696448e-05,-8.65488254930824e-06,0.00011124686716357246
-3.9083879528334364e-05,4.623304266715422e-05,8.741539204493165e-06,-1.0056381142931059e-05,8.474748756270856e-05
-4.420961340656504e-05,2.52765112236375e-05,7.098430614860263e-06,-1.4272856788011268e-05,7.51408442738466e-05
-4.8952337238006294e-05,4.539792371360818e-06,1.0113924872712232e-05,-1.6002490156097338e-05,7.727687625447288e-05
-5.220653474680148e-05,-2.5915478545357473e-06,1.0219203431915957e-05,-1.3733287232753355e-05,7.479029591195285e-05
-4.941148654324934e-05,-2.205149712608545e-06,6.9253937908797525e-06,-1.3534699064621236e-05,6.401274731615558e-05
-4.553630787995644e-05,3.4833126392186387e-06,4.18219815401244e-06,-1.3920704986958299e-05,5.7011002354556695e-05
-4.294641621527262e-05,1.8530361558077857e-05,3.284915464973892e-06,-8.951855306804646e-06,5.556005999096669e-05
-3.921216193703003e-05,3.2665906473994255e-05,3.6940182326361537e-06,2.1345497316360706e-06,5.47157833352685e-05
-4.2302184738218784e-05,3.6273981095291674e-05,3.149266376567539e-06,1.1858285688504111e-05,5.1617742428788915e-05
-4.558976797852665e-05,2.7296899133943953e-05,-1.8577644596007303e-06,1.3637622942042071e-05,4.672782597481273e-05
-3.907937934854999e-05,9.699034308141563e-06,-5.851577043358702e-06,1.325352059211582e-05,4.3387601181166247e-05
-2.984562706842553e-05,-1.677023283264134e-05,-2.9498521598725347e-06,1.108073593059089e-05,4.690349305747077e-05
-2.120058525179047e-05,-3.779076723731123e-05,2.8793492674594745e-06,8.350266398338135e-06,5.3645304433302954e-05
-1.0873171959246974e-05,-3.6302313674241304e-05,5.2217956181266345e-06,8.133877599902917e-06,6.029921132721938e-05
-5.288948159432039e-07,-1.4483223822026048e-05,4.179986717645079e-06,1.0370872587373015e-05,6.60759033053182e-05
1.9867006813001353e-06,1.5255533980962355e-05,2.9308155262697255e-06,1.0921507055172697e-05,6.772384222131222e-05
-2.2291203549684724e-06,4.062485459144227e-05,6.970039976295084e-07,5.476012120197993e-06,6.198557821335271e-05
-9.51742367760744e-06,6.171986024128273e-05,-1.5693034356445423e-06,-4.287399860913865e-06,5.04718154843431e-05
-1.7263517293031327e-05,8.144431922119111e-05,-2.4441362711513648e-06,-1.0566333003225736e-05,3.7669837183784693e-05
-2.0692461475846358e-05,9.934979607351124e-05,-1.4316366332423058e-06,-1.0519932402530685e-05,3.153305806335993e-05
-1.2991581570531707e-05,0.00010589812154648826,-2.2893145796842873e-06,-8.172884008672554e-06,3.3652628189884126e-05
5.884502911612799e-07,8.88069553184323e-05,-3.7332172269088915e-06,-6.692564056720585e-06,3.7601872463710606e-05
4.074865046277409e-06,5.450603202916682e-05,-4.235906999383587e-06,-7.981093403941486e-06,3.8442805816885084e-05
-7.4576041697582696e-06,2.449797284498345e-05,-2.884615923903766e-06,-7.439881301252171e-06,3.738690065802075e-05
-2.2314017769531347e-05,1.29610034491634e-05,1.4795780316489981e-06,-7.088951861078385e-06,3.8775757275288925e-05
-2.5909590476658195e-05,1.4720854778715875e-05,6.495459274447057e-06,-9.943275472323876e-06,4.093160532647744e-05
-2.0779072656296194e-05,2.049019531114027e-05,5.079523816675646e-06,-1.010050436889287e-05,4.46144949819427e-05
-1.6964822862064466e-05,2.6142866772715934e-05,-5.3889334594714455e-06,-5.6762028179946356e-06,4.796851862920448e-05
-1.979114495043177e-05,2.9914099286543205e-05,-1.4764539628231432e-05,-5.251052243693266e-06,4.95613639941439e-05
-2.7222420612815768e-05,3.383725561434403e-05,-1.4653350262960885e-05,-1.0672854841686785e-05,5.3844873036723584e-05
-3.4509208489907905e-05,3.738122541108169e-05,-7.586678748339182e-06,-1.730811345623806e-05,6.289198063313961e-05
-3.8194513763301075e-05,4.16552102251444e-05,1.3317157936398871e-06,-1.7763199139153585e-05,6.799410039093345e-05
-3.669407306006178e-05,4.873107900493778e-05,1.127573887060862e-05,-1.3275284800329246e-05,6.735854549333453e-05
-3.1825002224650234e-05,5.362227966543287e-05,1.8702750821830705e-05,-1.2936486200487707e-05,6.351553747663274e-05
-3.0463730581686832e-05,5.120160130900331e-05,2.496044908184558e-05,-1.2074745427526068e-05,5.6167933507822454e-05
-3.172703509335406e-05,3.97528892790433e-05,2.7916521503357217e-05,-9.817236787057482e-06,4.5878336095483974e-05
-3.251243833801709e-05,2.3031296223052777e-05,2.7735559342545457e-05,-9.734869308886118e-06,3.3629825338721275e-05
-3.587608443922363e-05,4.788032128999475e-06,2.5158409698633477e-05,-7.443157755915308e-06,2.2078826077631675e-05
-4.63832875539083e-05,-3.47795003108331e-06,2.3256903659785166e-05,1.4021519518792047e-06,2.44007860601414e-05
-6.314284837571904e-05,9.205370588460937e-06,2.5897772502503358e-05,1.4967479728511535e-05,4.094782707397826e-05
-7.786678906995803e-05,2.5933875804184936e-05,2.650511851243209e-05,2.53710550168762e-05,4.781141979037784e-05
-8.155527029884979e-05,2.6151899874093942e-05,2.35437328228727e-05,2.8188806027173996e-05,4.18662020820193e-05
-7.640445255674422e-05,1.8903667296399362e-05,1.9559834981919266e-05,2.5699988327687606e-05,3.9838083466747776e-05
-6.473193934652954e-05,2.2726502720615827e-05,1.8506194464862347e-05,2.4628443497931585e-05,4.668855763156898e-05
-4.285670365788974e-05,3.0622461054008454e-05,1.6271116692223586e-05,2.5129513232968748e-05,5.761839202023111e-05
-9.44111707212869e-06,3.293942427262664e-05,1.2815195987059269e-05,1.978790714929346e-05,6.519140879390761e-05
2.3897437131381594e-05,2.7049745767726563e-05,8.106768291327171e-06,3.7460420116985915e-06,6.864915485493839e-05
3.4475684515200555e-05,1.823753336793743e-05,1.313702568950248e-06,-2.2488648028229363e-05,7.185594586189836e-05
1.2831638741772622e-05,1.493985291745048e-05,-9.987637668018579e-07,-4.684777377406135e-05,7.59356189519167e-05
-2.5832723622443154e-05,1.7477888832218014e-05,3.2051641483121784e-06,-5.828843131894246e-05,7.69066100474447e-05
-5.2458311984082684e-05,1.7990607375395484e-05,8.839097972668242e-06,-6.13299198448658e-05,7.356016431003809e-05
-5.0216545787407085e-05,1.3618709090224002e-05,1.046834859153023e-05,-6.721704266965389e-05,6.71461020829156e-05
-2.499648508091923e-05,1.031711417454062e-05,7.631203516211826e-06,-7.156644278438762e-05,6.107184162829071e-05
2.3957120447448688e-06,1.0246791134704836e-05,9.761290584719973e-07,-6.381327693816274e-05,5.7615710829850286e-05
1.0284240488545038e-05,1.1000537597283255e-05,-5.262007107376121e-06,-4.694055678555742e-05,5.6199929531430826e-05
-2.781794137263205e-06,1.3729826605413109e-05,-7.013527465460356e-06,-3.405035022296943e-05,5.942505958955735e-05
-1.7794267478166148e-05,2.157094786525704e-05,-4.588880074152257e-06,-2.9647999326698482e-05,6.911605305504054e-05
-2.25912135647377e-05,2.857337130990345e-05,-1.6594567568972707e-06,-2.7591855541686527e-05,8.297531167045236e-05
-2.224955642304849e-05,3.192003714502789e-05,-2.3230418264574837e-06,-2.455671528878156e-05,9.469530050409958e-05
-2.7317302738083526e-05,3.528176239342429e-05,-7.604472102684667e-06,-1.9595450794440694e-05,0.00010401250619906932
-3.7069767131470144e-05,3.802593710133806e-05,-8.758159310673364e-06,-1.5000995517766569e-05,0.00010846964141819626
-4.383205669000745e-05,3.728313822648488e-05,5.338652613318118e-07,-1.4857750102237333e-05,0.00010208995809080079
-4.1896215407177806e-05,3.641281364252791e-05,4.0299332795257214e-06,-1.4490318790194578e-05,8.245572098530829e-05
-3.7678742955904454e-05,3.3237756724702194e-05,6.093600859458093e-07,-1.1677993825287558e-05,5.7160461437888443e-05
-3.618843766162172e-05,2.81741886283271e-05,6.485865924332757e-07,-1.4191979062161408e-05,4.212367639411241e-05
-3.632505104178563e-05,2.8420487069524825e-05,2.8180406843603123e-06,-1.938963214342948e-05,4.090234870091081e-05
-3.67208594980184e-05,3.471642412478104e-05,5.658370355376974e-06,-2.1313840989023447e-05,4.568004806060344e-05
-3.7596557376673445e-05,4.0852464735507965e-05,4.127715783397434e-06,-1.8541835743235424e-05,4.718199124909006e-05
-3.740621832548641e-05,4.7271325456677005e-05,2.8875488169433083e-06,-1.3900325939175673e-05,4.637068559532054e-05
-3.229414505767636e-05,5.739968764828518e-05,6.310402113740565e-06,-1.2171002708782908e-05,4.730816726805642e-05
-2.4436794774373993e-05,7.123943214537576e-05,1.2455099749786314e-05,-1.3643113561556675e-05,4.678269397118129e-05
-1.842647725425195e-05,8.43056186567992e-05,1.3107471204421017e-05,-1.8272525267093442e-05,4.514495230978355e-05
-1.8258388081449084e-05,8.969961345428601e-05,1.1878438272105996e-05,-2.1585077774943784e-05,4.2807096178876236e-05
-2.3060925741447136e-05,7.794006523909047e-05,1.2764276107191108e-05,-1.856047492765356e-05,4.3989799451082945e-05
-3.2812899007694796e-05,3.5433426091913134e-05,1.2203331607452128e-05,-1.141532356996322e-05,5.185415284358896e-05
-4.302763773011975e-05,-2.98358136205934e-05,1.0517618648009375e-05,-3.973107595811598e-06,6.592067802557722e-05
-4.912933218292892e-05,-6.856613617856055e-05,1.1303658538963646e-05,4.4882177974159276e-08,7.775105768814683e-05
-4.688915578299202e-05,-4.965858897776343e-05,1.2686993613897357e-05,1.098666871257592e-06,8.19050837890245e-05
-3.762687629205175e-05,-9.534915079711936e-06,9.70062774285907e-06,4.779579739988549e-06,7.871093112044036e-05
-2.666957698238548e-05,8.757217074162327e-06,4.463026471057674e-06,1.1863980034831911e-05,7.569955778308213e-05
-1.9161851014359854e-05,7.206172995211091e-06,6.884613981128496e-07,1.6598769434494898e-05,7.888158870628104e-05
-2.173068241972942e-05,9.275380762119312e-06,5.814806058879185e-07,1.7330185073660687e-05,8.200487354770303e-05
-3.031650703633204e-05,2.2665502910967916e-05,2.436666136418353e-06,1.662692375248298e-05,7.541869854321703e-05
-3.291279426775873e-05,3.6500929127214476e-05,6.171393124532187e-06,1.4450477465288714e-05,6.099745587562211e-05
-2.963334736705292e-05,4.100644582649693e-05,8.539702321286313e-06,4.943000476487214e-06,4.935009201290086e-05
-2.3716194846201688e-05,4.693482333095744e-05,7.207975158962654e-06,-1.6536911061848514e-05,5.959145710221492e-05
-1.1945099686272442e-05,5.783795495517552e-05,3.889736490236828e-06,-4.110299778403714e-05,0.00010948833369184285
-6.606227543670684e-06,5.5790223996154964e-05,2.5837555313046323e-06,-5.267860251478851e-05,0.00016021229384932667
-1.344146494375309e-05,3.513943374855444e-05,2.730649157456355e-06,-5.272975249681622e-05,0.00013915928138885647
-1.882033575384412e-05,1.828165477490984e-05,3.8126236177049577e-06,-5.71046766708605e-05,5.300456177792512e-05
-1.707908813841641e-05,2.0230430891388096e-05,-4.103026753909944e-07,-6.508395745186135e-05,-1.027538746711798e-05
-1.561353747092653e-05,2.6775784135679714e-05,-7.135479791031685e-06,-5.826544656883925e-05,-1.644536678213626e-05
-1.7199809008161537e-05,3.096963700954802e-05,-1.0383332664787304e-05,-3.7996334867784753e-05,8.682965017214883e-06
-1.9548127966118045e-05,3.653718886198476e-05,-7.439435194100952e-06,-2.02752162294928e-05,3.602818833314814e-05
-2.0918407244607806e-05,3.9450231270166114e-05,-1.2561014273160254e-07,-6.467158527811989e-06,5.000462260795757e-05
-2.130586108251009e-05,3.6489047488430515e-05,4.07598872698145e-06,2.3242148472490953e-06,5.213993426878005e-05
-2.5616032871766947e-05,3.335822111694142e-05,4.43734916188987e-06,1.372464566884446e-06,4.996326606487855e-05
-3.700697561725974e-05,3.220607322873548e-05,4.7680773604952265e-06,-7.0785808929940686e-06,5.033630441175774e-05
-4.981383972335607e-05,3.2560332329012454e-05,3.970888883486623e-06,-1.4586667930416297e-05,5.5428397899959236e-05
-5.04201088915579e-05,3.161807035212405e-05,-2.5032529720192542e-06,-1.6683694411767647e-05,6.157283496577293e-05
-3.764585926546715e-05,2.9115317374817096e-05,-1.145574151451001e-05,-1.3628895430883858e-05,6.458292773459107e-05
-2.2367907149600796e-05,3.0571336537832394e-05,-1.4393540368473623e-05,-9.510111340205185e-06,6.633555312873796e-05
-1.4237695722840726e-05,3.541149271768518e-05,-1.0193813068326563e-05,-5.403214345278684e-06,6.819060945417732e-05
-1.2961684660695028e-05,4.080428698216565e-05,-4.378171070129611e-06,-1.4009212918608682e-06,6.628383562201634e-05
-1.3920306628278922e-05,4.332399839768186e-05,5.274373506836127e-07,2.887702521547908e-06,5.629371662507765e-05
-1.3854408280167263e-05,4.477392940316349e-05,5.31334171682829e-06,6.392675459210295e-06,4.174300920567475e-05
-1.3598997611552477e-05,4.86066892335657e-05,1.0997701792803127e-05,8.238386726588942e-06,3.478973303572275e-05
-1.9954824892920442e-05,5.2685860282508656e-05,1.8987459043273702e-05,1.0682505489967298e-05,3.992975689470768e-05
-3.520901736919768e-05,4.793108382727951e-05,2.7932936063734815e-05,1.1347824511176441e-05,4.5973865780979395e-05
-5.3606476285494864e-05,3.342000854900107e-05,3.127676609437913e-05,7.901405297161546e-06,4.632998025044799e-05
-6.0285070503596216e-05,2.2215173885342665e-05,2.8786434995708987e-05,1.7363712458973168e-06,4.957503915647976e-05
-4.641097257263027e-05,1.5320161764975637e-05,2.475641667842865e-05,-6.806330020481255e-06,6.0474885685835034e-05
-1.8590902982396074e-05,3.3042579161701724e-06,2.5256169465137646e-05,-1.313415305048693e-05,6.770870822947472e-05
-1.3657243016496068e-06,-6.449024112953339e-06,2.78758834610926e-05,-1.4409703908313531e-05,7.042823563097045e-05
-7.23980929251411e-06,-4.4339535634208005e-06,2.6293833798263222e-05,-1.9450961190159433e-05,7.803728658473119e-05
-2.23019378609024e-05,2.0936593045917107e-06,2.0875555492239073e-05,-2.6181776775047183e-05,8.478552626911551e-05
-2.7551757739274763e-05,-2.117857775374432e-06,1.6820535165606998e-05,-2.7642228815238923e-05,8.450331370113418e-05
-1.985040034924168e-05,-9.526802386972122e-06,1.6813843103591353e-05,-2.5529459890094586e-05,8.514316141372547e-05
-9.236979167326353e-06,-5.951233561063418e-06,1.9881437765434384e-05,-2.096873868140392e-05,9.201717330142856e-05
-1.0361279834114612e-07,4.569631983031286e-06,2.0127974494243972e-05,-1.3297157238412183e-05,9.930482337949798e-05
4.728284693555906e-06,1.4320530681288801e-05,1.7523751012049615e-05,-5.6668145589355845e-06,9.829140617512167e-05
5.338985374692129e-06,2.46275794779649e-05,1.3812227734888438e-05,1.4758231827727286e-06,7.473097502952442e-05
-3.794654332978098e-07,3.4074670111294836e-05,1.0074039892060682e-05,5.647822490573162e-06,3.6639328754972667e-05
-9.188268450088799e-06,3.329658284201287e-05,9.273324394598603e-06,2.064266254819813e-06,2.0365700038382784e-05
-1.0194199603574816e-05,2.3798538677510805e-05,7.683538569835946e-06,-5.511233212018851e-06,3.080673923250288e-05
-9.472136298427358e-06,1.2524975318228826e-05,3.0193566544767236e-06,-1.0783805919345468e-05,5.335070818546228e-05
-1.604780300112907e-05,9.474242688156664e-06,-1.2539790077426005e-06,-1.1088509381806944e-05,7.777449354762211e-05
-2.2390227968571708e-05,1.1987931429757737e-05,-2.197832372985431e-06,-6.487694463430671e-06,8.910842734621838e-05
-2.255269282613881e-05,1.4969801668485161e-05,-1.2388484265102306e-06,-1.847240241659165e-06,8.618510764790699e-05
-1.9110559151158668e-05,1.8090688172378577e-05,2.9983002036715334e-07,-1.5842147149669472e-06,8.075059304246679e-05
-1.7405029211658984e-05,2.2970063582761213e-05,1.634721002119477e-06,-4.4492139750218485e-06,7.871889101807028e-05
-2.0683150069089606e-05,2.8718324756482616e-05,1.7201203945660382e-06,-6.82152722220053e-06,7.826107321307063e-05
-2.8137332265032455e-05,3.1808827770873904e-05,5.755915708505199e-07,-8.753481779422145e-06,7.496993202948943e-05
-3.421379005885683e-05,3.3503933082101867e-05,-5.124898052599747e-06,-1.1529772564244922e-05,6.519531598314643e-05
-3.822446524281986e-05,3.909675797331147e-05,-1.695449827820994e-05,-1.3931929061072879e-05,4.748709034174681e-05
-4.388129309518263e-05,4.857893873122521e-05,-2.6041594537673518e-05,-1.6243327991105616e-05,2.6539937607594766e-05
-5.0638136599445716e-05,6.040912921889685e-05,-2.5100887796725146e-05,-1.5982179320417345e-05,1.3914352166466415e-05
-5.72353856114205e-05,7.048671250231564e-05,-1.9329116184962913e-05,-1.2919812434120104e-05,1.6630987374810502e-05
-5.6116281484719366e-05,6.614661106141284e-05,-1.356500342808431e-05,-1.105328556150198e-05,2.856777973647695e-05
-4.402106424095109e-05,4.9074424168793485e-05,-8.659531886223704e-06,-1.0080564607051201e-05,3.774139258894138e-05
-3.366404052940197e-05,3.5807970562018454e-05,-6.429938821383985e-06,-6.941528681636555e-06,4.536163396551274e-05
-3.442740853643045e-05,3.695436316775158e-05,-5.0883304538729135e-06,-4.032057859149063e-06,5.588494605035521e-05
-3.2164145522983745e-05,3.957834269385785e-05,-2.6912464363704203e-06,-4.591019205690827e-06,6.721967656631023e-05
-1.4941346307750791e-05,2.271364428452216e-05,2.6375241759524215e-06,-8.118077857943717e-06,7.612196350237355e-05
2.3282311758521246e-06,1.2269159697098075e-06,1.1205911505385302e-05,-8.823735697660595e-06,8.225022611441091e-05
2.8174035833217204e-06,6.502609721792396e-06,1.5164731848926749e-05,-2.7031085210182937e-06,8.618328138254583e-05
-6.814248536102241e-06,2.8325097446213476e-05,1.3094805581204128e-05,8.096577403193805e-06,8.122828148771077e-05
-1.3611755093734246e-05,4.242167779011652e-05,1.7015127014019527e-05,1.7150285202660598e-05,7.158781954785809e-05
-1.5705714758951217e-05,4.6182340156519786e-05,2.3454696929547936e-05,1.7902859326568432e-05,5.4870746680535376e-05
-1.654830339248292e-05,4.9671652959659696e-05,2.756509456958156e-05,1.544385486340616e-05,1.9623399566626176e-05
-1.9273735233582556e-05,5.482339838636108e-05,2.9235679903649725e-05,1.174479621113278e-05,-1.2451720976969227e-05
-2.032782867900096e-05,5.3324973123380914e-05,2.6397403416922316e-05,7.623165402037557e-06,-9.62738340604119e-06
-2.2620384697802365e-05,3.8167530874488875e-05,1.9579552827053703e-05,3.877455583278788e-06,2.3573929865960963e-05
-3.0787014111410826e-05,1.69608392752707e-05,1.1007488865288906e-05,-1.1598290257097688e-06,4.8795947805047035e-05
-3.4839209547499195e-05,7.376986559393117e-06,5.172780674911337e-06,-8.314803380926605e-06,4.591884135152213e-05
-2.1898560589761473e-05,1.2474625691538677e-05,2.524709088902455e-06,-1.7472846593591385e-05,3.241059312131256e-05
4.832865215576021e-06,2.1730886146542616e-05,2.3389945909002563e-06,-2.7272257284494117e-05,2.343040432606358e-05
2.6643354431143962e-05,2.9369592084549367e-05,3.144503352814354e-06,-4.200412877253257e-05,2.250185571028851e-05
2.46234758378705e-05,3.540483885444701e-05,4.972715032636188e-06,-6.155799201223999e-05,3.404373273951933e-05
-3.520800191836315e-06,3.7587513361359015e-05,6.718565600749571e-06,-7.385030767181888e-05,5.409340519690886e-05
-3.8434460293501616e-05,3.7668360164389014e-05,6.354226115945494e-06,-6.704414408886805e-05,7.503828237531707e-05
-6.084955020924099e-05,3.8742684409953654e-05,4.37068092651316e-06,-4.61781419289764e-05,9.640013740863651e-05
-6.960077007533982e-05,3.7965222873026505e-05,5.0113644647353794e-06,-2.7864709409186617e-05,0.000117659212264698
-7.150078454287723e-05,3.672220555017702e-05,8.4265811892692e-06,-2.187208883697167e-05,0.0001315309345955029
-6.679617217741907e-05,3.72159993276e-05,7.919181371107697e-06,-2.119251985277515e-05,0.00013380862947087735
-5.314152440405451e-05,4.035237725474872e-05,1.6332824088749476e-06,-1.6939933630055748e-05,0.00012167322711320594
-3.744884088519029e-05,4.889552292297594e-05,-4.477669790503569e-06,-4.96419534101733e-06,0.00010045435919892043
-2.563695852586534e-05,5.707521995645948e-05,-8.627775059721898e-06,1.1769407137762755e-05,8.389050344703719e-05
-1.9177041394868866e-05,5.986325049889274e-05,-1.1001249731634744e-05,2.17051765503129e-05,5.962528666714206e-05
-2.138724084943533e-05,5.335190144251101e-05,-8.268491910712328e-06,2.250152283522766e-05,4.312135388317984e-06
-2.855511957022827e-05,3.798077523242682e-05,-5.60266789761954e-06,2.3028103896649554e-05,-3.607193139032461e-05
-3.168329203617759e-05,2.4940945877460763e-05,-3.2014438602345763e-06,2.0868532374151982e-05,-1.7329799447907135e-05
-2.5950963390641846e-05,8.629830517747905e-06,6.662614850938553e-07,1.6423233319073915e-05,3.487179128569551e-05
-1.8664739400264807e-05,-6.181780008773785e-06,1.430848783456895e-06,9.844659871305339e-06,8.90132796484977e-05
-1.854314177762717e-05,-1.0618572332532494e-06,1.5397646393466857e-06,-2.2561882815352874e-06,0.00011212004028493538
-2.159945506718941e-05,1.1616965821303893e-05,2.371170694459579e-06,-1.4653632206318434e-05,0.00010641542030498385
-2.2051308405934833e-05,1.958023312909063e-05,4.460346190171549e-06,-2.8454351195250638e-05,9.926796337822452e-05
-2.5462217308813706e-05,2.3951626644702628e-05,5.630628038488794e-06,-4.170048123341985e-05,0.00010302994633093476
-3.383953298907727e-05,3.179328632541001e-05,5.693952061847085e-06,-4.9565165681997314e-05,0.00010189555905526504
-4.40635449194815e-05,3.954803469241597e-05,4.254159193806117e-06,-5.010200766264461e-05,8.598687418270856e-05
-4.997016003471799e-05,3.9882179407868534e-05,2.12654413189739e-06,-4.3475829443195835e-05,6.294663762673736e-05
-4.8407768190372735e-05,3.4554541343823075e-05,-5.6958833738463e-07,-3.104720599367283e-05,3.816014577751048e-05
-4.287347837816924e-05,3.118197855656035e-05,-4.1825678636087105e-06,-1.5968958905432373e-05,1.0532605301705189e-05
-3.6220440961187705e-05,3.4036693250527605e-05,-9.065050107892603e-06,-4.024273948743939e-06,-1.2644201888178941e-05
-2.6415948013891466e-05,4.146500214119442e-05,-1.4725477740284987e-05,3.12448446493363e-06,-4.333899141784059e-06
-1.0237393325951416e-05,4.769802399096079e-05,-1.6769918147474527e-05,7.783629371260758e-06,3.636100882431492e-05
5.068051905254833e-06,4.528987847152166e-05,-1.3915212548454292e-05,9.397333997185342e-06,7.697004912188277e-05
6.999251127126627e-06,3.754038334591314e-05,-7.82379720476456e-06,8.085792615020182e-06,9.657616465119645e-05
-5.610941116174217e-06,3.027208185812924e-05,-1.2771301953762304e-06,7.546070719399722e-06,0.00010093268065247685
-1.9658065866678953e-05,2.414154187135864e-05,7.613244633830618e-06,7.261689916049363e-06,9.708956349641085e-05
-2.686945845198352e-05,1.9076844182563946e-05,1.7069805835490115e-05,6.815851520514116e-06,9.007920016301796e-05
-2.8538870537886396e-05,1.9236887965234928e-05,2.362851046200376e-05,8.800551768217701e-06,6.770158506697044e-05
-2.8139669666416012e-05,1.8677323168958537e-05,2.5871222533169203e-05,1.083756797015667e-05,1.6691730706952512e-05
-3.0483410228043795e-05,1.4065605682844762e-05,2.597852289909497e-05,1.359809630230302e-05,-4.355777127784677e-05
-3.501142782624811e-05,9.908256288326811e-06,2.421997305646073e-05,1.586977487022523e-05,-6.355577352223918e-05
-3.358598405611701e-05,9.590209629095625e-06,2.1324203771655448e-05,1.601506482984405e-05,-3.528225715854205e-05
-2.776052861008793e-05,1.1578719750104938e-05,1.6976979168248363e-05,1.6480227714055218e-05,3.7242300550133223e-06
-2.7820733521366492e-05,5.813400548504433e-06,1.047419118549442e-05,1.4768472283321898e-05,2.882829176087398e-05
-3.333274435135536e-05,-8.023882401175797e-06,7.755306796752848e-06,1.4222204299585428e-05,4.5820041123079136e-05
-3.197051410097629e-05,-1.2541483556560706e-05,9.882574886432849e-06,1.767999492585659e-05,6.153494177851826e-05
-3.2088752050185576e-05,-1.2949099073011894e-06,1.0310620382369962e-05,1.6970650904113427e-05,7.023692887742072e-05
-4.2940391722368076e-05,1.0752866728580557e-05,7.110692877176916e-06,1.0822868716786616e-05,6.808645412093028e-05
-5.1523638830985874e-05,6.861063866381301e-06,2.0791492261196254e-06,3.0549006169167114e-06,5.972192229819484e-05
-4.5065760787110776e-05,-4.1610110201872885e-06,-1.160364718089113e-06,-7.2719540185062215e-06,5.480301842908375e-05
-3.477940117591061e-05,-2.1427165393106407e-06,-3.8995861473267723e-07,-2.0469507944653742e-05,5.098672045278363e-05
-3.737333827302791e-05,1.1716809240169823e-05,-2.1963062479812834e-08,-3.347464735270478e-05,4.4869870180264115e-05
-4.655756856664084e-05,2.3707219952484593e-05,-3.803843355854042e-07,-4.3953372369287536e-05,3.5978941014036536e-05
-4.6156848839018494e-05,2.9285358323249966e-05,3.825717840300058e-07,-5.59943619009573e-05,3.288937296019867e-05
-3.267188367317431e-05,2.8471726182033308e-05,1.4729112081113271e-06,-6.506911449832842e-05,3.810739144682884e-05
-1.7141977878054604e-05,2.7947058697463945e-05,2.921674877143232e-06,-5.880270691704936e-05,3.6212648410582915e-05
-5.5331570365524385e-06,3.906361962435767e-05,4.834888386540115e-06,-3.599690899136476e-05,2.0296211005188525e-05
1.5124727497095591e-06,5.9130703448317945e-05,6.284551545832073e-06,-1.202162093250081e-05,1.4027348697709385e-05
1.1043549648093176e-06,6.879983993712813e-05,8.464509846817236e-06,7.669245150054849e-08,3.241144077037461e-05
-1.0880795343837235e-05,4.4368898670654744e-05,1.2102572327421512e-05,1.5563806528007262e-06,5.8956051361747086e-05
-3.260319499531761e-05,-1.0231738997390494e-05,1.2453908311726991e-05,7.250780527101597e-07,7.5218515121378e-05
-6.0261692851781845e-05,-4.6403889427892864e-05,1.0552613275649492e-05,1.5189383475444629e-06,7.943403761601076e-05
-7.757733692415059e-05,-3.330410982016474e-05,1.2798878742614761e-05,6.041310598448035e-07,7.836792065063491e-05
-6.455701077356935e-05,-4.815085048903711e-06,1.5525147318840027e-05,-3.6657645523519022e-06,7.827322406228632e-05
-2.543469781812746e-05,6.362108251778409e-06,1.5843013898120262e-05,-1.0280439710186329e-05,7.94204679550603e-05
1.3291708455653861e-05,1.0851381375687197e-05,1.6118574421852827e-05,-1.2782692465407308e-05,8.044087007874623e-05
2.5572126105544157e-05,2.7214211513637565e-05,1.4027432371221948e-05,-1.1267652553215157e-05,8.291038102470338e-05
1.4908358934917487e-05,4.8362137022195384e-05,1.0463149010320194e-05,-1.012647135212319e-05,8.426532440353185e-05
-9.511433063380537e-07,5.580232391366735e-05,8.489342690154444e-06,-8.472793524560984e-06,8.082627755356953e-05
-1.6451882402179763e-05,4.384790372569114e-05,8.307538337248843e-06,-7.167029252741486e-06,7.51317638787441e-05
-2.0533965653157793e-05,3.765982546610758e-05,1.233734656125307e-05,-4.7460198402404785e-06,8.237083966378123e-05
-1.3856074474460911e-05,4.956284465151839e-05,1.7279609892284498e-05,-5.194665845920099e-06,0.00010093514720210806
-8.286326192319393e-06,6.376075907610357e-05,1.6866024452610873e-05,-7.578291842946783e-06,0.00011259294115006924
-9.408842743141577e-06,6.737643707310781e-05,1.403836540703196e-05,-6.640842912020162e-06,0.0001147874936577864
-1.5958683434291743e-05,5.879437594558112e-05,1.3590861271950416e-05,-5.417055490397615e-06,0.00011449814337538555
-2.3349333787336946e-05,5.034417335991748e-05,1.3174914784030989e-05,-1.8324356005905429e-06,0.00010468294931342825
-3.470061710686423e-05,5.014814450987615e-05,1.0926883078354876e-05,-1.803970121727616e-06,8.002736285561696e-05
-4.6977274905657396e-05,5.3864834626438096e-05,9.828758265939541e-06,-1.022931610350497e-05,6.170329288579524e-05
-5.612466702586971e-05,5.304186197463423e-05,1.1481592991913203e-05,-2.115811366820708e-05,6.248769204830751e-05
-5.900365795241669e-05,4.8793946916703135e-05,1.409925152984215e-05,-2.7134163246955723e-05,6.524614582303911e-05
-5.3009607654530555e-05,4.483218799578026e-05,1.3741089787799865e-05,-2.502465940779075e-05,6.221141666173935e-05
-4.41361335106194e-05,4.420346158440225e-05,1.0469031622051261e-05,-2.027697155426722e-05,6.0398215282475576e-05
-3.4889133530668914e-05,4.308581628720276e-05,5.284809958538972e-06,-1.6570844309171662e-05,5.296467861626297e-05
-1.6293297449010424e-05,4.040867861476727e-05,-4.440804787009256e-06,-1.4865662706142757e-05,3.8168156606843695e-05
1.3553888493333943e-05,3.8394155126297846e-05,-1.535770934424363e-05,-1.4675249076390173e-05,3.4534452424850315e-05
3.572570494725369e-05,3.906480924342759e-05,-1.9665119907585904e-05,-1.4160967111820355e-05,5.18742817803286e-05
3.2404455851064995e-05,4.398594319354743e-05,-1.6513416994712315e-05,-1.136053106165491e-05,6.955396384000778e-05
1.156892813014565e-05,5.138759297551587e-05,-9.122464689426124e-06,-7.362575615843525e-06,7.038713374640793e-05
-5.675140073435614e-06,5.5022581364028156e-05,-1.4105211221249192e-06,-3.7463532862602733e-06,5.69649891986046e-05
-1.2550056453619618e-05,5.0440143240848556e-05,2.7783480618381873e-06,-3.5403329547989415e-06,3.967490192735568e-05
-1.76408593688393e-05,4.258835542714223e-05,4.474969500734005e-06,-6.902469067426864e-06,3.2114632631419227e-05
-2.313359254912939e-05,3.4565360692795366e-05,4.3276563701510895e-06,-1.1368682862666901e-05,3.9761493098922074e-05
-2.5268576791859232e-05,2.494257023499813e-05,4.481310952542117e-06,-1.4849033505015541e-05,5.395411790232174e-05
-3.0358020012499765e-05,1.469494145567296e-05,2.205728833359899e-06,-1.3597905308415648e-05,5.6948258134070784e-05
-4.147511572227813e-05,5.83271821597009e-06,-3.960026333515998e-06,-1.0119203579961322e-05,4.231598722981289e-05
-5.142550799064338e-05,-6.568103799509117e-06,-8.146746949933004e-06,-1.0968766218866222e-05,2.0445808331714943e-05
-5.36987827217672e-05,-1.1857972822326701e-05,-8.596754014433827e-06,-2.0115237930440344e-05,3.0446972232311964e-06
-4.8128931666724384e-05,-3.855827344523277e-06,-7.395772627205588e-06,-2.9219108910183422e-05,5.279347533360124e-06
-3.73047441826202e-05,5.439050710265292e-06,-8.20379500510171e-06,-2.798983405227773e-05,3.4418517316225916e-05
-2.801537084451411e-05,1.195049480884336e-05,-1.3845474313711748e-05,-2.058772588497959e-05,7.566278509330004e-05
-3.143442881992087e-05,1.7276237485930324e-05,-1.919076566991862e-05,-1.609607534192037e-05,0.00010443248902447522
-4.342284955782816e-05,1.9145614714943804e-05,-1.829588109103497e-05,-1.70692346728174e-05,0.0001037602560245432
-4.905899550067261e-05,2.1687321350327693e-05,-1.638203684706241e-05,-1.9087387045146897e-05,9.664345270721242e-05
-4.164122583460994e-05,2.9475004339474253e-05,-1.2743941624648869e-05,-1.751523814164102e-05,0.00010241571726510301
-2.6069006707984954e-05,3.6812416510656476e-05,-8.64041066961363e-06,-1.4702560292789713e-05,0.00011406101111788303
-1.0651572665665299e-05,4.283286398276687e-05,-8.372678166779224e-06,-1.2610652447619941e-05,0.00012453680392354727
-6.730968834744999e-06,4.688132321462035e-05,-1.016999340208713e-05,-1.2406228051986545e-05,0.0001278721319977194
-1.299868290516315e-05,4.5585285988636315e-05,-7.884102160460316e-06,-1.1649610314634629e-05,0.0001282634329982102
-2.186683013860602e-05,3.8490452425321564e-05,-2.6511719397603883e-07,-7.562658083770657e-06,0.00012776802759617567
-3.203559754183516e-05,3.23219173878897e-05,7.414440005959477e-06,-3.9194305827550124e-06,0.00012019155110465363
-4.084091415279545e-05,3.4288426832063124e-05,1.3238958672445733e-05,-1.1983246395175229e-06,9.653793676989153e-05
-4.58320282632485e-05,3.986834781244397e-05,1.4917400221747812e-05,1.4064801234781044e-06,6.137640593806282e-05
-4.580563836498186e-05,4.1505736589897424e-05,1.2495327609940432e-05,4.160588559898315e-06,2.6461379093234427e-05
-4.123903636354953e-05,3.63944964192342e-05,9.230411706084851e-06,6.491470685432432e-06,-8.475137292407453e-06
-3.259090590290725e-05,2.086590393446386e-05,8.971265742729884e-06,9.566188055032399e-06,-3.5744636988965794e-05
-2.8466110961744562e-05,-2.895057832574821e-06,1.2992258234589826e-05,1.2664092537306715e-05,-3.6403387639438733e-05
-3.3446631277911365e-05,-1.3248195500636939e-05,1.947304372151848e-05,1.2026415788568556e-05,-1.3338276403374039e-05
-4.015788726974279e-05,-1.73732314578956e-06,2.0255813069525175e-05,7.897177056293003e-06,1.1053481102862861e-05
-3.9760532672517e-05,1.07743317130371e-05,1.4701793588756118e-05,7.5336774898460135e-06,2.0844829123234376e-05
-3.670302976388484e-05,1.5145616089284886e-05,8.028830052353442e-06,1.0880271474889014e-05,1.9488325051497668e-05
-3.780513725359924e-05,1.8711709344643168e-05,5.233927709014097e-07,8.519910807081033e-06,2.1739835574408062e-05
-4.3755193473771214e-05,2.1273610400385223e-05,-3.6074125091545284e-06,-7.964774795254925e-07,3.6867681046715006e-05
-5.102295472170226e-05,2.2913138309377246e-05,-2.2104968593339436e-06,-5.8664713833422866e-06,6.005008617648855e-05
-5.079398397356272e-05,2.8544665838126093e-05,2.464052613504464e-06,-2.987461130032898e-06,6.898101855767891e-05
-4.362010440672748e-05,3.64021398127079e-05,7.3604851422715e-06,-1.3226556347945007e-06,6.336037768051028e-05
-3.8891190342837945e-05,3.690247467602603e-05,1.0520967407501303e-05,-4.864274615101749e-06,6.567579112015665e-05
-3.635645771282725e-05,3.297432340332307e-05,1.3848535672877915e-05,-8.653502845845651e-06,7.843954517738894e-05
-3.551313784555532e-05,3.799692785833031e-05,1.77512029040372e-05,-7.577221367682796e-06,8.447071741102263e-05
-3.877882772940211e-05,4.707131301984191e-05,2.1377250959631056e-05,-3.152413228235673e-06,7.930107676656917e-05
-3.7195881304796785e-05,5.022181721869856e-05,2.2210357201402076e-05,3.0487001367873745e-06,7.377327710855752e-05
-2.8410704544512555e-05,4.8333553422708064e-05,2.0611776562873274e-05,3.3295607408945216e-06,7.115914195310324e-05
-1.7269963791477494e-05,4.9078840675065294e-05,2.034321914834436e-05,-3.1731510716781486e-06,6.988242967054248e-05
-7.533592906838749e-06,5.380273432820104e-05,2.415929702692665e-05,-9.171990313916467e-06,6.616699829464778e-05
-3.553866463334998e-06,5.4644333431497216e-05,2.68254334514495e-05,-1.334522312390618e-05,6.241071241674945e-05
-6.009247044858057e-06,4.29096762672998e-05,2.1476560505107045e-05,-1.3046933418081608e-05,5.9229263570159674e-05
-1.250805416930234e-05,2.0885538106085733e-05,1.002103181235725e-05,-1.0109031791216694e-05,5.479033279698342e-05
-2.3002137822913937e-05,7.831136827007867e-06,2.1157326557386114e-08,-1.0528210623306222e-05,5.266629523248412e-05
-3.324276622151956e-05,1.4651328456238844e-05,-4.735545644507511e-06,-1.3272402611619327e-05,5.498673635884188e-05
-3.807524990406819e-05,3.0306660846690647e-05,-4.48097898697597e-06,-1.2708878784906119e-05,6.198350456543267e-05
-3.672658567666076e-05,3.888041101163253e-05,1.001415284918039e-06,-6.745581231371034e-06,7.585129060316831e-05
-3.503762491163798e-05,3.430210563237779e-05,6.825010132160969e-06,3.4235292787343496e-06,9.04431362869218e-05
-4.046950562042184e-05,2.0991912606405094e-05,9.593835784471594e-06,1.277402861887822e-05,8.804645767668262e-05
-5.376073022489436e-05,1.1776463907153811e-05,9.030522960529197e-06,1.7094660506700166e-05,5.85524394409731e-05
-6.49294670438394e-05,1.8711267330218107e-05,6.9653665377700236e-06,1.2646482900890987e-05,2.2028409148333594e-05
-6.209882121765986e-05,3.936287612305023e-05,4.443151738087181e-06,-2.9609818739118055e-06,1.7602447769604623e-05
-4.740201256936416e-05,6.011384539306164e-05,5.185472218727227e-06,-2.336913166800514e-05,4.6394954551942647e-05
-3.397192631382495e-05,7.348645885940641e-05,7.5698612818086985e-06,-3.927408033632673e-05,7.390826067421585e-05
-3.0324528779601678e-05,8.009053999558091e-05,6.684063464490464e-06,-4.850592449656688e-05,8.281807822640985e-05
-2.853992918971926e-05,8.119788981275633e-05,5.242939096206101e-06,-4.9851594667416066e-05,7.888268009992316e-05
-2.073463110718876e-05,7.940381328808144e-05,6.732328984071501e-06,-5.017126022721641e-05,7.109385478543118e-05
-5.806444278277922e-06,7.275475945789367e-05,4.1576263356546406e-06,-5.629166116705164e-05,5.735754166380502e-05
4.601730324793607e-06,5.889866952202283e-05,-3.1223705718730344e-06,-6.320101238088682e-05,3.996175291831605e-05
5.067129677627236e-06,4.515355249168351e-05,-6.0552706599992234e-06,-6.222348747542128e-05,2.364323336223606e-05
-8.699956310920243e-07,3.58561119355727e-05,-9.508748007647227e-06,-4.991433888790198e-05,1.995587626879569e-05
-9.968529411708005e-06,3.0199853426893242e-05,-1.4401248336071149e-05,-3.44136351486668e-05,3.922852920368314e-05
-1.638707544771023e-05,1.5531801182078198e-05,-1.721669286780525e-05,-2.2032432752894238e-05,6.569704419234768e-05
-2.04290117835626e-05,-1.6610247257631272e-05,-1.673815495450981e-05,-1.7748323443811387e-05,8.856553176883608e-05
-2.2597680072067305e-05,-4.848137905355543e-05,-1.3396756003203336e-05,-1.8614351574797183e-05,9.874318493530154e-05
-1.7783266230253503e-05,-5.937761670793407e-05,-8.77990805747686e-06,-1.674336635915097e-05,9.037096606334671e-05
-2.70882901531877e-06,-4.524844553088769e-05,-2.1350288079702295e-06,-9.525048881187104e-06,6.283327820710838e-05
8.874661034496967e-06,-2.0687899450422265e-05,5.997012067382457e-06,-3.964313236792805e-06,2.8668579034274444e-05
9.18463683774462e-06,3.27801217281376e-06,1.3770330951956566e-05,-2.5285480660386384e-06,1.2373965546430554e-05
2.3370901089947438e-06,2.092395516228862e-05,1.9025961591978557e-05,-3.6191522667650133e-06,2.6548494133749045e-05
-3.3617375265748706e-06,3.124420982203446e-05,2.325812602066435e-05,-5.938542017247528e-06,5.740986671298742e-05
-6.931144980626414e-06,3.7656875065295026e-05,2.7458985641715117e-05,-8.416815035161562e-06,8.21259236545302e-05
-1.4303598618425895e-05,3.887605635100044e-05,2.7813452106784098e-05,-9.726116331876256e-06,9.034425602294505e-05
-2.6313186026527546e-05,3.6564451875165105e-05,2.1624044165946543e-05,-6.2355579757422674e-06,7.996211934369057e-05
-3.951301914639771e-05,4.129985609324649e-05,1.4674709746032022e-05,-5.818259296574979e-07,5.683101699105464e-05
-5.0743976316880435e-05,5.694443098036572e-05,1.2264677934581414e-05,8.556612129950736e-08,3.7928231904515997e-05
-5.7884917623596266e-05,7.167297007981688e-05,1.4066673429624643e-05,-4.4250818973523565e-06,3.916868445230648e-05
-5.8798625104827806e-05,7.241529237944633e-05,1.6063997463788837e-05,-6.477324859588407e-06,5.6749449868220836e-05
-5.430275632534176e-05,5.689834870281629e-05,1.534467446617782e-05,-4.9181885515281465e-06,7.383283809758723e-05
-4.537820132100023e-05,3.4356547985225916e-05,1.5745747077744454e-05,-2.6434829578647623e-06,7.724508759565651e-05
-3.6479126720223576e-05,1.305496789427707e-05,1.8618729882291518e-05,-1.2504718824857264e-06,7.138911314541474e-05
-2.682356171135325e-05,2.960744041047292e-06,2.0341214622021653e-05,-6.725613843627798e-07,6.653187301708385e-05
-1.3616398973681498e-05,9.503406204203202e-07,1.7622931409277953e-05,2.8481673552960274e-07,6.943817425053567e-05
-1.6758538379235688e-07,-1.797264485503547e-05,1.63879321917193e-05,4.427311978361104e-06,7.545892731286585e-05
1.4308340723800939e-05,-7.203911081887782e-05,1.6824738850118592e-05,4.651795279642101e-06,8.109735790640116e-05
3.278334406786598e-05,-0.00012210733257234097,1.0613902304612566e-05,-1.6926256876104162e-06,8.170436922227964e-05
4.4266762415645644e-05,-0.0001315374975092709,5.5002456065267324e-06,-9.377559763379395e-06,7.74029758758843e-05
3.880999793182127e-05,-0.00010642014240147546,3.975896106567234e-06,-1.0211923836322967e-05,7.674315565964207e-05
2.1490743165486492e-05,-5.5042171879904345e-05,2.1227815523161553e-06,-8.66432674229145e-06,7.552174793090671e-05
3.6318874663265888e-06,1.3858627880836139e-06,-1.200445353788382e-06,-5.190768206375651e-06,6.593920261366293e-05
-9.198110092256684e-06,4.464770245249383e-05,-3.7099043765920214e-06,2.5715141873661196e-06,4.81322749692481e-05
-1.9028961105505005e-05,6.411216600099578e-05,-2.433624104014598e-06,4.944482952851104e-06,3.2309075322700664e-05
-2.8283380743232556e-05,6.805298471590504e-05,-3.159098937999261e-08,3.2058858323580353e-06,3.135253791697323e-05
-3.3401462133042514e-05,6.620802014367655e-05,2.6348375286033843e-06,1.3202194395489641e-06,4.520340371527709e-05
-3.27562665916048e-05,6.397716060746461e-05,3.878381903632544e-06,1.4320561376734986e-06,6.330195174086839e-05
-2.878071063605603e-05,6.502113683382049e-05,3.866286533593666e-06,2.6659238301363075e-06,7.167557487264276e-05
-2.6491054086363874e-05,6.934297562111169e-05,4.156177055847365e-06,2.7870546546182595e-06,6.75349947414361e-05
-2.715041773626581e-05,7.179218664532527e-05,5.463650722958846e-06,1.0379006880611996e-06,6.248719000723213e-05
-2.9060120141366497e-05,6.819029658799991e-05,6.349764134938596e-06,-1.0082239896291867e-06,5.9522659284994006e-05
-3.2161478884518147e-05,6.227687845239416e-05,6.2770650401944295e-06,-4.524276846495923e-06,5.418750151875429e-05
-3.625192402978428e-05,5.7989029301097617e-05,5.793312539026374e-06,-7.095527962519554e-06,4.6362281864276156e-05
-4.196400550426915e-05,5.7297897001262754e-05,5.728109044866869e-06,-6.0444240261858795e-06,4.175123103777878e-05
-4.6790879423497245e-05,5.864355625817552e-05,5.533662260859273e-06,-2.3314958070841385e-06,4.286324110580608e-05
-4.8110105126397684e-05,5.9859979955945164e-05,3.2288371585309505e-06,-7.791351777086675e-07,4.759566218126565e-05
-4.320442531025037e-05,5.458989107864909e-05,1.0733342605817597e-06,-3.2648506476107286e-06,5.308053005137481e-05
-3.61449274350889e-05,4.4265674659982324e-05,1.6408857845817693e-06,-5.178130777494516e-06,5.896027869312093e-05
-3.353228748892434e-05,3.6689016269519925e-05,3.111525302301743e-06,-5.856771622347878e-06,6.544285133713856e-05
-3.929048762074672e-05,3.327593731228262e-05,4.039567102154251e-06,-7.223371085274266e-06,6.567091622855514e-05
-5.111291466164403e-05,2.8259899409022182e-05,2.032672682616976e-06,-9.120034519582987e-06,4.844957948080264e-05
-6.065874549676664e-05,2.3322380002355203e-05,-5.774224405286077e-07,-1.0572090104687959e-05,3.4885742934420705e-05
-6.521338218590245e-05,1.9288832845631987e-05,-4.374696800368838e-07,-5.9013100326410495e-06,4.615591387846507e-05
-5.6485874665668234e-05,2.1581856344710104e-05,-1.1134085298181162e-06,-1.138146330958989e-06,4.465678284759633e-05
-3.607974940678105e-05,3.094352359767072e-05,-4.575032107823063e-06,-4.278851974959252e-06,2.6819927370524965e-05
-2.0317802409408614e-05,3.825895328191109e-05,-6.890318672958529e-06,-7.064026249281596e-06,3.644978642114438e-05
-1.4883554285916034e-05,4.286506009520963e-05,-4.481772066355916e-06,-1.1286872904747725e-05,6.074784687370993e-05
-2.041304651356768e-05,4.4841712224297225e-05,-1.4404164403458708e-06,-1.8210363123216666e-05,6.401830614777282e-05
-2.6773794161272235e-05,4.3933119741268456e-05,-3.133905011054594e-06,-2.3817825422156602e-05,5.5469718063250184e-05
-2.6722709662863053e-05,4.166098005953245e-05,-4.9068735279433895e-06,-2.601514643174596e-05,5.37662926944904e-05
-2.6489960873732343e-05,3.208237103535794e-05,-3.856287094095023e-06,-2.504284930182621e-05,5.201663952902891e-05
-3.0859704565955326e-05,2.0587574908859096e-05,-2.7612754820438568e-06,-2.44822495005792e-05,4.880952837993391e-05
-3.124403883703053e-05,1.4974750229157507e-05,-7.637734711352095e-07,-2.4717053747735918e-05,4.811270264326595e-05
-2.373703864577692e-05,1.5919409634079784e-05,3.632214429671876e-06,-2.483707430656068e-05,4.737110430141911e-05
-1.2231832442921586e-05,2.163067620131187e-05,6.146923169580987e-06,-2.705684892134741e-05,5.028350278735161e-05
-4.819259629584849e-06,3.1269890314433724e-05,5.288543889037101e-06,-3.229429785278626e-05,6.21929721091874e-05
-8.99463611858664e-06,4.2121653677895665e-05,5.113297447678633e-06,-3.660354923340492e-05,7.94679144746624e-05
-2.482232594047673e-05,5.0447735702618957e-05,3.5913169540435774e-06,-3.6696197639685124e-05,8.551642531529069e-05
-4.5275461161509156e-05,5.6517885241191834e-05,1.5243789448504685e-06,-3.329655737616122e-05,7.475968595826998e-05
-5.598205825663172e-05,6.254795880522579e-05,2.3462237095372984e-06,-3.062370160478167e-05,6.060471787350252e-05
-5.24992574355565e-05,7.159814413171262e-05,6.536146429425571e-06,-3.005839062097948e-05,5.207107460591942e-05
-4.36987575085368e-05,7.756400009384379e-05,1.0789627594931517e-05,-2.9035412808298133e-05,5.122320362715982e-05
-3.751286203623749e-05,7.013117283349857e-05,1.3636269613925833e-05,-2.790001963148825e-05,6.273683538893238e-05
-3.043401738977991e-05,3.9019105315674096e-05,1.5040776816022117e-05,-2.6176776373176835e-05,8.516912203049287e-05
-2.0119312466704287e-05,-5.1944916776847094e-06,1.3772450984106399e-05,-2.0982926798751578e-05,0.00010588753502815962
-9.72431280388264e-06,-2.4300770746776834e-05,1.1227360118937213e-05,-1.3352208952710498e-05,0.0001095661282306537
-6.72139685775619e-06,-1.5608521835019928e-06,9.564490028424188e-06,-4.904561137664132e-06,0.00010161077079828829
-1.0552747880865354e-05,2.6079436793224886e-05,7.293725047929911e-06,8.132601436727782e-08,9.887909254757687e-05
-1.7869866496766917e-05,3.162851862725802e-05,2.2412034468288766e-06,-7.913426429695392e-07,0.00010972788732033223
-2.4582755941082723e-05,3.33706229866948e-05,1.2076640132363536e-06,2.2426527266361518e-06,0.0001341330644208938
-2.449171370244585e-05,4.559842273010872e-05,7.522268788306974e-06,1.7748927348293364e-05,0.00015909971261862665
-1.808930392144248e-05,5.172191231395118e-05,8.246764991781674e-06,2.9506916689570062e-05,0.00016804755432531238
-7.51918878449942e-06,4.510831422521733e-05,6.216164365469012e-06,2.5562500013620593e-05,0.00015520522720180452
2.1407192889455473e-06,2.487021811248269e-05,9.425396456208546e-06,1.6341220543836243e-05,0.00012792987399734557
1.5290742112483713e-06,-1.8310214727534913e-05,1.1677192560455296e-05,7.0838882493262645e-06,7.67911842558533e-05
-6.263992872845847e-06,-4.278026972315274e-05,1.0967748494294938e-05,-7.083273203534191e-07,-3.4757947560137836e-06
-6.365195531543577e-06,-1.5582038031425327e-05,7.558342986158095e-06,-1.1202296263945755e-05,-7.014476432232186e-05
2.370952643104829e-06,2.3228498321259394e-05,3.7132917896087747e-06,-2.9295488275238313e-05,-8.48265117383562e-05
6.50982428851421e-06,4.230413105688058e-05,-2.2155666101753013e-06,-5.260490070213564e-05,-6.033046520315111e-05
-7.19930255854706e-07,4.495258690440096e-05,-7.5524621934164315e-06,-6.955640856176615e-05,-2.5450601242482662e-05
-1.4075744729780126e-05,4.020884443889372e-05,-8.111940587696154e-06,-7.665443990845233e-05,7.438340617227368e-06
-2.2676458684145473e-05,3.139410546282306e-05,-8.065373549470678e-06,-8.041692490223795e-05,3.379580084583722e-05
-2.3287835574592464e-05,2.7763209800468758e-05,-1.177842295874143e-05,-8.115568925859407e-05,4.474414527066983e-05
-2.2701407942804508e-05,2.9620679924846627e-05,-1.526331288914662e-05,-7.591937901452184e-05,4.2396688513690606e-05
-2.4575507268309593e-05,3.5036726330872625e-05,-1.3916117495682556e-05,-5.802343730465509e-05,3.734822166734375e-05
-2.7924512323806994e-05,3.968105374951847e-05,-1.0916704923147336e-05,-3.2482712413184345e-05,3.794035728788003e-05
-2.9071559765725397e-05,3.130299592157826e-05,-1.1866630302392878e-05,-1.4630680198024493e-05,4.563189213513397e-05
-2.7827592930407263e-05,7.827594345144462e-06,-1.809946661524009e-05,-1.2387034985295031e-05,5.855745621374808e-05
-2.4792805561446585e-05,-9.318189768237062e-06,-2.2157553758006543e-05,-1.7013637261698022e-05,7.171063043642789e-05
-2.3384329324471764e-05,-2.446007329126587e-06,-2.030413452303037e-05,-1.6875588698894717e-05,7.707232725806534e-05
-2.693749229365494e-05,1.5155176697589923e-05,-1.4167266272124834e-05,-9.867057997325901e-06,7.120696682250127e-05
-3.0879706173436716e-05,2.6502888431423344e-05,-2.7475191473058658e-06,-8.541752549717785e-07,5.92935539316386e-05
-2.6082025215146132e-05,2.6805088054970838e-05,1.0810452295118012e-05,5.479308583744569e-06,5.0335907872067764e-05
-1.2403570508467965e-05,2.2753127268515527e-05,1.782889012247324e-05,1.0556088454904966e-05,4.824252755497582e-05
-1.2068097703377134e-06,2.141921140719205e-05,1.7925545762409456e-05,2.2463449568022043e-05,5.566392792388797e-05
-3.8106345527921803e-06,2.628654328873381e-05,1.3305662832863163e-05,3.539538738550618e-05,6.574110011570156e-05
-1.7937078155227937e-05,2.9206079489085823e-05,6.677667897747597e-06,4.323280154494569e-05,6.959064194234088e-05
-3.3938173146452755e-05,2.576837141532451e-05,6.610895866288047e-07,4.8914494982454926e-05,6.480748561443761e-05
-3.857250339933671e-05,2.2458187231677584e-05,-2.4893854515539715e-06,4.7164397983578965e-05,6.215360190253705e-05
-3.358166213729419e-05,2.3416714611812495e-05,4.489526872930583e-06,4.206461744615808e-05,6.619362102355808e-05
-2.5867482690955512e-05,2.375189433223568e-05,1.3645637409354094e-05,3.286402716184966e-05,6.471202505053952e-05
-1.4510466826322954e-05,2.704421967791859e-05,1.6318177586072125e-05,1.4602015653508715e-05,5.476233491208404e-05
-7.1039908107195515e-06,3.204903259756975e-05,1.543606231280137e-05,-4.9030522859538905e-06,4.0217932109953836e-05
-7.79019683250226e-06,3.3535445254528895e-05,1.8637867469806224e-05,-1.5622599676134996e-05,2.7191434128326364e-05
-2.1589750758721493e-05,3.4167249395977706e-05,2.3837726985220797e-05,-2.6361714844824746e-05,2.9180600904510356e-05
-3.8525340642081574e-05,3.364932490512729e-05,2.570777724031359e-05,-4.825184805667959e-05,5.055866131442599e-05
-4.529917714535259e-05,2.7403231797507033e-05,2.4955143089755438e-05,-6.59259021631442e-05,7.442069181706756e-05
-4.041310239699669e-05,1.5696152331656776e-05,2.2757554688723758e-05,-6.29708229098469e-05,8.266078657470644e-05
-3.5024229873670265e-05,7.037238901830278e-06,2.004873749683611e-05,-4.69715814688243e-05,8.095155499177054e-05
-3.48371613654308e-05,7.641726369911339e-06,1.541356868983712e-05,-3.212728552171029e-05,8.106632594717667e-05
-3.790358823607676e-05,1.5157476809690706e-05,1.125472135754535e-05,-2.3765978767187335e-05,8.32527584861964e-05
-3.5642224247567356e-05,2.2744230591342784e-05,8.539350346836727e-06,-1.7996106180362403e-05,8.129414345603436e-05
-2.5503131837467663e-05,2.6459296350367367e-05,1.0217870112683158e-05,-1.0591614227450918e-05,7.014763104962185e-05
-1.826026345952414e-05,2.913094976975117e-05,1.306409922108287e-05,-5.2360223889991175e-06,5.0750470109051093e-05
-1.671298741712235e-05,3.121867121080868e-05,1.3212366866355296e-05,-3.670282239909284e-06,2.4951767045422457e-05
-1.5351812180597335e-05,3.223922976758331e-05,1.3249571566120721e-05,-2.526843672967516e-06,2.663396116986405e-06
-1.6519956261618063e-05,3.230899528716691e-05,1.537661228212528e-05,-2.0717379811685532e-06,1.741824689815985e-06
-2.487277379259467e-05,3.409746932447888e-05,1.5150480976444669e-05,-4.510341568675358e-06,2.667606713657733e-05
-3.31714800267946e-05,3.9052254578564316e-05,1.2565003089548554e-05,-3.213189756934298e-06,5.772340591647662e-05
-3.41698105330579e-05,3.891785308951512e-05,1.3050796042080037e-05,2.2057906789996196e-06,7.619290408911183e-05
-2.2141970475786366e-05,3.368431134731509e-05,1.7101816411013715e-05,4.944914508087095e-06,7.98081819084473e-05
-8.439357770839706e-06,2.9244296456454322e-05,1.897691072372254e-05,6.781137017242145e-06,7.517955964431167e-05
-9.984940334106795e-06,2.7946714908466674e-05,1.1091628948634025e-05,6.5042468122555874e-06,6.844178278697655e-05
-2.7609299650066532e-05,2.8720140107907355e-05,7.861547146603698e-07,4.399729732540436e-06,6.415504321921617e-05
-5.0666309107327834e-05,2.9865004762541503e-05,-3.4695747785917774e-07,6.3425800362892915e-06,6.121127080405131e-05
-6.134554860182106e-05,3.513636693242006e-05,5.280452114675427e-06,8.964771950559225e-06,5.651417814078741e-05
-5.873420013813302e-05,4.4150940084364265e-05,8.586452167946845e-06,1.0659037798177451e-05,5.4513278882950544e-05
-5.30379475094378e-05,4.870996781392023e-05,8.916936167224776e-06,1.5876843463047408e-05,5.77202663407661e-05
-4.4083717511966825e-05,4.4062162487534806e-05,9.629628038965166e-06,2.0447549104574136e-05,6.524482159875333e-05
-3.6987592466175556e-05,3.308348823338747e-05,1.0205310900346376e-05,2.13860457733972e-05,7.07974613760598e-05
-3.0029763365746476e-05,2.948071778519079e-05,9.549787137075327e-06,1.8826633095159195e-05,6.828091136412695e-05
-2.8556762117659673e-05,3.634051972767338e-05,7.895748240116518e-06,1.590805550222285e-05,5.8891575463349e-05
-3.178949191351421e-05,4.8809419240569696e-05,8.787082151684444e-06,1.3943895282864105e-05,4.785816418007016e-05
-3.5992616176372394e-05,5.703360875486396e-05,6.029835731169442e-06,4.888656349066878e-06,3.883198951371014e-05
-3.6911813367623836e-05,5.719513137592003e-05,-1.6536773728148546e-06,-1.2340114153630566e-05,3.765559449675493e-05
-3.414121238165535e-05,5.609313666354865e-05,-6.301703706412809e-06,-2.8548109185067005e-05,4.592063487507403e-05
-3.1766285246703774e-05,5.762378714280203e-05,-6.883936293888837e-06,-3.2628828193992376e-05,5.5056869314284995e-05
-3.5800112527795136e-05,6.154966831672937e-05,-3.960587491746992e-06,-2.5791503503569402e-05,5.907129525439814e-05
-4.631068804883398e-05,5.796335608465597e-05,-1.1575098142202478e-06,-1.848751890065614e-05,5.510381379281171e-05
-5.273086208035238e-05,3.625234967330471e-05,1.4103801504461444e-06,-1.7203930838149972e-05,3.9634949644096196e-05
-4.91452774440404e-05,6.904133897478459e-06,2.560551365604624e-06,-2.065110493276734e-05,1.729642099235207e-05
-4.004356742370874e-05,-5.1608785724965855e-06,4.369461805708852e-07,-2.6337675080867484e-05,5.2757791308977176e-06
-3.510680471663363e-05,5.4259066928352695e-06,-4.455287125892937e-06,-3.0438251997111365e-05,1.2630407582037151e-05
-3.628046761150472e-05,1.607675767445471e-05,-7.100783477653749e-06,-3.036021371372044e-05,2.9264097975101322e-05
-4.537830318440683e-05,6.076297268009512e-06,-5.6276267059729435e-06,-2.79475480056135e-05,3.993113205069676e-05
-5.7882443798007444e-05,-9.29933685256401e-06,-4.414797786012059e-06,-2.7165468054590747e-05,4.107690620003268e-05
-6.283660331973806e-05,-4.0544418880017474e-06,-5.033976322010858e-06,-2.7727171982405707e-05,4.047537731821649e-05
-4.7508183342870325e-05,1.1674672350636683e-05,-5.217113084654557e-06,-2.6325558792450465e-05,4.839967004954815e-05
-1.1211450328119099e-05,1.657903521845583e-05,-6.05778768658638e-06,-2.4411936465185136e-05,6.687736458843574e-05
2.8736058084177785e-05,1.4170041140459944e-05,-4.762623575516045e-06,-2.199134905822575e-05,8.897236693883315e-05
3.771382034756243e-05,1.528930624772329e-05,-5.847542183801124e-07,-2.1675052266800776e-05,0.00010984908294631168
7.501235813833773e-06,1.9061111743212678e-05,3.890002517437097e-06,-2.280418630107306e-05,0.00013607121945824474
-2.414728260191623e-05,1.8373786588199437e-05,4.2192245928163175e-06,-2.0636865883716382e-05,0.0001585262070875615
-2.923255851783324e-05,1.954615072463639e-05,7.898616161128302e-08,-1.3705435776500963e-05,0.00014954224752727896
-2.2815422198618762e-05,2.0246599888196215e-05,-6.486536676675314e-07,-7.814172022335697e-06,0.00011575380631256849
-1.4285193174146116e-05,1.9715556845767424e-05,8.175276633437534e-08,-3.5659465993376216e-06,8.223449549404904e-05
-8.588376658735797e-06,2.325690547877457e-05,2.038795173575636e-06,-8.429676654486684e-07,5.48718890058808e-05
-9.993215826398227e-06,3.068806108785793e-05,3.4745567063509952e-06,-2.837585498127737e-06,3.259294680901803e-05
-1.8084925613948144e-05,4.0008795622270554e-05,2.590944404801121e-06,-3.7586091821140144e-06,2.4710721845622174e-05
-2.645152562763542e-05,4.505282413447276e-05,1.7564874497111305e-06,-1.9619767499534646e-07,4.064453605678864e-05
-2.963004953926429e-05,4.319221625337377e-05,-1.7373254195263144e-06,3.1614424642611993e-06,7.042908691801131e-05
-2.8444706913433038e-05,3.759455285035074e-05,-9.650157153373584e-06,2.150845602955087e-06,9.38112279982306e-05
-2.5389224902028218e-05,3.8634130760328844e-05,-1.6866555597516708e-05,1.3558652653955505e-06,0.00010204504360444844
-2.4216395104303956e-05,4.4736385461874306e-05,-1.9213330233469605e-05,1.6880295561350067e-06,0.00010580888920230791
-2.5622208340791985e-05,4.8021389375207946e-05,-1.455658730264986e-05,2.5887137766744672e-08,0.00011308269313303754
-3.0026858439669013e-05,4.223299401928671e-05,-4.418774551595561e-06,-4.046241429023212e-06,0.00011055685172323138
-3.792945426539518e-05,3.173212462570518e-05,7.418551831506193e-06,-6.501943971670698e-06,8.25121023808606e-05
-5.084361691842787e-05,2.071476774290204e-05,1.7561835193191655e-05,-3.8971529647824354e-06,4.131488822167739e-05
-6.539500463986769e-05,9.171087185677607e-06,2.7979596779914573e-05,-6.920972168700246e-07,1.3234159268904477e-05
-7.421014015562832e-05,-2.3518657599197468e-06,3.897969509125687e-05,-3.049506858587847e-06,1.103324848372722e-05
-7.090051076374948e-05,-7.874739822000265e-06,4.262874790583737e-05,-9.5444383987342e-06,2.4604691134300083e-05
-5.6923563533928245e-05,-6.775444489903748e-07,3.746514630620368e-05,-1.2306943062867504e-05,3.652872328530066e-05
-4.087837805855088e-05,1.1330947927490342e-05,3.190108327544294e-05,-9.325214705313556e-06,4.2646031943149865e-05
-3.425178147153929e-05,2.0358676920295693e-05,3.0644812795799226e-05,-5.308503205014858e-06,4.353037365945056e-05
-3.2098683732328936e-05,2.7790643798653036e-05,2.9609007469844073e-05,-1.05023445939878e-06,4.125705163460225e-05
-3.24067659676075e-05,3.584547812351957e-05,2.604448854981456e-05,1.6761525785113918e-06,4.456677197595127e-05
-3.559354809112847e-05,4.2871193727478385e-05,1.944398354680743e-05,-1.947568080140627e-06,5.934603905188851e-05
-3.557728632586077e-05,4.4621639972319826e-05,1.3889581168768927e-05,-7.374962024186971e-06,8.193317626137286e-05
-2.8077010938432068e-05,4.4616375816985965e-05,1.364610670862021e-05,-1.2321107533352915e-05,0.000100266384833958
-1.9251050616730936e-05,5.165833863429725e-05,1.66375521075679e-05,-1.4787276995775755e-05,0.00010060441127279773
-1.5187551980488934e-05,6.0219186707399786e-05,1.660060661379248e-05,-1.3088178093312308e-05,8.941783744376153e-05
-1.5965326383593492e-05,6.744051643181592e-05,1.2468108252505772e-05,-1.4664419722976163e-05,8.212327520595863e-05
-2.1809804820804857e-05,6.89261214574799e-05,7.204780104075326e-06,-1.8005284800892696e-05,7.996924250619486e-05
-2.9979160899529234e-05,5.71644413867034e-05,2.9983066269778647e-06,-1.8412782083032653e-05,7.922667282400653e-05
-2.851145836757496e-05,3.975890649599023e-05,4.633908247342333e-06,-1.8724409528658725e-05,8.576013351557776e-05
-1.8103140973835252e-05,3.651559381978586e-05,7.5929037848254666e-06,-2.0282986952224746e-05,0.00010228822793578729
-1.2722885003313422e-05,5.1128601626260206e-05,7.558835477539105e-06,-2.2080677808844484e-05,0.00012081388558726758
-1.324935055890819e-05,6.627388211200014e-05,5.11114649270894e-06,-2.053924799838569e-05,0.00012154871365055442
-1.8162290871259756e-05,6.81395031278953e-05,2.865290070985793e-06,-1.6335439795511775e-05,8.892916957847774e-05
-2.6324178179493174e-05,5.79730149183888e-05,4.4576727304956876e-06,-1.4740850019734353e-05,4.997784708393738e-05
-3.273098627687432e-05,4.698166230809875e-05,8.761387107369956e-06,-1.7558859326527454e-05,3.8397520256694406e-05
-3.836640826193616e-05,3.698758519021794e-05,1.2195657291158568e-05,-1.949790384969674e-05,4.006349990959279e-05
-4.9834146921057254e-05,2.0544830476865172e-05,1.5256146070896648e-05,-1.6652760677970946e-05,2.4805711291264743e-05
-5.6754692195681855e-05,8.408605367549171e-07,2.0465857232920825e-05,-1.0892730642808601e-05,-1.5762573184474604e-06
-4.264258313924074e-05,-9.535007848171517e-06,2.2674032152281143e-05,-6.178487637953367e-06,-9.435203537577763e-06
-1.0374338671681471e-05,-8.200261618185323e-06,1.8571303371572867e-05,-4.835877007280942e-06,9.713778126752004e-06
1.5870964489295147e-05,-8.747902029426768e-06,1.1545454071892891e-05,-7.131016445782734e-06,4.088440982741304e-05
1.7444242985220626e-05,-1.9361101294634864e-05,6.299293545453111e-06,-1.1642156096058898e-05,6.16658289800398e-05
-2.698084927033051e-06,-2.972611582663376e-05,3.067760644626105e-06,-1.3696962014364544e-05,6.155411392683163e-05
-3.017037124664057e-05,-2.764407872746233e-05,1.6055863625297206e-06,-1.1557472134882119e-05,3.4227279684273526e-05
-5.2727293223142624e-05,-1.3980567018734291e-05,-1.509872618044028e-07,-7.209618615888758e-06,-2.641927494551055e-05
-5.882302866666578e-05,3.782608700930723e-06,-7.133381586754695e-06,-6.210467290657107e-06,-7.885455124778673e-05
-3.5047447454417124e-05,1.9626415451057255e-05,-1.717703889880795e-05,-8.235995665017981e-06,-7.232426287373528e-05
1.7220470908796415e-05,2.64536192844389e-05,-1.7683592886896804e-05,-4.948069545207545e-06,-2.8103997465223074e-05
6.973946437938139e-05,1.8468554117134772e-05,-8.526580131729133e-06,4.249337507644668e-06,6.957399818929844e-06
8.554699161322787e-05,8.50870037538698e-06,-7.206804184534121e-07,1.2592956409207545e-05,2.5460774850216694e-05
6.167785613797605e-05,1.7688547814032063e-05,-1.3866142580809537e-06,2.236882210127078e-05,4.317804632592015e-05
2.8259850296308286e-05,3.793467112700455e-05,-8.069321665971074e-06,3.079458110732958e-05,7.178338273661211e-05
4.3600716708169784e-06,4.477623224374838e-05,-9.390586455992889e-06,3.189876224496402e-05,0.0001051887302310206
-8.843921932566445e-06,3.826614920399152e-05,-5.12029328092467e-06,2.6703079129219986e-05,0.0001320413575740531
-1.6913883882807568e-05,3.5411798307904974e-05,1.3880607241389953e-07,1.6120331565616652e-05,0.00014672080578748137
-1.953489481820725e-05,3.915741399396211e-05,5.923075150349177e-07,6.112052233220311e-07,0.0001430189877282828
-1.5826350136194378e-05,4.398128658067435e-05,-3.0107003112789243e-06,-1.857732786447741e-05,0.00012596373562701046
-1.3443130228552036e-05,4.978432843927294e-05,-2.1331702555471566e-06,-3.4297605452593416e-05,0.00011140728020109236
-1.3444096111925319e-05,5.6446595408488065e-05,7.917250854916347e-07,-4.694693416240625e-05,0.00010276163811795413
-1.835673174355179e-05,5.4191747040022165e-05,9.58134251050069e-07,-6.092954572523013e-05,8.545190212316811e-05
-2.618530925246887e-05,4.541298403637484e-05,9.590398803993594e-07,-7.292738155229017e-05,5.0562368414830416e-05
-2.8470451070461422e-05,3.906685742549598e-05,3.837281838059425e-06,-7.177076622610912e-05,1.6564283214393072e-05
-2.397827665845398e-05,2.0205299733788706e-05,5.378230525820982e-06,-5.518505349755287e-05,1.0223820936516859e-05
-2.167141246900428e-05,-1.739895742502995e-05,3.948904577555368e-06,-3.4820172004401684e-05,2.147362829418853e-05
-2.8525410016300157e-05,-3.74807023035828e-05,2.5144952360278694e-06,-2.045229666691739e-05,1.6925305317272432e-05
-4.2014715290861204e-05,-1.9199724192731082e-05,1.1130312032037182e-06,-1.3687293176189996e-05,4.112796432309551e-06
-5.1836927013937384e-05,9.999062967835926e-06,-3.8067071272962494e-06,-1.3493359801941551e-05,1.8765669665299356e-05
-5.339164272299968e-05,2.234691237390507e-05,-1.054457425198052e-05,-1.6513527953065932e-05,6.133830174803734e-05
-4.804139825864695e-05,2.029506504186429e-05,-1.5336401702370495e-05,-1.7250000382773578e-05,9.01013336260803e-05
-3.885527985403314e-05,1.8234211893286556e-05,-1.7326392480754294e-05,-1.5197531865851488e-05,8.616990089649335e-05
-3.391991413081996e-05,2.0222403691150248e-05,-1.5237721527228132e-05,-1.2019337191304658e-05,6.738576485076919e-05
-3.712810212164186e-05,2.2979591449256986e-05,-1.1470749086583965e-05,-9.342461453343276e-06,5.0557679060148075e-05
-4.6941251639509574e-05,2.5456070943619125e-05,-6.3459365264861844e-06,-6.449402462749276e-06,4.697304029832594e-05
-5.80151827307418e-05,3.239052603021264e-05,1.318496970270644e-06,-5.5965974752325565e-06,5.4628362704534084e-05
-6.236852641450241e-05,3.873309105983935e-05,9.953509106708225e-06,-8.095167686406057e-06,6.514276174129918e-05
-5.844661791343242e-05,3.725947317434475e-05,1.2660389984375797e-05,-8.646644346299581e-06,6.977718294365332e-05
-4.971994349034503e-05,3.347480378579348e-05,1.2797853742085863e-05,-6.455142738559516e-06,6.753457273589447e-05
-4.945166074321605e-05,3.3868447644636035e-05,1.4440219274547417e-05,-7.415911113639595e-06,7.211235060822219e-05
-5.909953324589878e-05,3.796599412453361e-05,1.4390700016519986e-05,-8.464699931209907e-06,8.239867747761309e-05
-6.230080180102959e-05,4.2922281863866374e-05,1.3952781046100426e-05,-5.72877615923062e-06,8.008383883861825e-05
-5.8460733271203935e-05,4.573582191369496e-05,1.2463666280382313e-05,-2.86173349195451e-06,6.55372059554793e-05
-4.588357842294499e-05,4.545534466160461e-05,1.2703496395261027e-05,-4.4133703340776265e-06,5.2652023441623896e-05
-2.279044383612927e-05,4.7771711251698434e-05,1.5477568013011478e-05,-7.86303553468315e-06,4.8010846512624994e-05
7.734715836704709e-06,5.3088388085598126e-05,1.5463310774066485e-05,-6.8077933974564075e-06,5.16785767104011e-05
2.6288356821169145e-05,5.435082857729867e-05,1.2400209016050212e-05,-1.7125354361269274e-06,5.264653009362519e-05
2.0112300262553617e-05,4.859808541368693e-05,9.50313733483199e-06,4.073659511050209e-06,4.0404305764241144e-05
-7.3871269705705345e-06,4.2084502638317645e-05,6.537878562085098e-06,7.89095247455407e-06,1.906254510686267e-05
-4.341644307714887e-05,3.9652211853535846e-05,4.478051778278314e-06,8.052556950133294e-06,1.2011451872240286e-05
-6.65975603624247e-05,4.018105391878635e-05,3.899553121300414e-06,5.417784905148437e-06,3.827391265076585e-05
-5.983822120469995e-05,4.40275325672701e-05,3.958752586186165e-06,3.1152144401858095e-06,8.697428711457178e-05
-2.840638808265794e-05,5.2499890443868935e-05,4.666705535782967e-06,2.8942156404809793e-06,0.00012712166062556207
3.6435375250221114e-07,6.149508408270776e-05,4.489908860705327e-06,2.147636223526206e-06,0.00014371270663104951
7.373844709945843e-06,6.225362449185923e-05,3.759181936402456e-06,-1.3890617083234247e-06,0.00013963038509245962
-8.151951078616548e-06,5.70181364309974e-05,4.378889570944011e-06,-2.3972461349330842e-06,0.00011990545317530632
-3.600976924644783e-05,5.033489651395939e-05,6.655271590716438e-06,2.1447463041113224e-06,9.124635835178196e-05
-6.385784945450723e-05,4.06139952247031e-05,7.800867933838163e-06,8.441487807431258e-06,6.39983409200795e-05
-7.278695557033643e-05,2.5682029445306398e-05,5.908989351155469e-06,1.2577695088111795e-05,5.279130709823221e-05
-5.42935413250234e-05,8.01511669124011e-06,3.542831564118387e-06,1.403801616106648e-05,5.675858483300544e-05
-2.3745822545606643e-05,-6.943487278476823e-06,3.8121115721878596e-06,1.4763597391720396e-05,6.273041071835905e-05
-1.1180713954672683e-05,-1.263710692001041e-05,3.729870741153718e-06,1.3277997823024634e-05,6.37260964140296e-05
-2.697206218726933e-05,-1.1509690921229776e-05,4.944278771290556e-06,8.105870620056521e-06,4.501553121372126e-05
-5.81063432036899e-05,-1.1312972674204502e-05,7.531800747528905e-06,4.445555532583967e-06,1.644134863454383e-05
-7.64422511565499e-05,-1.1184555660292972e-05,9.445411706110463e-06,4.295498456485802e-06,1.4580336028302554e-05
-6.112618575571105e-05,-4.674302090279525e-06,1.0553649190114811e-05,6.881645617795584e-07,4.5514134399127215e-05
-3.647413177532144e-05,1.0133651358046336e-06,9.732948456075974e-06,-9.705176125862636e-06,7.996636122697964e-05
-2.6650728614185937e-05,5.619666353595676e-06,8.69345876708394e-06,-1.901969335449394e-05,8.999109559226781e-05
-2.2416372303268872e-05,1.3680234587809537e-05,9.00706527318107e-06,-2.2213773263501935e-05,8.776505273999646e-05
-1.6328402125509456e-05,1.7304771972703747e-05,1.0837044101208448e-05,-1.880256058939267e-05,8.545957825845107e-05
-1.3226874216343276e-05,2.042395317403134e-05,1.385236009809887e-05,-1.1204228940187022e-05,8.275040454464033e-05
-1.778343357727863e-05,2.6583946237224154e-05,1.7876000129035674e-05,-5.886757662665332e-06,6.006860712659545e-05
-2.150488580809906e-05,3.133773134322837e-05,1.6440988474641927e-05,-5.2916366257704794e-06,1.27911016534199e-05
-2.1318563085515052e-05,3.391413338249549e-05,1.2690859875874594e-05,-6.6084407990274485e-06,-2.1071518858661875e-05
-2.057038727798499e-05,3.8761907489970326e-05,1.410560253134463e-05,-5.88105240240111e-06,-1.8562128389021382e-05
-2.2149906726554036e-05,4.127870124648325e-05,1.8600818293634802e-05,-4.442399131221464e-06,4.594648089550901e-06
-2.284238325955812e-05,4.236329550622031e-05,1.8095483028446324e-05,-5.577933734457474e-06,2.6375135348644108e-05
-2.0210234652040526e-05,4.469133637030609e-05,1.1715152140823193e-05,-8.35224363981979e-06,3.929495142074302e-05
-1.634789259696845e-05,5.1468949095578864e-05,4.595071914081927e-06,-8.533362233720254e-06,5.137048719916493e-05
-1.743582652125042e-05,5.938070535194129e-05,1.5553216599073494e-06,-5.554761173698353e-06,6.584094080608338e-05
-2.6733410777524114e-05,6.205827230587602e-05,4.380593054520432e-06,-3.9030928746797144e-06,7.695682143094018e-05
-3.8239180867094547e-05,6.0294893046375364e-05,9.340808901470155e-06,-6.856616892036982e-06,8.267295197583735e-05
-4.5753342419629917e-05,6.081858373363502e-05,1.174088720290456e-05,-1.2395238627505023e-05,7.894892041804269e-05
-4.593851917888969e-05,6.39164645690471e-05,9.153933206107467e-06,-1.5902251107036136e-05,7.106836710590869e-05
-3.8084021070972085e-05,4.761296440847218e-05,7.38534981792327e-06,-1.6214547940762714e-05,6.222119554877281e-05
-1.572958535689395e-05,1.421438014403975e-06,8.899514796212316e-06,-1.5192625141935423e-05,5.614828842226416e-05
1.1911150977539364e-05,-3.9879687392385677e-05,1.0444477993587498e-05,-1.3968102393846493e-05,5.806273111375049e-05
1.988513395190239e-05,-3.294807902420871e-05,7.713010745646898e-06,-1.3392399523581844e-05,6.315264909062535e-05
-6.583218805644719e-07,8.32650675874902e-06,1.493014224251965e-06,-1.5219884517136961e-05,6.378107354976237e-05
-2.6611192879499868e-05,4.449505286174826e-05,-4.5349233914748766e-06,-1.9405209968681447e-05,6.161833152873442e-05
-3.492716496111825e-05,6.807957106502727e-05,-7.749242286081426e-06,-1.9717572286026552e-05,6.0281170590315014e-05
-2.7409265385358594e-05,8.192742825485766e-05,-1.1759887456719298e-05,-1.7703456251183525e-05,6.023376772645861e-05
-9.11450570129091e-06,6.672682502539828e-05,-1.9291865100967698e-05,-2.1882638975512236e-05,5.767567199654877e-05
8.807144695310853e-06,2.2855794668430462e-05,-2.8824077162425965e-05,-2.6053790861624293e-05,5.827456698170863e-05
1.2385042282403447e-05,-2.2202599211595953e-05,-3.2329502573702484e-05,-2.69578376901336e-05,6.043173561920412e-05
3.08339144794445e-06,-4.740000804304145e-05,-2.4776103600743227e-05,-2.7059428248321638e-05,5.442587280413136e-05
-1.19041924335761e-05,-5.104863885208033e-05,-1.5646439351257868e-05,-2.476607551216148e-05,4.622840424417518e-05
-1.6738793419790454e-05,-3.611083229770884e-05,-8.781405085755978e-06,-2.195086926803924e-05,4.705787432612851e-05
-6.4544801716692746e-06,-3.520524614941678e-06,-3.496570116112707e-06,-2.0803527149837464e-05,5.344403689377941e-05
5.833286195411347e-06,2.9013956009293906e-05,2.415415110590402e-06,-2.0040481103933416e-05,5.761131251347251e-05
2.5948243091988843e-06,4.608522795024328e-05,9.12901305127889e-06,-1.7519585526315495e-05,5.844621409778483e-05
-1.2879321729997173e-05,4.952847302774899e-05,1.4408854440262076e-05,-1.5083573089214042e-05,5.661753311869688e-05
-2.3943677661009133e-05,4.420634650159627e-05,1.6461799532407895e-05,-1.54942008521175e-05,5.5929071095306426e-05
-2.139905518561136e-05,3.4210617741337046e-05,1.784603955456987e-05,-1.8926441043731757e-05,5.979229536023922e-05
-1.1363488738425076e-05,2.5758105039130896e-05,1.8783342966344208e-05,-1.8879060007748194e-05,6.738876254530624e-05
-8.067905582720414e-06,2.5983028535847552e-05,1.8819831893779337e-05,-1.1568754416657612e-05,7.173947233241051e-05
-1.5541758330073208e-05,3.727596049429849e-05,1.8777114746626467e-05,-2.0750176190631464e-06,6.932138785487041e-05
-2.3968959794729017e-05,5.211202733335085e-05,1.958522989298217e-05,2.3117281671147794e-06,6.430345092667267e-05
-2.493377724022139e-05,5.745630187448114e-05,2.0744375433423556e-05,2.609985585877439e-06,6.288854638114572e-05
-2.3792857973603532e-05,5.027455699746497e-05,1.9700177290360443e-05,4.682907729147701e-06,6.299900269368663e-05
-2.3545695512439124e-05,3.963655763072893e-05,1.542702921142336e-05,9.706153832667042e-06,6.45165127934888e-05
-2.327000765944831e-05,3.4239426895510405e-05,1.0302997907274403e-05,1.4082915186008904e-05,7.034063310129568e-05
-2.1754303816123866e-05,3.549662869772874e-05,8.405985681747552e-06,1.4599284440919291e-05,7.720662688370794e-05
-2.4178105377359316e-05,4.179158713668585e-05,9.682383279141504e-06,9.883777238428593e-06,8.210018131649122e-05
-3.56399905285798e-05,4.5905453589512035e-05,9.726861208037008e-06,-8.677332630213641e-07,8.609876385889947e-05
-5.347548722056672e-05,4.203776188660413e-05,8.32724072097335e-06,-1.1541469575604424e-05,8.945901208790019e-05
-7.103022653609514e-05,3.9922033465700224e-05,1.329179031017702e-05,-1.4210423614713363e-05,8.996866381494328e-05
-7.823562918929383e-05,4.893047298537567e-05,2.0142011635471135e-05,-1.047316527547082e-05,8.455988427158445e-05
-6.759774987585843e-05,5.2816267270827666e-05,2.2010193788446486e-05,-1.0665748959581833e-05,6.871091318316758e-05
-4.33510540460702e-05,3.701978857861832e-05,1.7643047613091767e-05,-2.0038614820805378e-05,4.1072024032473564e-05
-2.5372730306116864e-05,1.6039963156799786e-05,7.824864951544441e-06,-3.204864333383739e-05,2.5439436285523698e-05
-2.648720874276478e-05,3.051513203899958e-06,-2.9580464797618333e-06,-3.805229061981663e-05,3.209072747267783e-05
-3.8579513784497976e-05,8.82715198713413e-07,-8.860609341354575e-06,-3.9191480027511716e-05,4.620822437573224e-05
-5.801604129374027e-05,9.753308404469863e-06,-9.633188710722607e-06,-3.780707993428223e-05,5.19803143106401e-05
-8.290671394206583e-05,2.4565268176957034e-05,-7.622514203831088e-06,-3.382200884516351e-05,4.246859680279158e-05
-0.0001071354272426106,3.660680158645846e-05,-3.1884355848887935e-06,-3.0570787203032523e-05,3.504060805425979e-05
-0.00011685011850204319,3.770402690861374e-05,4.412631255945598e-07,-2.626403329486493e-05,3.8270631193881854e-05
-0.00010103986278409138,2.717343704716768e-05,-7.188857580331387e-07,-2.2451236873166636e-05,5.2027713536517695e-05
-6.883143942104653e-05,1.9825902199954726e-05,-4.2063070395670366e-06,-2.1969601220916957e-05,6.305627903202549e-05
-4.458134571905248e-05,2.0348756152088754e-05,-6.321711225609761e-06,-2.170174957427662e-05,5.9488935221452266e-05
-3.721120810951106e-05,2.0290723114158027e-05,-3.938138434023131e-06,-2.140128708560951e-05,5.531115675694309e-05
-4.002203422714956e-05,1.4462788385571912e-05,2.683495381461398e-07,-1.8658654880709946e-05,6.475600821431726e-05
-4.1758667066460475e-05,9.711152415547986e-06,2.1742325770901516e-06,-1.4554229892382864e-05,8.268962847068906e-05
-3.893587563652545e-05,1.3773290447716136e-05,1.2257709158802754e-06,-1.167218761111144e-05,9.678753121988848e-05
-3.7589241401292384e-05,2.2472542696050368e-05,8.751167683840322e-07,-9.5489522209391e-06,0.00010446183296153322
-3.935559288947843e-05,2.9104381610522978e-05,5.12542828801088e-06,-4.473160061024828e-06,0.00010967489652102813
-3.66823333024513e-05,3.262567406636663e-05,1.1835079021693673e-05,4.2268666220479645e-06,0.00011033281043637544
-1.953626997419633e-05,3.469301373115741e-05,1.5108608749869745e-05,1.5557789083686657e-05,9.570829570293427e-05
1.0037572792498395e-05,3.2107254810398445e-05,1.2527601938927546e-05,2.697510353755206e-05,6.257700442802161e-05
3.7512985727516934e-05,2.7557643988984637e-05,8.526986675860826e-06,3.5258399293525144e-05,3.687092976178974e-05
4.5534750825027004e-05,2.7949814466410317e-05,4.709564109361963e-06,3.8537433283636346e-05,4.121763413422741e-05
3.4647458960535005e-05,3.029469917237293e-05,3.933173957193503e-06,3.353145075379871e-05,5.564114690059796e-05
1.7723246855894104e-05,2.446630605845712e-05,5.999766926834127e-06,1.8612719941302203e-05,6.509017111966386e-05
8.10380242910469e-06,1.100003737519728e-05,8.830901606415864e-06,-3.7556744700850686e-06,6.488999497378245e-05
8.37732932268409e-06,5.3665958148485515e-06,9.213310477207415e-06,-2.3171525754150935e-05,3.773033313336782e-05
1.3398287592281122e-05,1.8472315787221305e-05,8.320428605657071e-06,-3.4076747397193685e-05,3.7968140986777144e-07
1.751855597831309e-05,3.391127393115312e-05,1.1604245628404897e-05,-4.418752359924838e-05,5.173162207938731e-06
5.8595264817995485e-06,3.901666059391573e-05,1.4435216144192964e-05,-5.983090522931889e-05,5.812450763187371e-05
-2.9146380256861448e-05,3.586903039831668e-05,1.0889824807236437e-05,-7.636936788912863e-05,7.810938404873013e-05
-6.927466893102974e-05,2.6255658667651005e-05,4.339508450357243e-06,-8.30889111966826e-05,2.7882115318789147e-05
-8.362189691979438e-05,1.25763126561651e-05,-2.70426085080544e-06,-7.362279575318098e-05,-2.601625965326093e-05
-6.107203080318868e-05,-1.9886558675352717e-06,-7.960464245115872e-06,-5.942049756413326e-05,-2.545469396864064e-05
-2.8927204766659997e-05,-9.277592653234024e-06,-8.692673873156309e-06,-4.749132858705707e-05,1.7267651855945587e-05
-1.1866414752148557e-05,-3.0967405564297223e-06,-8.072105629253201e-06,-3.698881118907593e-05,5.272613634588197e-05
-2.0970484911231324e-05,1.2863647498306818e-05,-7.927516890049446e-06,-2.5064504370675422e-05,5.6048796977847815e-05
-4.302785964682698e-05,2.5531424398650415e-05,-8.795052963250782e-06,-1.2883304407296237e-05,3.0411243642447516e-05
-5.362322190194391e-05,3.047913378395606e-05,-1.094735853257589e-05,-7.272413768077968e-06,1.006881120702019e-05
-4.6791716158622876e-05,3.3307467674603686e-05,-1.1864962289109826e-05,-8.231022547988687e-06,1.4650966477347538e-05
-3.663345341919921e-05,3.810662747127935e-05,-1.1013697076123208e-05,-1.029703071253607e-05,3.514412674121559e-05
-3.6306377296568826e-05,4.552118480205536e-05,-7.90825106378179e-06,-9.460930414206814e-06,5.3902636864222586e-05
-4.036210157210007e-05,5.208163565839641e-05,-4.512731266004266e-06,-7.478591214749031e-06,6.334562203846872e-05
-3.056009882129729e-05,5.1137223636033013e-05,-2.736246074164228e-07,-6.929931259946898e-06,6.67181666358374e-05
2.411749164821231e-06,4.159433228778653e-05,6.237567504285835e-06,-8.449729648418725e-06,6.804055738030002e-05
4.093200186616741e-05,3.473239848972298e-05,1.3488319382304326e-05,-4.836802872887347e-06,6.677173951175064e-05
6.23160958639346e-05,3.95905262848828e-05,2.048733404080849e-05,6.611121079913573e-06,6.229758582776412e-05
6.0077374655520543e-05,5.0749331421684474e-05,2.666514046723023e-05,1.6915328160393983e-05,5.909643368795514e-05
4.696556425187737e-05,5.462832632474601e-05,2.7919557396671735e-05,2.1738414943683892e-05,6.0136953834444284e-05
3.678726716316305e-05,4.840316978516057e-05,2.2609730876865797e-05,2.4508342903573066e-05,6.841398135293275e-05
3.4907745430245996e-05,4.214780346956104e-05,1.853854519140441e-05,2.4753217076067813e-05,7.872077549109235e-05
2.86050999420695e-05,4.1750736272661015e-05,1.9991370209027082e-05,2.1500212824321352e-05,8.571214857511222e-05
6.5419803831900936e-06,4.403735147207044e-05,2.0712339392048307e-05,1.4085779184824787e-05,8.167050691554323e-05
-2.398284232185688e-05,4.505704055191018e-05,1.5594659998896532e-05,-1.0015348834713222e-06,6.882699381094426e-05
-4.8028545279521495e-05,3.899041985278018e-05,1.3448804565996397e-05,-1.7533600839669816e-05,5.8831174101214856e-05
-6.052636308595538e-05,2.3257240172824822e-05,1.7755146473064087e-05,-3.3620381145738065e-05,5.580077777267434e-05
-7.23640332580544e-05,1.5064936633280013e-05,2.038871025433764e-05,-4.712849113275297e-05,5.6153709010686725e-05
-8.589246863266453e-05,1.8574677596916445e-05,2.20554466068279e-05,-5.65395675948821e-05,5.822744424222037e-05
-9.243896056432277e-05,1.9319415514473803e-05,2.1187726815696806e-05,-6.610781565541402e-05,5.760988642578013e-05
-9.148559183813632e-05,1.921941111504566e-05,1.667121068749111e-05,-6.374608346959576e-05,6.251527520362288e-05
-9.008753841044381e-05,2.174141991417855e-05,1.2902164598926902e-05,-4.767829886986874e-05,7.20473617548123e-05
-8.785672980593517e-05,2.6815572709892876e-05,1.151378637587186e-05,-2.4642549760756083e-05,7.882712816353887e-05
-6.605479575227946e-05,3.303440098534338e-05,1.4709232345921919e-05,-6.700280209770426e-06,8.281491318484768e-05
-2.9903820177423768e-05,3.576214658096433e-05,1.5985779100446962e-05,-1.7369005718137487e-06,8.725445513846353e-05
-6.404461601050571e-06,3.819155608653091e-05,1.2441359103831928e-05,-1.5203355587800615e-06,9.096466965274885e-05
-6.6467960095906164e-06,4.079296195413917e-05,9.411705832462758e-06,3.020085387106519e-06,9.070167288882658e-05
-2.0349989426904358e-05,3.904102050000802e-05,8.620092557976022e-06,1.2343303751549684e-05,8.498691022396088e-05
-3.2824769732542336e-05,3.35202130372636e-05,7.835978976800106e-06,1.7917025616043247e-05,8.55932230479084e-05
-4.006627932540141e-05,3.0814600904705e-05,8.50576634547906e-06,1.6114034224301577e-05,0.00010674740769900382
-4.1453586163697764e-05,3.2233030651696026e-05,8.397959391004406e-06,1.073518069460988e-05,0.00012863849406130612
-3.967828888562508e-05,3.3347743737977e-05,7.489173185604159e-06,5.193088782107225e-06,0.00010993283649440855
-3.944846321246587e-05,3.34560354531277e-05,1.0096813639393076e-05,-9.388410262545221e-07,4.6772667701588944e-05
-3.7653237086487934e-05,3.271206151111983e-05,1.531252019049134e-05,-7.408038072753698e-06,-7.160002041928237e-06
-2.6180363420280628e-05,3.133664358756505e-05,1.755753328325227e-05,-1.3038473298365716e-05,-8.658044862386305e-06
-1.0329673386877403e-05,3.0036042517167516e-05,1.4023435142007656e-05,-1.4059217392059509e-05,2.390882400504779e-05
-2.2253534552874044e-06,2.8146348995505832e-05,7.83229279477382e-06,-8.24158632894978e-06,4.2972365918103606e-05
-3.3043020266632084e-06,2.605752342788037e-05,2.0534962459350936e-06,4.569018983602291e-06,4.282268855604343e-05
-1.1508563147799578e-05,2.520687303331215e-05,-4.3037039176851977e-07,1.4701935469929595e-05,4.821957554668188e-05
-2.383580977038946e-05,2.5025779905263335e-05,4.25697180617135e-07,1.1677493603201583e-05,5.348016566131264e-05
-2.9319806344574317e-05,2.4901393771870062e-05,5.541953385090892e-08,-2.0826364561798982e-06,3.541022670106031e-05
-3.035728332179133e-05,3.0391365726245567e-05,-1.5677218243581592e-06,-1.1464248927950393e-05,2.1531881429837085e-05
-3.4144759410992265e-05,4.0656985220266506e-05,-2.092817510401801e-07,-9.191378921968862e-06,3.422354711801745e-05
-2.7477364710648544e-05,4.872882709605619e-05,4.480668394535314e-06,-4.023609108116943e-06,5.517203317140229e-05
-3.460272864685976e-06,4.737847484648228e-05,6.339410447253613e-06,-2.860445874830475e-06,7.602875120937824e-05
1.4152539733913727e-05,2.2426203940995038e-05,3.6280675885791425e-06,-6.1031978475512005e-06,9.399148257216439e-05
7.29354496797896e-06,-4.896431164524984e-06,4.086396529601188e-06,-1.0027231837739237e-05,9.627091640140861e-05
-1.4221746823750436e-05,3.339014938319451e-06,6.937857051525498e-06,-1.0902811482083052e-05,7.118214125512168e-05
-3.236369593651034e-05,3.168225157423876e-05,7.888542313594371e-06,-1.1779670785472263e-05,3.316047150292434e-05
-3.3451084163971245e-05,4.765019184560515e-05,5.574760962190339e-06,-1.6670970580889843e-05,2.379984471190255e-05
-1.6276249880320393e-05,4.840692417928949e-05,2.7032367597712437e-06,-1.908206832013093e-05,4.7619789256714284e-05
5.036556103732437e-06,4.1710245568538085e-05,3.805648702837061e-07,-1.2134357348259073e-05,8.445173443760723e-05
1.541144956718199e-05,3.0390321626327932e-05,-2.27250779971655e-06,-3.127278660031152e-06,0.00012201646313769743
6.114197731221793e-06,1.2076129678462166e-05,-4.863635695073754e-06,1.3995018832702044e-07,0.00013816324644722044
-1.4884682968840934e-05,-1.665302647779754e-06,-7.22223921911791e-06,4.828359124076087e-06,0.00012148101086495444
-3.075051063206047e-05,1.9829794837278314e-06,-7.1789181674830616e-06,1.4367064977705013e-05,8.314963633893058e-05
-3.255272895330563e-05,1.4352108337334357e-05,-4.28877183367149e-06,2.166317790397443e-05,4.47523889306467e-05
-2.37105068663368e-05,2.1836942323716357e-05,-4.16193506680429e-06,2.2055104636820033e-05,1.1005163287336472e-05
-7.807810106896795e-06,2.0887724531348795e-05,-7.81634844315704e-06,2.0770197806996293e-05,-7.75681110098958e-06
4.750631887873169e-06,1.630868428037502e-05,-1.3294285963638686e-05,2.145640792150516e-05,3.754654244403355e-06
-4.109303063160041e-06,1.365736170555465e-05,-1.8936192645924166e-05,2.0875568225164898e-05,3.096360887866467e-05
-2.9275950510054827e-05,1.7728676539263688e-05,-2.353462332393974e-05,1.66942372743506e-05,4.6200781071092933e-05
-5.008178050047718e-05,2.7472131478134543e-05,-2.456974470987916e-05,1.1886630090884864e-05,4.195666770101525e-05
-5.54022153664846e-05,3.631069921539165e-05,-2.214918094978202e-05,1.0087687769555487e-05,3.377613393240608e-05
-5.10843783558812e-05,4.012658610008657e-05,-1.99751684704097e-05,1.105352657759795e-05,4.2565312469378114e-05
-5.163334571989253e-05,3.7715057260356843e-05,-1.7059228412108496e-05,1.145290480053518e-05,7.293525413842872e-05
-6.0344991652527824e-05,3.414089587749913e-05,-1.3069989108771551e-05,8.66362915985519e-06,0.0001069162753992714
-6.236707122297958e-05,3.8026417314540595e-05,-6.734302132826997e-06,2.032994188994053e-06,0.0001249909255420789
-5.5008138588164e-05,4.3613039451884106e-05,-8.097148338492843e-07,-7.102983090589987e-06,0.00011580546561162919
-4.9476402637083083e-05,4.303343303035945e-05,4.448803792911349e-06,-1.2305073141760658e-05,7.840451144147664e-05
-5.0963870307896286e-05,3.368728721397929e-05,7.820922292012256e-06,-1.395618437527446e-05,7.474277481378522e-06
-5.086621968075633e-05,2.358296660531778e-05,6.266950549616013e-06,-1.5049590729176998e-05,-5.831988528370857e-05
-4.1988845623563975e-05,2.12154245673446e-05,2.976546738864272e-06,-1.9372997485334054e-05,-4.815514694200829e-05
-2.706399573071394e-05,2.172356289520394e-05,5.164581125427503e-06,-2.535590283514466e-05,3.5775570722762495e-05
-1.557529867568519e-05,2.7213052817387506e-05,1.0372416909376625e-05,-2.504175790818408e-05,0.0001072656741598621
-1.2994336429983377e-05,3.6355675547383726e-05,1.1239319064770825e-05,-2.3123806386138313e-05,0.00011132713552797213
-1.5205971067189239e-05,3.924221527995542e-05,1.2150506336183753e-05,-2.266392948513385e-05,8.254106069216505e-05
-2.0720262909890153e-05,3.638655471149832e-05,1.3510776625480503e-05,-2.2630609237239696e-05,5.614410838461481e-05
-2.5611307137296535e-05,3.64082952728495e-05,1.6370702724088915e-05,-2.412126741546672e-05,4.9025336920749396e-05
-2.6091363906743936e-05,4.8336904001189396e-05,1.831209556257818e-05,-2.3328695533564314e-05,5.470009273267351e-05
-2.761004725471139e-05,6.320088868960738e-05,1.6727897673263215e-05,-1.9520615751389414e-05,6.23445157543756e-05
-3.6185127100907266e-05,6.244118412723765e-05,1.4625192306993995e-05,-1.6069812772911973e-05,6.41695805825293e-05
-4.31045591540169e-05,4.835366416955367e-05,1.3060407582088374e-05,-1.3958027921034954e-05,5.995140236336738e-05
-4.1910039726644754e-05,3.287002255092375e-05,1.1439857189543545e-05,-1.2799229807569645e-05,5.5223063100129366e-05
-3.637223562691361e-05,2.1062403902760707e-05,9.331896762887482e-06,-1.3251018572191242e-05,5.4155771067598835e-05
-3.069113881792873e-05,1.5634865121683106e-05,8.594905011705123e-06,-1.3252616554382257e-05,6.305102579062805e-05
-2.5872712285490707e-05,1.4077361811359879e-05,8.298049579025246e-06,-8.598344720667228e-06,7.804896449670196e-05
-1.928250458149705e-05,8.426990461884998e-06,6.553732873726403e-06,-1.5248638192133512e-06,8.659828017698601e-05
-9.52408299781382e-06,3.677107088151388e-06,3.875873062497703e-06,2.5671849925856804e-06,8.404253458138555e-05
-1.0537786465647514e-06,9.20944512472488e-06,4.021680069854483e-06,3.787600007854053e-06,7.913014997029677e-05
1.4260774605645565e-06,1.8151395124732517e-05,4.7166849981294945e-06,4.9945660975936335e-06,7.317221752600744e-05
3.2856686971172167e-07,2.2108584744273685e-05,5.815561962663196e-06,6.338241291814484e-06,6.807837780797854e-05
-2.8448912416934036e-06,2.432785004202742e-05,7.164951512095286e-06,1.0086041584145278e-05,6.439860590035096e-05
-1.2293472536839545e-05,2.8318407203187235e-05,7.651244231965393e-06,1.3537844097299967e-05,6.0140770074212924e-05
-3.515134449116886e-05,3.64167099178303e-05,7.715327228652313e-06,1.566612809256185e-05,5.776973193860613e-05
-5.543774022953585e-05,4.73412437713705e-05,7.015045412117615e-06,1.8353877749177627e-05,6.481698073912412e-05
-5.2546434744726866e-05,5.1063794671790674e-05,6.1423620536515955e-06,1.700588472886011e-05,7.350645319093019e-05
-2.7380434403312393e-05,4.061676736455411e-05,5.097171651868848e-06,1.084640189219499e-05,7.275192183442414e-05
-7.415878826577682e-06,2.5415221898583695e-05,2.493764668543008e-06,-1.3622087635667413e-06,6.361479609040543e-05
-7.281741545739351e-06,1.827435517043341e-05,3.5804278013529256e-06,-1.4593100786441937e-05,6.689543079119176e-05
-1.1529600669746287e-05,2.011892502196133e-05,8.935317055147607e-06,-2.5199131414410658e-05,6.125766958575696e-05
-1.5383762729470618e-05,2.8411535822669975e-05,1.1541430467332248e-05,-3.504327105474658e-05,2.4873488655430265e-05
-1.7097823729272932e-05,3.781331906793639e-05,1.1492175872263033e-05,-5.029343446949497e-05,4.19760863223928e-06
-1.5303816326195374e-05,4.077244011568837e-05,1.1366770195309073e-05,-6.464921170845628e-05,2.4099446818581782e-05
-8.270926628028974e-06,3.854174065054394e-05,1.3830245734425262e-05,-5.925094228587113e-05,5.6975815823534504e-05
-7.190119504230097e-06,3.5316403227625415e-05,1.6822261386550963e-05,-3.794930671574548e-05,7.526897388743237e-05
-2.338915510335937e-05,2.5978002668125555e-05,1.6897429304663092e-05,-1.8437729522702284e-05,7.460904453182593e-05
-5.420825618784875e-05,1.279501020690077e-06,1.2002607945760246e-05,-9.671841326053254e-06,7.165931310737506e-05
-8.379290375160053e-05,-2.508296529413201e-05,7.665265002287924e-06,-8.523327778675593e-06,8.122513827402145e-05
-9.701831004349515e-05,-2.8801146982004866e-05,6.383216714311857e-06,-1.217141470988281e-05,9.511270764051005e-05
-9.040140139404684e-05,-1.0072647455672268e-05,6.0651432249869686e-06,-1.9102571968687698e-05,9.659309580456465e-05
-7.14865600457415e-05,1.1062748853873927e-05,5.458132363855839e-06,-2.731199492700398e-05,7.773956895107403e-05
-4.9967340601142496e-05,2.238185697933659e-05,4.757121132570319e-06,-3.091488542850129e-05,4.966726555721834e-05
-3.5143177228746936e-05,2.5016090148710646e-05,3.708378017108771e-06,-2.6159908884437755e-05,3.4484153729863465e-05
-3.296836439403705e-05,2.1782549083582126e-05,2.7995788514090236e-06,-1.6535752365598455e-05,3.58693469024729e-05
-3.2075131457531825e-05,1.8935614207293838e-05,3.234614268876612e-06,-8.67735616338905e-06,3.2794163416838273e-05
-1.2540319403342437e-05,2.3095419237506576e-05,2.3122806851461064e-06,-6.28783800493693e-06,1.9054714357480407e-05
2.380576370342169e-05,3.126119190710597e-05,4.990595243725693e-07,-6.837590717623243e-06,1.2322724614932667e-05
4.621319749276154e-05,3.7005280319135636e-05,-4.717121100838995e-06,-5.977910859655822e-06,2.4838178433128633e-05
4.0211576560977846e-05,4.1943487303797156e-05,-1.3640212273458019e-05,-3.823100541922031e-06,4.79586778965313e-05
2.1127358195371926e-05,4.696592804975808e-05,-2.0780607883352786e-05,-4.351603820396122e-06,7.294770330190659e-05
6.6689890445559286e-06,4.8903526476351544e-05,-2.0931483959429897e-05,-9.951715583156329e-06,0.00010318074055248871
8.920704317461059e-07,4.456563328858465e-05,-1.2954565136169549e-05,-1.7804894014261663e-05,0.00013785154442302883
4.535181233222829e-06,3.9730231947032735e-05,-8.216725291276816e-06,-2.4640103220008314e-05,0.00016833080735523254
2.1830393961863592e-05,3.3480129786767066e-05,-7.395564352918882e-06,-2.4201093765441328e-05,0.00017642795864958316
4.6333923819474876e-05,2.4875289454939775e-05,-4.544119292404503e-06,-1.405697094014613e-05,0.0001402273483108729
4.260382047505118e-05,2.2011074179317802e-05,3.1369077078124974e-06,-4.864911716140341e-06,9.130130638368428e-05
-1.5608507965225726e-05,2.3368596885120496e-05,9.522785148874391e-06,3.5265038604848087e-06,5.759603300248273e-05
-9.858262637862936e-05,2.644762207637541e-05,9.411694009031635e-06,6.182314336911077e-06,2.605035297165159e-05
-0.00015250749129336327,2.2890400941832922e-05,1.1395682122383732e-05,-2.6954253371513914e-06,2.4527744244551286e-06
-0.0001647167227929458,1.3298013982421253e-05,1.16994579002494e-05,-1.219945443153847e-05,6.7292094172444195e-06
-0.00014399275823961943,9.609660082787741e-06,1.049514685291797e-05,-1.3461562048178166e-05,4.29252177127637e-05
-0.00010482386278454214,9.277013305108994e-06,1.3671704437001608e-05,-5.683203653461533e-06,7.956951594678685e-05
-6.554979336215183e-05,7.0694127316528466e-06,2.1974090486764908e-05,4.797295787284384e-07,9.46209256653674e-05
-3.487051071715541e-05,4.937075118505163e-06,2.7894109734916128e-05,-2.7561166007217253e-06,9.235295146936551e-05
-7.282256319740554e-06,7.43479176890105e-06,2.8908243621117435e-05,-1.3120944458933081e-05,7.92033679317683e-05
1.6217292795772664e-05,1.4629241377406288e-05,2.3511742256232537e-05,-2.578716339485254e-05,6.424851744668558e-05
2.6603111109579913e-05,2.2830839952803217e-05,1.4456516510108486e-05,-3.4319422411499545e-05,6.836545799160376e-05
2.4671477149240673e-05,3.150784323224798e-05,8.61361240822589e-06,-3.908663347829133e-05,9.197367035085335e-05
1.6492662325617857e-05,4.160183743806556e-05,8.011415047803894e-06,-4.4314121623756364e-05,8.790977881290019e-05
1.1077626368205529e-05,4.963534593116492e-05,7.868739885452669e-06,-4.2160856537520885e-05,2.6176823666901328e-05
1.2238676390552428e-05,4.921584695694037e-05,5.520636932487832e-06,-2.5985773390857503e-05,-5.629239967674948e-05
1.7908587324200198e-05,4.139946759096347e-05,4.0682557482796255e-06,-8.716417141840793e-06,-9.312060865340754e-05
2.1002460925956257e-05,3.134377038804814e-05,2.748804718066822e-06,-4.437300049175974e-06,-7.814554555807263e-05
2.1504261894733645e-05,2.434023372188676e-05,1.4405243291548686e-06,-7.919281415524893e-06,-7.014261791482568e-05
2.1643816580763087e-05,2.4799583115964197e-05,-2.343145069971797e-06,-8.61106309457682e-06,-8.868463919498026e-05
1.92993047676282e-05,3.089940219069831e-05,-8.541349416191224e-06,-8.995031748781912e-06,-8.477547817165032e-05
9.581392987456638e-06,3.855067188851535e-05,-1.104353395930957e-05,-1.1162370356032625e-05,-4.0707996959099546e-05
-5.820534170197789e-06,4.1588533349568024e-05,-8.649631126900204e-06,-1.0174675480811857e-05,1.3062682228337508e-05
-2.0098839740967378e-05,3.429381104069762e-05,-7.697687578911427e-06,-5.93500863033114e-06,6.239142385311425e-05
-3.2351519621443003e-05,2.20326182898134e-05,-5.867966592632001e-06,-3.6432936667551985e-06,0.0001076997650670819
-5.211226380197331e-05,2.4990968086058274e-05,-2.6992101993528195e-06,-8.899606655177195e-06,0.00014389154966920614
-6.703722465317696e-05,3.997679232270457e-05,1.5827316701688687e-07,-1.763505133567378e-05,0.0001547596330055967
-7.700220157857984e-05,4.506868572207168e-05,2.783671789075015e-06,-2.7090314688393846e-05,0.00014931694022379816
-8.282114868052304e-05,4.165226346231066e-05,3.6166638892609626e-06,-4.007704046671279e-05,0.00014120640116743743
-6.783424032619223e-05,3.758194361580536e-05,4.123325652471976e-06,-4.5247779780765995e-05,0.00013206450967118144
-4.745075784740038e-05,3.619873314164579e-05,8.489226274832617e-06,-3.375544474693015e-05,0.00014083953283261508
-4.6222583478083834e-05,3.387105243746191e-05,1.1666978934954386e-05,-1.0443081009725574e-05,0.00014805355749558657
-6.009265052853152e-05,2.102932194247842e-05,1.330602572124917e-05,1.6888305253814906e-05,0.0001237100368598476
-5.900307951378636e-05,-5.362205683923094e-07,1.2203328878968023e-05,3.53447139787022e-05,8.641478780191392e-05
-3.499256490613334e-05,-7.492731583624845e-06,8.604122740507592e-06,3.340444163768552e-05,6.61758313071914e-05
-2.8068684514437336e-06,6.63885657559149e-06,5.990201771055581e-06,1.8414526493870653e-05,5.757604958489537e-05
2.0697683794423938e-05,2.3932048861752264e-05,3.253087925259024e-06,2.4518601549061714e-06,4.785560304298997e-05
2.7115927878185175e-05,3.287294748588465e-05,-1.1600292282309965e-06,-1.1685845493047964e-05,5.1064605941064656e-05
1.847726889536716e-05,3.515420758049004e-05,-6.212848347786348e-06,-2.08446363103576e-05,5.9621193940984085e-05
3.3740611797838937e-06,3.63285762432497e-05,-6.095993740018457e-06,-2.115844290528912e-05,5.018622687202878e-05
-9.492433491686825e-06,3.9734582969686016e-05,-1.911840854518232e-06,-1.2768428859999403e-05,2.45780247496441e-05
-1.7407670384272933e-05,4.411227200762369e-05,-3.009657518759923e-07,-1.1330857887514867e-06,2.165704927392653e-06
-2.564544956840109e-05,4.268344127922319e-05,-1.2435150438250275e-06,6.013872280163923e-06,-1.7977639799937606e-05
-3.792041025008075e-05,3.7464593333425e-05,1.1315635219943943e-06,5.17523949383758e-06,-3.7760877603432164e-05
-4.9139584007207304e-05,3.311975160613656e-05,5.382031304179691e-06,-1.1956217349506915e-06,-3.6889287002850324e-05
-5.79735278734006e-05,2.851088902389165e-05,6.779081104468787e-06,-8.123095540213399e-06,2.0925465378240915e-06
-7.133469625841826e-05,2.7223244615015574e-05,4.279441782273352e-06,-1.3192973710829392e-05,6.130831752670929e-05
-8.784326928434893e-05,3.523744089761749e-05,3.737252200153307e-06,-1.6785481420811266e-05,0.00011129189078928903
-9.725787094794214e-05,4.153285044594668e-05,7.592632300656987e-06,-1.9084573068539612e-05,0.0001473542070016265
-9.888053318718448e-05,4.071668445249088e-05,1.0411838957224973e-05,-2.0408908312674612e-05,0.00016145783592946827
-9.243476233677939e-05,3.746716902242042e-05,1.2201027857372537e-05,-2.2357733541866764e-05,0.0001292696688324213
-7.193790952442214e-05,3.116243897238746e-05,1.478719241276849e-05,-2.509641126380302e-05,7.339996955124661e-05
-3.582767385523766e-05,2.887675327656325e-05,1.3614298950415105e-05,-2.496489105396904e-05,7.452841964550316e-05
-2.1318194285413483e-06,3.611810097936541e-05,1.3263784239825327e-05,-2.2796533812652342e-05,0.00013455394946504384
2.2649190213996917e-05,3.900413867086172e-05,1.4369426025950816e-05,-2.338789818168152e-05,0.00017341722559649497
4.528496356215328e-05,3.1024876079754904e-05,1.262630848941626e-05,-2.512872924853582e-05,0.00015476376574952155
5.8356145018478855e-05,1.7687840227154084e-05,5.530097951123025e-06,-2.361246333748568e-05,9.869017958408222e-05
4.979062214260921e-05,3.218947995264898e-06,-2.4860457870090613e-07,-1.838924981711898e-05,3.921033930964768e-05
2.7224565201322548e-05,2.867147486540489e-06,-2.4130745259753894e-06,-9.794903235160746e-06,-1.4722304513270501e-05
4.0725253711570986e-06,1.122047433455009e-05,-6.18867215962382e-06,-3.8038615457480773e-06,-5.648439400829375e-05
-2.217636392742861e-05,8.022157999221236e-06,-7.975060725584626e-06,-2.335309090994997e-06,-7.096381159499288e-05
-4.496460678637959e-05,-5.355595021683257e-06,-8.637238352093846e-06,-3.117620053671999e-06,-5.3266569011611864e-05
-5.542313010664657e-05,-1.289295050810324e-05,-5.264300398266641e-06,-2.4803382530080853e-06,-1.1720277143467683e-05
-5.118191256769933e-05,-7.454050773958443e-06,3.906333859049482e-06,2.9735289786003705e-07,4.104959225514904e-05
-3.826105603366159e-05,5.458745818032185e-06,1.1703420568665024e-05,2.665792742106987e-08,9.464224422117695e-05
-2.6016097763204016e-05,2.1459725758177228e-05,1.3443323041428812e-05,-3.4229940411023563e-06,0.00012366639566607773
-2.2004982383805327e-05,3.510751776047982e-05,1.4216035197023302e-05,-5.725843948312104e-06,0.00011433964391471818
-2.6438825443619862e-05,4.368114969111048e-05,1.7256032151635736e-05,-6.06906814937247e-06,8.058122330112383e-05
-3.262577229179442e-05,4.614219506038353e-05,1.857354618550744e-05,-7.17723969501094e-06,5.1917482778662816e-05
-2.8179498258396052e-05,4.444516889634542e-05,1.503347357356688e-05,-8.11610425444087e-06,3.5482971725286916e-05
-9.4928309408715e-06,4.352320320322178e-05,1.110245557356393e-05,-9.281469829147682e-06,2.7289819627185352e-05
3.838456905214116e-06,4.5090891944710165e-05,1.1278780220891349e-05,-1.368742869090056e-05,3.185848981956951e-05
-2.110469040417229e-06,4.053509110235609e-05,1.563612386235036e-05,-2.268772186653223e-05,5.211653478909284e-05
-1.9719493138836697e-05,3.0757455533603206e-05,2.0591744032572024e-05,-2.9165450541768223e-05,6.83938997099176e-05
-3.3353364415233955e-05,2.896574733313173e-05,2.301080894540064e-05,-2.5441147954552434e-05,5.76685561100021e-05
-3.7451540265465155e-05,3.660444053821266e-05,2.2825961423222907e-05,-1.728464849293232e-05,3.782400017371401e-05
-4.0366488974541426e-05,4.842302587348968e-05,1.933308521984145e-05,-1.1441035894677043e-05,3.579017356969416e-05
-4.253081351635046e-05,5.4299762268783525e-05,1.5073796021169983e-05,-7.354429726547096e-06,5.37082705704961e-05
-3.8976628275122494e-05,4.884520603809506e-05,1.0768118954729289e-05,-5.222689651418477e-06,9.05046472325921e-05
-3.111305704806e-05,4.240492853568867e-05,9.811668860493228e-06,-4.308073584979866e-06,0.00013980810763314366
-3.13835553242825e-05,5.022563709644601e-05,1.1671657375700306e-05,-5.5103469094319735e-06,0.00016438041348010302
-3.6924822779837996e-05,5.559815326705575e-05,1.1491255463624839e-05,-4.768127837451175e-06,0.00015595123113598675
-2.5649393137427978e-05,3.371193815837614e-05,6.009686785546364e-06,-1.0515396979826619e-06,0.00012544407218229026
-7.202868346212199e-06,9.744175258674659e-06,-6.524667810481333e-07,1.2905336461699335e-06,9.451444202568382e-05
2.3328450424742186e-06,1.2555009561765473e-05,-2.6059351512230933e-06,4.056818852404831e-06,8.485563739668578e-05
1.842315100475389e-06,2.7377069272915833e-05,-3.5640591704577673e-06,6.805748853366822e-06,7.898261537775397e-05
-4.016837920062244e-06,3.664174073492177e-05,-3.0258561309892684e-06,5.877916464669397e-06,6.42751474515535e-05
-7.2005350375548005e-06,3.98810843762476e-05,-1.8379602124696248e-06,4.514471584116109e-06,4.3217482016189024e-05
-1.4412810855901625e-07,4.1194311052095145e-05,7.785536126903025e-07,1.3764395134785445e-06,3.4640943340491503e-05
8.014033483050298e-06,4.2051466152770445e-05,3.9159053812909406e-06,-4.870493739872472e-06,3.815968011622317e-05
-2.4385790311498567e-06,3.95125025534071e-05,4.31047146776109e-06,-9.542010047880467e-06,4.286650073481724e-05
-3.624292730819434e-05,3.198339982191101e-05,4.038012775708921e-06,-1.1668600564007647e-05,4.1469473217148334e-05
-7.429093966493383e-05,2.2438549422076903e-05,5.52815617993474e-06,-1.1075916518166196e-05,3.790075788856484e-05
-9.569487883709371e-05,1.798996345314663e-05,7.616064522153465e-06,-8.543151125195436e-06,3.948067387682386e-05
-9.105648496188223e-05,1.9992319721495733e-05,7.844447281968314e-06,-3.1713284442957956e-06,4.600996908266097e-05
-6.269867299124599e-05,2.5758965421118774e-05,6.887319614179432e-06,-8.286399832968527e-08,5.3851199481869116e-05
-2.7664036679198034e-05,3.261099845985882e-05,7.931939762784168e-06,-3.0490218705381267e-06,5.603814497590065e-05
-6.124755145719973e-06,3.613555236370303e-05,1.2466433872759808e-05,-7.0545170274272095e-06,5.833897739648819e-05
-7.0079790930321906e-06,3.081939212279394e-05,1.5186285054369364e-05,-7.684242518735118e-06,6.569520337507129e-05
-2.3375829186988994e-05,1.5676230759709142e-05,1.2851289284299128e-05,-6.749014573870227e-06,7.724529859842733e-05
-4.3961692426819354e-05,-1.3544827481837274e-07,7.783087312418502e-06,-7.4650424721767195e-06,8.099150727503002e-05
-6.128173117758706e-05,-9.529742783342954e-06,2.124372258549556e-06,-1.2908146345580462e-05,6.977377779548988e-05
-7.625171565450728e-05,-1.687766780378297e-05,-3.1111012503970414e-06,-1.854985202953685e-05,4.3345648009562865e-05
-9.249736467609182e-05,-1.9658373275888152e-05,-5.319644969858928e-06,-2.0022929675178602e-05,2.4669994672876783e-05
-0.00011448337318142876,-1.2996008081245236e-05,-2.3473758119507693e-06,-1.6637683074804954e-05,3.319949610158801e-05
-0.00012443239393178374,-6.314468464552192e-06,4.1953690015361644e-06,-1.1296736374788452e-05,4.854483267990872e-05
-9.957740257959813e-05,-2.651441945999977e-06,9.725745258037932e-06,-1.1179224202351179e-05,4.3096930312458426e-05
-5.592435991275124e-05,1.7766376458894229e-06,8.150501344061922e-06,-1.4376260878634639e-05,1.3004380889469758e-05
-2.1129286324139684e-05,1.037488164001843e-05,7.25388701994234e-07,-1.4718435522809159e-05,-1.2111190699215513e-05
-3.5306691188452533e-06,1.9710874767042696e-05,-3.2293326057697413e-06,-1.4219552213035058e-05,-1.6492926988576073e-06
-4.8141382649191655e-06,2.7245556339039467e-05,-2.2419030756282154e-06,-1.5348960005212575e-05,2.791680526570417e-05
-1.960201007022988e-05,2.921093619079329e-05,3.677614586194977e-07,-1.654727748245932e-05,4.714715396403335e-05
-3.404102608328685e-05,2.3851534933783114e-05,3.9426927855856775e-07,-1.7292859411099926e-05,4.92081671836786e-05
-2.7954343750025146e-05,2.317487269465346e-05,-1.194217134070641e-07,-1.5493411410716362e-05,5.112367944093421e-05
-3.9719398614579404e-07,2.3973168936208822e-05,-4.992777462575759e-07,-1.2531201718957163e-05,6.05072891630698e-05
2.173921348003205e-05,2.0262596081010997e-05,-3.6342933071864536e-06,-1.0940462743747048e-05,7.091942825354636e-05
1.244486338691786e-05,1.7523843780509196e-05,-7.928061677375808e-06,-1.1906466170330532e-05,7.428474054904655e-05
-2.8158399800304323e-05,2.3466658603865653e-05,-1.0334628314012662e-05,-1.305625573877478e-05,6.296142237260938e-05
-7.087678386596963e-05,3.8104109989944845e-05,-8.25723327579908e-06,-1.4605810974899214e-05,4.1603867430239916e-05
-8.295438601635396e-05,5.403224713518284e-05,-3.410719045859878e-06,-1.4381614164449275e-05,2.649850102898199e-05
-5.38148196937982e-05,6.427421612897888e-05,1.941523578352644e-06,-1.269546464754967e-05,1.8538248696131632e-05
6.369187417476496e-07,6.563464557984844e-05,4.493700089369668e-06,-1.12030375021277e-05,1.0957121048704721e-05
5.228694499237463e-05,6.0493508499348536e-05,3.971898877352942e-06,-7.436435225827154e-06,1.6754840544308536e-05
7.450737030012533e-05,5.677965236827731e-05,4.2815754568437114e-06,-2.385479092481546e-06,4.042603904963471e-05
6.090073657105677e-05,5.910420077270828e-05,8.408597750531044e-06,1.1857508042112386e-07,7.224277214845642e-05
3.0595489079132676e-05,5.8619596529752016e-05,1.2442008483048994e-05,3.528980982991925e-07,9.984880307456478e-05
6.723400929331547e-06,5.083766518509947e-05,1.2727611647278536e-05,-1.1176902035003877e-06,0.00011717660527210683
-2.9634566089953296e-06,4.400300167617388e-05,1.173662440123735e-05,-2.7235391826252453e-06,0.0001238359254784882
-2.7422604489402147e-06,4.1301889723399654e-05,1.4724077118444256e-05,-1.1191135627086624e-06,0.00012914610852021724
7.851489840504655e-07,3.640376598923467e-05,2.0149183910689317e-05,4.874443220614921e-06,0.0001332554966211319
1.4708615481140441e-06,2.6956129659083672e-05,2.2172605895320885e-05,1.0043739166576415e-05,0.00012377147504594177
-5.5728419283695985e-06,1.5021266335679684e-05,1.9310418792883866e-05,1.1461988833616488e-05,9.104027412831783e-05
-1.455596702726325e-05,1.3002922969462816e-05,1.5865760360611603e-05,1.6665944713167846e-05,3.9768670831108466e-05
-1.5286686902982183e-05,3.220609505660832e-05,1.771222559909802e-05,3.876470873365179e-05,-2.4015800590859726e-05
