-1.4036411812412553e-05,1.399223219777923e-05,5.866806986887241e-06,-2.9656079277629033e-05,4.4646370952250436e-05
-2.0437208149814978e-05,1.591805812495295e-05,-1.073158159670129e-06,-1.7548321920912713e-05,-2.314536686753854e-05
-1.5007248293841258e-05,1.7206908523803577e-05,-1.1103929864475504e-05,-1.4967844435886946e-05,-5.290122135193087e-05
-5.279209744912805e-06,2.0688068616436794e-05,-1.6384512491640635e-05,5.677956778527005e-06,-2.0131183191551827e-05
1.2751968370139366e-06,2.6802848879015073e-05,-1.4526041923090816e-05,8.669460657984018e-05,4.318666833569296e-05
-1.775022838046425e-06,2.9713073672610335e-05,-7.202564120234456e-06,0.00019052083371207118,9.232672891812399e-05
-6.676630619040225e-06,2.5603536414564587e-05,6.4402775024063885e-06,0.0002465893921907991,0.00010799979645526037
-1.8479543086868944e-06,2.3953685740707442e-05,2.61494678852614e-05,0.0002595637342892587,0.00010358997678849846
5.706237061531283e-06,2.9656264814548194e-05,4.4442276703193784e-05,0.00024131344980560243,9.814117947826162e-05
1.0232961358269677e-05,4.399622412165627e-05,5.6533972383476794e-05,0.00018497994460631162,9.504360787104815e-05
9.960152056009974e-06,5.626635538646951e-05,6.15716417087242e-05,7.103631651261821e-05,9.928576764650643e-05
1.0042853318736888e-05,6.425174797186628e-05,6.0072194173699245e-05,-6.774482608307153e-05,0.0001384167990181595
1.7060299796867184e-05,6.959374150028452e-05,5.031156979384832e-05,-0.00016514500021003187,0.00024355866480618715
2.8528285838547163e-05,7.373169501079246e-05,3.0116067136987112e-05,-0.0002186209603678435,0.0003782359999604523
3.875690163113177e-05,7.430146797560155e-05,-2.8152726372354664e-08,-0.00027151545509696007,0.0004369390953797847
4.8390629672212526e-05,6.655443576164544e-05,-2.8550059141707607e-05,-0.0003186314716003835,0.00034962903009727597
5.93173572269734e-05,5.722249989048578e-05,-3.755826401175e-05,-0.0002602344029583037,0.0001660946581978351
6.579908222192898e-05,6.134530121926218e-05,-2.156598748115357e-05,-2.3406528271152638e-05,-2.01795446628239e-05
5.804805550724268e-05,8.867107680998743e-05,5.881890956516145e-06,0.0002676198782864958,-0.00019096070900559425
4.222677671350539e-05,0.00012593739666044712,2.6410754799144343e-05,0.00038970058085396886,-0.00036229362012818456
5.447831790661439e-05,0.000149354716995731,3.321513213450089e-05,0.00029842916410416365,-0.0004255793755874038
0.0001268487685592845,0.0001457469043089077,2.5229453967767768e-05,0.00013007770758122206,-0.00031089887488633394
0.00020850000146310776,0.00012229768617544323,4.018531853944296e-06,-1.3597231145467958e-06,-0.00016121327644214034
0.00018237464246340096,8.929464092943817e-05,-2.250002398795914e-05,-8.366660040337592e-05,-0.00010710696369642392
1.1826944501081016e-05,4.7178094973787665e-05,-4.237637767801061e-05,-0.00015457597328349948,-0.00010337303683627397
-0.0001745012850733474,8.01091573521262e-06,-4.4253189116716385e-05,-0.00019155321933794767,-6.170773121993989e-05
-0.00026008192799054086,-1.4368276424647775e-05,-2.4090602892101742e-05,-0.00014345069939736277,1.6792682799859904e-05
-0.00031048254459165037,-3.3622894989093766e-05,1.1984257071162574e-05,-4.5411361497826874e-05,9.896341362036765e-05
-0.0004608003073371947,-6.041845335857943e-05,4.57509231637232e-05,3.828813078143867e-06,0.00019351756782270968
-0.0006949848029762506,-8.798998896963894e-05,6.165359081933275e-05,-7.725040632067248e-06,0.00027476600371301174
-0.0007824643398635089,-0.00011546031601028517,5.2131475968053564e-05,-5.368437632569112e-05,0.0002973992668557912
-0.000531370344106108,-0.00013876201410312206,1.883289951365441e-05,-0.00011567472392925993,0.0002867738367058337
-8.17629334051162e-05,-0.00013870111433789134,-1.5105986676644534e-05,-0.00014975796511862427,0.0002472834603395313
0.0002282532659592107,-0.00011808895214926451,-3.8773268897784874e-05,-0.00014622021990362555,0.00018064415780827403
0.00025490959524177015,-8.484896534355357e-05,-4.4430653360905126e-05,-0.00010340476001147181,0.00013365046470426023
0.0001489172427682206,-4.985101622878574e-05,-4.0179456846090034e-05,-3.450781514402479e-05,0.00011693252599798143
9.731036698212847e-05,-2.1996431314619258e-05,-3.991574340034276e-05,3.294045745860785e-05,8.603902097092941e-05
0.00012304409756325185,-3.0411083571380004e-06,-4.198028182145208e-05,6.194303568918258e-05,2.9667447961401194e-05
0.00014577260299120098,8.809558494249359e-06,-3.988286334788427e-05,4.430718763615005e-05,-2.3831835278542712e-06
0.00011248364899074659,1.7427228158339858e-05,-3.011752778547816e-05,-9.279357868763327e-07,-8.570605132263154e-06
4.6058725274633616e-05,2.4898341507650912e-05,-1.8632306819199584e-05,-5.19521017849911e-05,-3.1157920602709055e-05
2.9482350782927824e-06,3.326604564790614e-05,-6.426438176276861e-06,-8.646349306218326e-05,-4.575385173666291e-05
1.4860359442536719e-05,4.002798596047796e-05,2.529640596549143e-06,-8.50685901241377e-05,7.602308755849663e-07
6.713626498822123e-05,4.4476448238128796e-05,6.517441306641558e-06,4.9955710892390925e-06,7.961598748806864e-05
0.00010850638500414789,4.417001400724985e-05,1.0320589353796095e-05,0.00020880784722976387,0.00012576926383189857
9.815300290938467e-05,4.181556141702458e-05,2.0976516680093482e-05,0.0004138000658713281,0.00013318672426976264
5.056691952631809e-05,4.218630419927649e-05,3.865011967718601e-05,0.0005049770115874708,0.00013140690862201154
8.465613973385189e-06,4.738567440654151e-05,6.2082581280265e-05,0.0005448090378195047,0.0001332099927822128
-1.3363578545977362e-05,4.858091051573865e-05,8.381313091376796e-05,0.0005824599065817893,0.00014210671361070126
-2.4569146262365393e-05,4.528003410086967e-05,9.213388693751767e-05,0.0004926270339637995,0.00015077429998200387
-3.253864633734338e-05,3.990140976384282e-05,8.351177530130371e-05,0.00021070163347758353,0.0001474773744121194
-3.155654849251732e-05,3.18436068482697e-05,6.196743925102055e-05,-0.00016289901395794004,0.00012252960004843771
-2.245638461317867e-05,2.5869483579299413e-05,2.997173032781575e-05,-0.0005101665738038719,6.882653542561457e-05
-1.7219210349139757e-05,3.0825845897197723e-05,-4.2081856008735485e-06,-0.0007355442503467202,6.757141363777919e-06
-2.6799698389368132e-05,3.9684637158643454e-05,-3.123512215097435e-05,-0.000784748001024127,-1.0555834705883171e-05
-4.603890920407139e-05,3.575567825464532e-05,-4.28965940955095e-05,-0.0006692697061225772,6.916595339134801e-06
-5.428748045233078e-05,2.313636286999099e-05,-5.6026969105005264e-05,-0.000505677773617208,-4.0951297705760226e-05
-4.18248564528767e-05,2.4532602765248157e-05,-6.57037744531408e-05,-0.00033830167376436293,-0.0001342334144283086
-1.3989919352752622e-05,4.374975833343342e-05,-5.139891436556354e-05,-0.0001920330396387726,-0.00014568631013389677
1.2794700523954816e-05,6.411518552340567e-05,-3.3193522540386766e-05,-0.00012095343845430762,-6.829819903941825e-05
2.6729949240689166e-05,7.781055319355801e-05,-2.213526204286609e-05,-8.761541539570317e-05,7.685225682507735e-06
2.2792119125369936e-05,8.229775994550437e-05,-1.7864334949990734e-05,-5.1298986363690346e-05,5.3057243349030614e-05
2.853859996321262e-06,8.028912270674482e-05,-1.9658424207591452e-05,-1.0197144547419157e-05,0.0001120765446103178
-2.1522657334571704e-05,7.148354052333161e-05,-3.118152744718827e-05,1.2975643585377838e-05,0.00018312130123376846
-2.5859922970994376e-05,6.222623051144183e-05,-3.926032513845712e-05,3.0428536774707027e-05,0.00020901690004393458
1.2541281648736913e-06,6.287953146966174e-05,-3.2517011277377605e-05,4.218059257254936e-05,0.00018922511662822217
3.270606976002455e-05,6.907019269419834e-05,-1.5966077626217157e-05,3.572080458980054e-05,0.0001721563166938722
3.159671541652642e-05,6.646817200817168e-05,-1.8951250240206718e-06,7.347849532379769e-06,0.0001596440706634894
-5.7089623624051455e-06,5.195173798711039e-05,2.904517259594286e-06,-2.002109249588102e-05,0.00013517637853510678
-5.4780521168140694e-05,3.1287712772609666e-05,1.0010774076363305e-06,-1.7946735169971362e-05,7.267951150424778e-05
-9.836721437750384e-05,1.0735707292042207e-05,1.7387866364515503e-06,2.6051073291455396e-05,-1.16909423013567e-05
-0.00012331186735536903,1.565107481837913e-06,8.961325875134207e-06,8.780935604590923e-05,-4.8771005822345614e-05
-0.0001071526639861986,6.611682692891918e-06,1.3431968000077177e-05,0.000127207298646681,-1.8371019905316643e-05
-4.855899533140473e-05,1.9650771719170734e-05,1.2076568054908421e-05,0.00013159909576643258,2.7510595828061923e-05
3.252091801186907e-06,3.4139855415560305e-05,9.874790521280374e-06,0.00010609447053866461,5.9823603805853054e-05
1.005922626973188e-06,4.7652851208113134e-05,1.744470682751853e-05,7.283919694600627e-05,0.00010585067502688617
-4.327082569943741e-05,5.461966065922752e-05,3.33729331032373e-05,6.422014848794788e-05,0.000169251041370444
-9.05307533685118e-05,4.851760240853764e-05,4.040038038510829e-05,5.964581941952929e-05,0.00018457609985489398
-0.00012010257341898978,3.496990757412277e-05,3.252555325161666e-05,2.9886807169532403e-05,0.0001113143953261897
-0.00012242025695741177,2.5571489459252916e-05,2.464736098772846e-05,1.9025443179998547e-05,3.164473673678003e-05
-0.00010391022806288674,2.2341280782711692e-05,2.1883746740058996e-05,3.3871936466312036e-05,3.1471645343117416e-05
-6.745147402398288e-05,1.8555292626842856e-05,1.631533268664498e-05,1.432312546967296e-05,0.00010890403063967824
-4.0970549889607355e-05,1.0850252692762297e-05,5.021872311772313e-06,-5.283782593323849e-05,0.00017055289936251938
-4.6906210627639666e-05,-1.8019532035395969e-06,6.940953767298197e-08,-9.398799738846719e-05,0.0001249517808901146
-5.511717245099135e-05,-8.22625315777259e-06,4.038590759591898e-06,-8.521223207935691e-05,-4.069383976457175e-07
-4.0184870158554986e-05,1.2369441719783936e-06,5.083289124740986e-06,-5.695502841263078e-05,-6.791279156459495e-05
2.709512273213477e-06,1.7546008166391402e-05,4.4868539816889097e-07,-2.3631293515791185e-05,-1.868235267465934e-05
4.054923192597926e-05,3.217537232558243e-05,5.895932417843142e-07,4.307077688281424e-06,5.639730079565197e-05
3.941896648029797e-05,3.576167728169821e-05,3.712258831001236e-06,1.4638336324424017e-05,7.22230615792796e-05
6.219930583029054e-06,3.0093511668383144e-05,4.227621957397787e-06,1.3554275938076898e-05,5.651618630508892e-05
-1.9014722056454048e-05,2.694544309633784e-05,1.0794879017339554e-05,1.8997889128513634e-05,7.113566971383989e-05
-2.2878553863847628e-05,2.7216869057156146e-05,2.4396171284024604e-05,3.11690237140283e-05,0.00011298838217044249
-2.6296815121895634e-05,2.6554096621111967e-05,3.3919270208571106e-05,4.0102288039634004e-05,0.0001504367246525362
-4.405296203913167e-05,2.6056617571157403e-05,3.4259566746186465e-05,4.7230445488821715e-05,0.00014850722800474614
-6.23193263891153e-05,2.681277874216903e-05,3.171039134031162e-05,5.764773231931031e-05,0.00010925471724476665
-5.766166214016266e-05,2.199336449848488e-05,3.052572355954908e-05,6.205331010278314e-05,7.220516999950632e-05
-3.453443423495628e-05,9.029169632412959e-06,2.954606679850258e-05,7.109683792805299e-05,3.2953339541563764e-05
-1.753907599777449e-05,-1.1222137800359633e-05,2.1834812287124805e-05,0.00011172028462169692,-4.707143671112135e-05
-1.632530620554462e-05,-3.2906471460592e-05,2.369500407439773e-06,0.00015837543469388038,-0.00014537395327351987
-1.4437207937589847e-05,-4.471071588341147e-05,-2.082269566017203e-05,0.00015234814782161266,-0.000208463694434613
-6.939157174201682e-06,-3.3174146665260196e-05,-3.3364696719218045e-05,9.382858115714043e-05,-0.00023786148813087493
3.0914679882698692e-06,2.8657420898525743e-06,-3.204842141713016e-05,3.209511487511918e-05,-0.00019482418429106474
1.715488724585157e-05,4.3570296838879585e-05,-2.2213951524463482e-05,-1.0028973520093132e-05,-4.0746439481154084e-05
4.1807739762589335e-05,7.21062533557415e-05,-8.746959792915732e-06,-4.269507189746946e-05,0.00012112373224226758
7.078308408381417e-05,8.584810711909086e-05,1.460571183997672e-06,-7.046549580991268e-05,0.00015410580090247095
7.331002416322008e-05,8.389314461965114e-05,2.639571675899788e-06,-9.187111572828144e-05,8.063091081567109e-05
2.992751069541555e-05,7.331816595979035e-05,-2.5333706616947893e-06,-0.00010990424925694242,5.350139326765202e-05
-3.3164928026963025e-05,6.090590977692045e-05,-4.058997546962928e-06,-0.0001115226186811924,0.00013593809853773564
-8.937239181250334e-05,5.331541979103349e-05,5.802157829748467e-06,-6.527308141812682e-05,0.00022412666294258088
-0.00013152709288988262,4.9001118895830587e-05,2.41493689827621e-05,1.695828359515872e-05,0.0001801569014787674
-0.00015722544048912823,3.3536845876369625e-05,3.579244366846979e-05,8.076950325630605e-05,2.8336402465356514e-05
-0.00015296603669412434,1.6784086255938746e-05,3.52621718775481e-05,9.527080692350864e-05,-7.53221393097192e-05
-0.00012263117241673172,2.1375049072958063e-06,3.0144325137371197e-05,7.496125908801332e-05,-5.386142584029585e-05
-0.00010351624223403633,-9.847632099990733e-06,1.758818507369142e-05,7.540630031144246e-05,3.1811792723601684e-05
-0.00010355393897043541,-8.282460839836858e-06,1.7221236703335308e-06,0.00012844151933677495,0.00010497577750356868
-9.468446660321206e-05,3.767398084164597e-06,-1.1706873010552954e-05,0.0001807497174013406,0.00013753795064985752
-4.6179276978364214e-05,1.9276827515568584e-05,-1.8510938389226794e-05,0.00017100558034144342,0.0001452648575650528
3.340451075928286e-05,3.1577797926729545e-05,-1.450967465643771e-05,9.96967064565979e-05,0.00016340776346623898
9.334119386039674e-05,3.821349309873767e-05,-4.438710220711073e-06,-3.870040018227883e-06,0.00020253068942110986
9.501004387857392e-05,3.8584879803238437e-05,3.0586022603529273e-06,-0.00011898196680704132,0.0002305775269633159
4.335211269790307e-05,3.594554800656624e-05,6.123544835645589e-07,-0.00022889564570505172,0.00021685109823010862
-2.49076201725984e-05,3.2818417821545154e-05,-8.703344064997509e-06,-0.00029126968001946807,0.0001689921919023618
-6.771821790607646e-05,2.4738212232477963e-05,-1.5083027392392978e-05,-0.0002652724797371775,8.664937922731042e-05
-7.182256376836449e-05,1.6425350622739643e-05,-9.260768820240628e-06,-0.00017945967556443065,-2.867283910745755e-05
-5.41856607014779e-05,2.3427133783116005e-05,6.160637440189021e-06,-9.469426004216075e-05,-0.0001160546307801269
-3.818241384578869e-05,4.316011109040119e-05,1.9300427084090188e-05,-4.139485827181488e-05,-0.00011068225285271183
-3.0485312890959904e-05,5.700693873222917e-05,2.2601772798225284e-05,-2.6599464035825804e-05,-4.267971598892473e-05
-2.534134910092689e-05,6.21235158178024e-05,2.1990916138747707e-05,-4.001069828518666e-05,9.71861845755484e-06
-2.150168984371703e-05,6.598473555641249e-05,2.513022809580434e-05,-2.9849343263776973e-05,1.4105431546340697e-05
-2.1013636796851642e-05,7.028780964901671e-05,3.695240957313217e-05,6.361079431371763e-05,-7.843216735636815e-06
-1.819723183871247e-05,7.80468835728243e-05,5.3220959671307355e-05,0.00019816299027297646,-2.9771903427899815e-05
-9.776069418876432e-06,8.914768841350451e-05,6.765639409422874e-05,0.0002908700262196362,-3.071949686273001e-05
9.433273589820601e-06,9.850933565758169e-05,8.656724821776152e-05,0.00034305889857932925,5.7192160056729335e-06
4.232026549289003e-05,9.740990935824811e-05,0.00010408173693576828,0.0003425094182603061,4.969380461261608e-05
7.284812454599887e-05,8.233971311710775e-05,0.00010030705743702129,0.00021284680406097323,5.5911696108523756e-05
9.035230323206633e-05,7.393145642708987e-05,6.717971700709313e-05,-4.340190571383573e-05,3.1229189971782034e-06
0.00010257380927214399,8.325630915351212e-05,3.151968849124387e-05,-0.000223540177103132,-8.114999945973977e-05
0.00014001222734805197,8.914720820030198e-05,1.3974130524729844e-05,-0.000215065068914555,-0.000149707862874493
0.00018075172556564212,7.98383480287157e-05,1.4061647561902646e-06,-0.00016229372704401612,-0.00016313839296344668
0.00015796639490872622,6.266203126870096e-05,-2.5630663003539667e-05,-0.00019288375915493816,-5.922261334490031e-05
5.5934764532139525e-05,5.097537359688431e-05,-5.759724081144668e-05,-0.00024557564756833017,0.00012169910769443959
-8.556197280995548e-05,5.17843545821961e-05,-6.43526145722717e-05,-0.00014783238293603063,0.00024523597676306963
-0.00020112651691306382,4.744724719785154e-05,-4.274742605048232e-05,0.0001244915183633566,0.0002546990872360766
-0.000275933591183275,2.035768557107076e-05,-1.2311263162700925e-05,0.00040301508852280676,0.0002263222268084064
-0.0003518614685162902,-3.1282223062589765e-05,2.2275667106441688e-06,0.0004884355585090816,0.0002363955572945997
-0.00042070698691532016,-8.347012044396251e-05,1.3938455367679126e-07,0.00034370954381302,0.00023845008399803191
-0.00039656469016335905,-0.00011551487841643393,-8.251242434198502e-06,8.46317780087702e-05,0.0001704652386251837
-0.00022886809892952442,-0.00012649506970774382,-1.8521561287343502e-05,-0.000171054300153628,6.789625331293792e-05
2.503782638996199e-07,-0.0001165046778623946,-3.320443647680804e-05,-0.0004044841625727713,2.1356114302761853e-05
0.00015553525008726865,-9.11239767447114e-05,-5.1395934860920534e-05,-0.0006087147630751133,6.835089880041778e-05
0.00018293601169716567,-6.231268343981355e-05,-6.754943751730025e-05,-0.0007116628112271428,0.00015354339848272502
0.00010963076783809811,-3.75182535208296e-05,-7.489805284421891e-05,-0.0006514724809676409,0.00019646884175017476
-7.84448639024049e-06,-1.924540993059054e-05,-6.659557402599603e-05,-0.00044179431279189885,0.00017173477681353688
-0.0001103984031942673,-1.0367936738475692e-05,-4.165257269050926e-05,-0.0001855644368333742,0.00010792769899126142
-0.00015586712106596678,-3.0535288715327624e-06,-1.2942995454068296e-05,-2.7346972274244763e-05,4.857243402511813e-05
-0.00013019113976042718,9.372202839585952e-06,-5.6053168009384535e-06,-1.9038252503378317e-05,2.2237811208469793e-05
-4.106384585611522e-05,2.0422452507773414e-05,-2.219038833572995e-05,-7.732603990007192e-05,2.9997399906278588e-05
7.631447078892961e-05,2.5511237254249863e-05,-3.5349363315617666e-05,-0.00011339928460074589,7.220677071018144e-05
0.00015090667875483632,3.243496757932007e-05,-2.447734550514724e-05,-8.945356967160478e-05,0.00014047745207790285
0.00013564641994889826,4.097830242244527e-05,-3.094290832450497e-06,-3.8419475458795205e-05,0.0001820080797187984
6.814361404394731e-05,4.869863187195733e-05,1.364993386232527e-05,-4.242575869284337e-06,0.00017497722001280636
1.2019652785966173e-05,5.333222361514345e-05,1.9781866285484284e-05,3.9535439100291114e-06,0.00014301814371719956
-1.6434518329333514e-05,5.485220754053444e-05,1.7534488506498747e-05,1.1555403943930287e-05,6.849334749858826e-05
-2.6131176127819344e-05,5.3840743930777535e-05,1.3725461030844599e-05,4.5575714466394857e-05,-6.468148058047518e-05
-2.707154635572806e-05,5.1453160267556086e-05,1.5968980733305216e-05,9.951143147191033e-05,-0.0001299236319027841
-2.9276010536705144e-05,4.8107191105373204e-05,2.7439265977591276e-05,0.0001591312320670113,-6.533815030707046e-05
-3.548133827280253e-05,3.7251960748108104e-05,4.673928560805507e-05,0.00021097579156048596,3.2786469091661274e-05
-3.5339173336979e-05,2.957631295430474e-05,6.30430004093796e-05,0.00025507601094432175,9.126884106080979e-05
-1.7241272871615365e-05,4.098475619684905e-05,6.733289774274454e-05,0.00028492638375610113,0.00010381151514593512
2.5557868866599165e-05,6.652379670413211e-05,6.652408046647906e-05,0.000263569934759289,0.00015645736129954457
8.91351664904505e-05,9.26709471968934e-05,6.957933510420844e-05,0.00019155885092914104,0.00026938962400890887
0.00013625578139908612,0.00011000741505995393,6.997291347943246e-05,0.0001114160695578903,0.00036289141280576587
0.00013809544907417148,0.00011550869385246187,5.8422694564796984e-05,6.413010123651475e-05,0.0003553269780240953
0.00011148677003802732,0.00011823536624433473,3.897538044839166e-05,1.4605107935494743e-05,0.00023366918321698904
8.677456935402006e-05,0.00012419784616213292,1.3791903256787919e-05,-7.78630783315748e-05,3.07592999888584e-05
6.0873746406286955e-05,0.00012797584349755198,-1.55930538312532e-05,-0.00018233148148283362,-0.00024301405937876552
6.314793608908076e-06,0.0001186798035632819,-3.7009784136898816e-05,-0.0002140645228791982,-0.0005392487510107458
-8.523743599653244e-05,9.548939851811156e-05,-3.502831532387063e-05,-0.00013224170834291726,-0.0006568148965016007
-0.0001940733491210267,6.346310692606494e-05,-1.8970371456816792e-05,-1.2113276170566678e-05,-0.0004616227524820715
-0.0002815814223140478,2.4297345589729957e-05,-1.0757083146017976e-05,3.192270378349349e-05,-0.00017417572962585837
-0.00031036449945531785,-1.2286995115573518e-05,-1.4662900866824202e-05,-2.1116924472153187e-05,-2.122986006725114e-05
-0.0002796470944304019,-3.244785330025479e-05,-2.1097743228892796e-05,-7.63983407523483e-05,4.611071926774457e-05
-0.00024339025549124926,-3.776201992877759e-05,-2.5922323402483016e-05,-7.994381303433329e-05,0.00013115965703036636
-0.00024078581191133708,-5.143939779372886e-05,-3.086371725657955e-05,-6.718409713357687e-05,0.0002325416571693495
-0.00020719246822409332,-9.271667659049854e-05,-3.4012224205071107e-05,-7.483121589757502e-05,0.0002912766649387777
-7.936089241411537e-05,-0.0001345256605418399,-2.779445276246406e-05,-9.899197175400332e-05,0.00023722473997622728
6.971466791583225e-05,-0.00013258299441076815,-1.6596828572801314e-05,-0.0001238759869011119,0.00010048851981991902
0.000146970953210257,-9.477991261519492e-05,-1.1740588888642378e-05,-0.00010815967107191682,-4.273957529221661e-06
0.0001455394522054121,-5.496191079146229e-05,-1.1131264727737289e-05,-5.3790696256328374e-05,-3.37724995915778e-05
0.00011672935215756297,-2.2019785319571383e-05,-6.727459549438208e-06,3.884896159433993e-06,6.525407115987036e-06
9.354496432933956e-05,3.908287737885985e-07,6.88370462853527e-08,3.9797156205167994e-05,9.882514859782532e-05
6.174670124892145e-05,1.1388872735551558e-05,6.788684913772158e-06,5.275783405522816e-05,0.0001757974678184837
2.1054154785815626e-05,1.5243520465446636e-05,1.011753556667827e-05,5.587731720879674e-05,0.00017501384718343616
-1.2121256077080034e-05,1.2339338354649954e-05,8.105940651148558e-06,5.644783595926128e-05,0.00010650129115674645
-3.386001117178239e-05,1.1723112947947811e-05,7.7294789662119e-06,6.018479689373635e-05,2.4637200112920254e-05
-4.420424738782458e-05,1.6704008885426447e-05,9.511074495094363e-06,6.182132347021252e-05,-8.945072295318823e-06
-4.449893822311424e-05,2.6140534828300588e-05,1.0988041140080895e-05,5.742492066929117e-05,4.9028178182197735e-05
-3.3586431527510285e-05,3.866219412884675e-05,1.341959614364896e-05,5.151343430043198e-05,0.00012005801545456052
-1.5339568562922068e-05,5.028935265727341e-05,1.7251692042918876e-05,4.973021350451745e-05,0.00013012450654059649
-5.535311174753588e-06,5.295727532939054e-05,1.6228461390710436e-05,4.8179292207350954e-05,0.00010370958625571802
-1.0965094588755164e-05,4.975400952389464e-05,1.1146106771775521e-05,4.938102938467637e-05,6.642193329753354e-05
-1.8601265765028074e-05,4.768885992234573e-05,6.595199920411687e-06,6.323151319520548e-05,3.936439679819159e-05
-1.8348086086916737e-05,4.822393020731397e-05,4.879715561401099e-06,9.082145697902888e-05,4.318693754612468e-05
-1.612988671695348e-05,4.864651054958813e-05,4.307919425627915e-06,0.00011457024811534211,7.12490946170874e-05
-1.6619133020867594e-05,4.821382026420906e-05,4.951106802764116e-06,0.0001240879500983283,7.594794442411512e-05
-1.7068152374122292e-05,5.000349483452737e-05,9.330255124950781e-06,0.00012279961083550006,5.4762182116974145e-05
-1.5458237612619996e-05,5.335542664397508e-05,1.5051497030071914e-05,0.00010707110050134361,5.155418693902902e-05
-1.15544362415676e-05,5.644803604809567e-05,1.8432259821565822e-05,8.115419041132554e-05,7.78027024352923e-05
-9.837994184636045e-06,5.586772022070363e-05,1.6779345969553106e-05,5.545996464206837e-05,7.600906974403188e-05
-1.8762171748676337e-05,5.104347656015307e-05,1.1513030585774686e-05,9.726481948746368e-06,-4.681198333855718e-06
-3.155784361297265e-05,4.7020908823469654e-05,9.918650903273374e-06,-5.522588253370486e-05,-0.00011444668052718043
-3.084022318944335e-05,4.98062654514797e-05,1.7009211660479195e-05,-8.41201763250865e-05,-0.00011106936290161684
-1.1268730304436758e-05,5.617140050162561e-05,2.7043364752898924e-05,-4.177552182227373e-05,2.749036684690509e-05
3.8457324080809485e-06,5.766346657765098e-05,3.561420089681633e-05,2.8693551939795725e-05,0.0001408548268955201
-1.0343324902351014e-05,5.455641803564504e-05,3.999084947281517e-05,5.132661681273021e-05,0.00011999104026472196
-4.508070560405031e-05,5.0168713642051443e-05,3.8975398638285697e-05,2.1122134057804942e-05,2.615739322209265e-05
-6.800896517233923e-05,4.1195962694473565e-05,2.96775560855167e-05,-1.8091219317284413e-05,-7.2341358645644505e-06
-5.3964056860422716e-05,3.7073379644425586e-05,1.5950416127452627e-05,-4.299307329347357e-05,5.5209315178217366e-05
-1.578852243255824e-05,4.0938462916528806e-05,4.092332346772309e-06,-7.029150583548471e-05,0.00012159219477325678
1.5396786693600006e-05,4.576447099680081e-05,-4.621454081643606e-06,-9.972482803277671e-05,0.00014824724348727614
2.7817821319331415e-05,4.438358519109897e-05,-9.505221896688454e-06,-0.00010860848851734772,0.0001700271968729794
1.6941352441790514e-05,4.175031426711939e-05,-1.3103079254506156e-05,-9.363287244923413e-05,0.00018842214194592088
-1.8928296412923373e-05,3.9338698115898296e-05,-1.7839382053352892e-05,-6.914902769494802e-05,0.0001824253995437175
-5.647313082590699e-05,3.142114292131737e-05,-1.7968386600841768e-05,-5.657276778947562e-05,0.00013920113269705325
-7.289350469363853e-05,1.783829247870017e-05,-1.1827843081846368e-05,-5.1147653721272945e-05,8.51074219099246e-05
-6.959646998438984e-05,1.0159833436773624e-05,-3.817261585936649e-06,-3.159237894578837e-05,5.045655052526854e-05
-5.535360469366424e-05,1.746073758113198e-05,5.658879672409967e-06,3.4199460969830398e-06,3.6200977774569765e-05
-4.196879672235809e-05,2.6445435651112348e-05,1.1988633559667505e-05,2.6089803213835694e-05,3.392674625501968e-05
-3.3303804229944944e-05,2.8772084988304414e-05,1.1699402421072591e-05,2.324868182768114e-05,4.441245982889086e-05
-2.577210580056999e-05,3.127516538370401e-05,5.3593380471284036e-06,2.4647813461342594e-06,5.059966497356072e-05
-1.4252994333219249e-05,3.995458973804489e-05,-1.5336491969719646e-06,-2.1901945729041472e-05,4.786922727362253e-05
-3.4445499750290764e-06,4.991842797608115e-05,-6.130543170002056e-06,-4.259791967342608e-05,6.302323890849948e-05
2.03500371753762e-06,5.7179484429070726e-05,-9.196873179462273e-06,-5.611552478512749e-05,9.818753460422158e-05
4.180676569376374e-06,5.8288547734264284e-05,-8.838688700052444e-06,-5.7128610933432356e-05,0.00012129953393014148
8.041608907660702e-07,5.2850569772999734e-05,-5.558505563385552e-06,-4.281356086721644e-05,0.00011366610124241561
-9.612762369215488e-06,4.569502198137343e-05,-1.3227876252130955e-06,-2.0812100046896376e-05,7.747253403067589e-05
-2.6601259378367104e-05,3.9902817661641166e-05,2.9988877940922976e-06,-6.582281457667705e-06,2.9520066163968295e-05
-4.9108086386695504e-05,3.233665120205842e-05,6.4859395934036e-06,-5.515611974260537e-06,1.6581591353315162e-06
-7.055688911350444e-05,2.2003792764735408e-05,8.597055966674816e-06,-8.639129191578832e-06,8.545806849724613e-06
-9.274829062633216e-05,8.668822374602314e-06,6.773571385565447e-06,-1.3111309272062499e-05,3.3069172786781564e-05
-0.0001246476313099265,1.4619059811593615e-06,2.699494643820799e-06,-1.7666870917310007e-05,5.480839536176063e-05
-0.0001366164506180212,8.395685654249974e-06,3.4969264106621267e-06,-1.617412817722652e-05,7.064040983095765e-05
-8.92316602403298e-05,1.805359534046147e-05,6.0414481595216785e-06,-1.04479158835602e-05,6.912843673489988e-05
1.2658398190978914e-05,2.0540384866762906e-05,3.4618417430465342e-06,-4.821997208637185e-06,4.77837493235711e-05
7.889279368100688e-05,2.0973733626306057e-05,-4.8195374802162405e-06,-6.251690592762316e-06,3.742616536328569e-05
6.701651000184938e-05,2.420059172436595e-05,-9.93696812656708e-06,-1.1022086255252361e-05,6.740223034285009e-05
2.7482006771606393e-05,2.3579574190080166e-05,-6.576981377293123e-06,-1.2761508514813613e-05,0.00012293094187043607
-6.691293492622208e-06,2.339697311981581e-05,-2.997364390466828e-06,-1.0443103747093119e-05,0.00016227466403506696
-2.0519622921710834e-05,2.695651346584782e-05,-4.2704567704276997e-07,-6.06599542152253e-06,0.00015028633060865104
-2.6839292331715114e-05,2.629357186378911e-05,4.513489329838194e-06,-2.459812321831123e-06,0.0001086044721887447
-2.9528006052714773e-05,2.348603266000282e-05,1.17278268589871e-05,-6.128592531240429e-07,7.316863047890365e-05
-3.268698856118135e-05,2.1792757252114825e-05,2.01190123334527e-05,1.9006043885383406e-06,5.8904966863337904e-05
-3.496513454592787e-05,2.4986517018987797e-05,2.6950807296088897e-05,3.089631263719639e-06,6.44272004137747e-05
-3.6766221455764025e-05,2.9291615646798164e-05,2.8874941563117318e-05,6.579175959586792e-08,8.299871842609718e-05
-3.862109952024184e-05,3.035111876670271e-05,2.6276489734300412e-05,-5.991799753246596e-06,0.00011238472507102415
-3.652603118098341e-05,3.06970723613631e-05,2.2557511329068802e-05,-1.2476543815864716e-05,0.00014868310245219618
-2.8911292247357778e-05,3.390837082406506e-05,2.2149923097458668e-05,-1.6056988897616975e-05,0.00019396819698158652
-1.866248385340441e-05,3.818008553935215e-05,2.2715938030160032e-05,-1.5085784980328754e-05,0.00022985793475527316
-1.4426002962864004e-05,3.7326986785046756e-05,1.8522039681556635e-05,-1.3378584299061913e-05,0.00021109767840243876
-1.7520032997708768e-05,2.9269071092130616e-05,1.131200224335771e-05,-1.4893934348947369e-05,0.00011350025306455791
-2.7957810743828304e-05,1.9975032046204433e-05,5.250083631835878e-06,-1.724244975775946e-05,-9.186102943203878e-06
-3.238542194594629e-05,1.8154862118535675e-05,3.916045443475014e-06,-1.6504152881680056e-05,-0.00010151799506274983
-2.4320543161593378e-05,2.2974425519350916e-05,4.4424809857446235e-06,-1.3645380931848194e-05,-0.00016857523587532341
-1.0679726983653381e-05,2.9972554330015555e-05,3.463516122792498e-06,-1.6997619241010398e-05,-0.00018139273743145168
-7.348400686169043e-06,3.5271546948933974e-05,2.0091640635655494e-06,-2.785559081530664e-05,-0.0001088540448108688
-1.529387191112619e-05,3.375624874024652e-05,-3.258881520196155e-07,-3.298724186606705e-05,-1.6263509678537957e-05
-2.3922419131849892e-05,2.6642102966434322e-05,-4.676513981394237e-06,-2.2524511223309673e-05,4.1408366087125614e-05
-2.1900332285440527e-05,2.4555603886255994e-05,-7.1255394686886575e-06,2.547716348999529e-07,7.290086068678647e-05
-1.1480938155727927e-05,2.601989581307862e-05,-4.58387967228191e-06,3.134724101983011e-05,9.669363498687744e-05
-3.56453506356047e-06,2.5389814254594967e-05,-2.6167792839260073e-06,5.261907426756807e-05,0.00010604107228573412
-6.044097517587943e-06,2.1551986719714478e-05,-6.475789632531814e-06,4.910523057333194e-05,0.00010088655835716054
-1.3095373105898034e-05,1.9146496924804524e-05,-8.642776265332941e-06,3.793793439399451e-05,9.773880447028205e-05
-1.9916562450816855e-05,2.0261601093807258e-05,-4.412918769958196e-06,2.690727706067264e-05,9.772874182090163e-05
-2.31888989219442e-05,2.6433086532051675e-05,-3.590103005990386e-07,3.300778189441189e-06,8.79704239196144e-05
-2.5118886696873233e-05,3.128920798189938e-05,-9.903895943352836e-07,-3.765294604818337e-05,4.999467637389898e-05
-3.693786129588261e-05,2.7318314096191898e-05,-7.5752568591269664e-06,-8.106744644464925e-05,-4.473646640690276e-06
-4.7231769713107497e-05,2.162344208045397e-05,-1.5229679775075056e-05,-9.74692520685494e-05,-3.773703065235168e-05
-4.249218909535557e-05,2.0454646801226772e-05,-1.657477878325153e-05,-7.814948912709951e-05,-1.3487231626641005e-05
-2.7966430934611708e-05,2.1988940716255456e-05,-8.671234354551416e-06,-5.019879245082848e-05,6.090288661653176e-05
-1.5035745491331909e-05,2.1822073904331774e-05,3.0222067834984045e-06,-3.426088369451463e-05,0.00012962605978827924
-9.166706149699166e-06,2.3906206479296088e-05,9.479031177761499e-06,-2.4288858185173012e-05,0.00014958057727199048
-1.119955413741991e-05,3.0465105737675913e-05,8.296436135424301e-06,-1.5620655176462606e-05,0.00012078320287400857
-1.9028258975595236e-05,3.631283834693022e-05,5.7349475355295e-06,-1.1723782336048316e-05,7.948290294734761e-05
-2.741818934737239e-05,3.362307688803412e-05,4.742606051877374e-06,-1.340554536000127e-05,5.617767965304665e-05
-3.0339971999637783e-05,2.597739512566477e-05,3.113692173428717e-06,-1.5684030586271547e-05,5.4777330660726875e-05
-3.104374627582729e-05,1.9937015167670324e-05,1.0190013881583582e-06,-1.2940074157086201e-05,6.060193118173629e-05
-3.282159741502255e-05,1.8042896044789813e-05,1.4748165995115414e-06,-6.757145456504077e-06,6.285878043854609e-05
-3.3196902222698554e-05,2.0139308617217466e-05,4.560850811685668e-06,-5.5788445934013e-06,6.120737089077011e-05
-2.997033516294323e-05,2.4268774723168463e-05,7.892318535596132e-06,-4.626856934919488e-06,5.938241883995943e-05
-2.77015187748475e-05,2.6182204237557016e-05,1.2937899555254262e-05,1.3160804883227684e-05,5.7471457694191486e-05
-3.002896482939832e-05,2.519509507692419e-05,2.1140982426004484e-05,4.9067879444919527e-05,5.5157379392767325e-05
-3.473719334579073e-05,2.2912923668627627e-05,3.162513894494623e-05,8.37380503071472e-05,5.800629878649488e-05
-3.4724049328360707e-05,2.1222844225121662e-05,4.3215928599238396e-05,0.00010128132271347567,6.348028546199203e-05
-2.895285069826059e-05,2.6137362510780804e-05,5.620318552246317e-05,9.283345571020618e-05,6.550636317115277e-05
-2.6057305149151944e-05,3.651716178865172e-05,6.834988744230941e-05,5.550952482735738e-05,7.757238199701533e-05
-2.9054337574052624e-05,4.6864843170624226e-05,7.720076246187091e-05,9.57225410047613e-08,0.00011443521361798048
-3.55772499460727e-05,4.960211299476214e-05,8.407851419178769e-05,1.834215709095588e-06,0.0001506828557467088
-2.9362865461735055e-05,4.540328518487513e-05,9.192969446303323e-05,0.0001433265715604648,0.0001550719898659736
-8.192608333956741e-07,4.2134463001275435e-05,9.243562089977786e-05,0.00031744170701131225,0.00012105116184102371
2.883618071791716e-05,3.926987119484693e-05,7.666314922971651e-05,0.00038122234400361776,5.1591472583822906e-05
4.384307612781413e-05,3.726737850229256e-05,5.532916111405939e-05,0.0003688409342430532,-4.993284528609365e-05
3.674925756058656e-05,4.376268043415621e-05,4.0655686461832374e-05,0.0003358589601702988,-0.00011933075438719243
1.8501288650440983e-05,5.3150648454902694e-05,3.104170900769532e-05,0.00022453759447671473,-0.00013035329175181687
8.856925887812395e-06,5.8243989769835025e-05,2.1439687770907767e-05,3.7317207898013294e-05,-0.000114288050099276
1.0820854186022189e-05,6.037791899871081e-05,-2.0526722437352873e-06,-0.00016469079128000885,-8.965135930338874e-05
1.892089676402975e-05,5.629635415971279e-05,-5.1836286729667336e-05,-0.00034080841578543186,-9.71515619312413e-05
1.07504265542957e-05,4.886173701379448e-05,-0.00010084060340886936,-0.0004259372944943607,-0.00012847724428866059
-2.945876076410059e-05,4.273933882359415e-05,-0.00011875235941261053,-0.00043829125934280455,-0.0001550795859657228
-8.86303823790513e-05,3.7424884794745594e-05,-0.00011138861736981198,-0.0004469017731025815,-0.00016883476928342134
-0.0001623977441340685,3.3221407647943124e-05,-0.00010013043356593698,-0.0004619002575054765,-0.0001411373814335093
-0.0002486728481017053,2.815470907080453e-05,-8.951858762884513e-05,-0.0004106959968339652,-1.7334012227365747e-05
-0.0002775012981146574,2.145476173609495e-05,-7.007792009972036e-05,-0.0002737211179919541,0.00019310685456730425
-0.00017665623454377055,1.2830690138798673e-05,-4.5001554099144414e-05,-0.00012451777001842856,0.0003704271512106061
-1.0372820725024212e-05,3.7263805552356644e-06,-2.59949028986739e-05,-4.274335879017599e-05,0.0004129008448217064
7.347182690864429e-05,-3.4402546589262784e-06,-2.00851536646951e-05,-3.6338500649435446e-05,0.0003521992766764015
2.5684050342533737e-05,-6.745852260792162e-06,-2.2858434022055008e-05,-6.398739060387015e-05,0.00029283392359502614
-7.646303129149601e-05,-7.226036359497812e-06,-2.6200594220426865e-05,-8.953364158514887e-05,0.00027740461518988013
-0.00014322687638923526,-5.6242497521452606e-06,-2.4179018510039896e-05,-9.050812514033169e-05,0.00025314645608887076
-0.00012815016089007258,-3.720585709743318e-06,-1.3039718396612443e-05,-5.733242505812086e-05,0.00019191896717529744
-2.7107562345918268e-05,-3.9557667150802445e-06,5.75115291212569e-06,1.0270322491123807e-05,0.00017126517195720226
9.854177915258333e-05,1.8984198959515197e-06,2.9832739528501406e-05,9.710705489851534e-05,0.00021949308575131
0.0001558156218379736,1.60433555720374e-05,5.5190779676195234e-05,0.0001749859075061977,0.00027842255076393485
0.00011795273167081177,2.863687404897064e-05,6.348410533973947e-05,0.00019482689094729722,0.0003046619240194559
4.8184421757468954e-05,3.124415161437355e-05,5.249731111689471e-05,0.00015656570030841976,0.0002469169266987592
1.4206869309418835e-05,3.202334119123407e-05,3.575354639906436e-05,8.329630509251729e-05,9.339483949588612e-05
1.3933614354755264e-05,3.6879417166346684e-05,1.9959032215410843e-05,2.990712175687804e-07,-6.84512488078326e-05
7.128247489163186e-06,3.742953049368225e-05,3.412751084397314e-06,-8.088939648587257e-05,-0.0001657206885283813
-4.296893621358322e-06,3.4045573556795716e-05,-2.135744216502644e-05,-0.00015110494859982282,-0.0001414297876181081
-1.619500653760042e-05,3.3980228181462735e-05,-3.87092622986529e-05,-0.00016548883286304772,-6.615996971959248e-05
-4.666742461267859e-05,3.627495971159078e-05,-3.710114469868131e-05,-0.00010304387978976592,-5.3012045100331306e-05
-7.337331771850586e-05,3.2485753763467073e-05,-2.3174499801825732e-05,-1.8436508980812505e-05,-6.254735490074381e-05
-7.611733599333093e-05,2.9159962650737725e-05,-5.377715751819778e-06,2.9616025130962953e-05,-6.021935769240372e-05
-6.246990960789844e-05,3.149089388898574e-05,7.723710041318554e-06,3.9271701098186895e-05,-3.3442029234720394e-05
-4.7695706598460674e-05,3.1175793992588297e-05,1.2098089428036474e-05,3.958486195188016e-05,-5.1127267397532705e-06
-4.178399467491545e-05,1.676859574217815e-05,6.724123977619456e-06,4.173233901383355e-05,2.126213803421706e-05
-4.481034557102248e-05,-1.2831339518015739e-05,-2.3779127786838217e-06,3.893084794981405e-05,5.030199827160686e-05
-4.6369412302738056e-05,-3.3135718695120886e-05,-6.247969395190012e-06,3.466822818154469e-05,6.806664896430448e-05
-4.06798608310055e-05,-2.5405994165339507e-05,-1.527183485450223e-06,3.260477751609869e-05,3.58801189577207e-05
-3.142272908007726e-05,3.710387019850714e-08,5.841677193529904e-06,2.2805545086157508e-05,-3.254586772527546e-05
-2.4551130991312675e-05,2.1710100554628298e-05,8.012148100533523e-06,-4.493492269830313e-06,-5.545884414459579e-05
-2.1228575860732235e-05,2.9876418921048753e-05,6.592757017642725e-06,-3.624389864853583e-05,-1.817899101297371e-05
-2.1041216314188205e-05,2.6453035388840362e-05,8.211718522943556e-06,-4.979929144610651e-05,2.3449376385542564e-05
-2.628646689117886e-05,2.0491157556534745e-05,1.3613653209176846e-05,-3.897315400536172e-05,3.3116692065959796e-05
-3.4789700293913484e-05,2.21832833631197e-05,2.0658580979215913e-05,-2.1682293663616292e-05,3.1578085327055305e-05
-4.2846175347222015e-05,3.494906923151575e-05,2.9104292480042204e-05,-1.3913883776695002e-05,4.167242514085956e-05
-4.623143468052149e-05,4.705285027739592e-05,3.856379771605134e-05,-1.2289157893974334e-05,6.42964878352359e-05
-4.24413665314205e-05,4.8844947741599753e-05,4.856088344240561e-05,2.149802185158478e-06,7.073655433487147e-05
-2.9937506042188033e-05,4.652431744034402e-05,6.256467895582318e-05,5.570761641138233e-05,6.055437552276999e-05
-1.1007394277839921e-05,5.3548559662885964e-05,8.142981096170843e-05,0.00016272446373477578,6.917485734447837e-05
1.5650084606022574e-05,7.151322643039748e-05,9.779927495401353e-05,0.00029317146982066333,0.0001030733110383153
3.7396199331851676e-05,8.334562153322622e-05,9.758229862200096e-05,0.0003456475678831339,0.00012115824210923165
2.7826163204736076e-05,7.575906056445092e-05,7.233409996842965e-05,0.0002964397135656327,0.00017583959561306983
1.3619855963042937e-06,6.15224489592947e-05,4.273273589205928e-05,0.0003013672831002623,0.0003020862932316959
-1.1108800208603498e-05,5.653430343954824e-05,3.148886753479019e-05,0.0003608560946304351,0.00037524139042943716
-2.9881061891501304e-06,5.088381658424623e-05,2.4650042178109288e-05,0.00037297679227776825,0.00028916317387484014
2.0077493900316767e-05,4.4865806557936594e-05,-3.5968475913250586e-06,0.00031812311499379575,0.00018331054889131337
2.3404365492751822e-05,5.383911411627196e-05,-3.339570321259089e-05,0.00016022987256292254,0.00012436849647201598
-1.3025395674048923e-05,7.068610284477472e-05,-4.653462383430451e-05,-6.560518522746861e-05,-1.468407117499737e-05
-6.772627966711298e-05,6.94237751304172e-05,-6.0549838963197544e-05,-0.00029455815092660487,-0.00027652093558572233
-9.754093480296433e-05,4.892821016255766e-05,-7.957396155688912e-05,-0.0004737584968097508,-0.0004860543995164335
-7.094049215083942e-05,3.4962271456606686e-05,-8.601118315709755e-05,-0.0005635402048937976,-0.0004440812626853585
2.2477620404970367e-06,3.5993154597235844e-05,-6.766428850824013e-05,-0.0005274841096252203,-0.00024116125132422894
6.775828660465777e-05,3.792667484958656e-05,-4.561217792797834e-05,-0.00038704308099113405,-6.572964775841683e-05
6.590160774067044e-05,3.181347710778937e-05,-4.4105894630774856e-05,-0.00024021744320634753,-2.35574825637741e-05
-2.9402903237496503e-05,2.404529004707001e-05,-5.591966328211129e-05,-0.00016433246491942555,-3.228665082133375e-05
-0.00019887328380718827,2.060331462416798e-05,-5.4382235248340294e-05,-0.0001535897026769817,9.058227306013578e-07
-0.0003558457246981561,1.2197537216707133e-05,-3.712370744324289e-05,-0.00015569124661851674,6.885890616104007e-05
-0.0003758611564990133,-4.4440630517783575e-06,-1.9593113393057138e-05,-0.00014122002176009119,0.00011618942517088726
-0.0002266580268042162,-1.5097640243766364e-05,-7.949455721245613e-06,-0.00010620581451803446,0.00012911717931274325
-3.785874287132174e-05,-8.142556907841936e-06,3.134204007437802e-06,-6.009875505696982e-05,0.00013275304809212685
5.7426124840276316e-05,8.507778147759382e-06,1.354038522549672e-05,-1.9274728401796892e-05,0.00011916208313778043
7.859775359975174e-05,2.026788570219651e-05,1.8392654965282418e-05,-1.962295073099085e-06,7.298759010154754e-05
0.00010103152453666553,2.2939106202102266e-05,1.9402012185310014e-05,2.3450629669241607e-06,3.4509597753640264e-05
0.00010658973042154685,1.5395391528727487e-05,1.7118894902523607e-05,6.6516463448351715e-06,6.153189315227792e-05
5.6952871091198176e-05,2.908812575697084e-06,1.2835518646170385e-05,1.3160561138647608e-05,0.00012310508463997394
-8.649018127471209e-06,-5.247075932857115e-06,1.2073995094397105e-05,1.5705139958299696e-05,0.00015622669889125973
-2.8528615075629205e-05,-7.846254447940737e-06,9.78326079348335e-06,1.8846854800358415e-05,0.0001347879006061703
1.087198711502424e-06,-9.182091162074357e-06,4.392685241327854e-06,2.437048351566773e-05,8.990101923700422e-05
4.280556822777726e-05,-4.407379947224399e-06,5.48631169294822e-06,2.7826454243040644e-05,5.0333092076471075e-05
5.582384983426891e-05,4.435140454006614e-06,1.0043575457530096e-05,2.8727861717925407e-05,4.285312388674356e-05
4.290225842851214e-05,8.976115168479737e-06,1.141358916356694e-05,2.6022960810223594e-05,6.16851684753783e-05
2.0669564037234522e-05,1.154882920673117e-05,1.0265450328006409e-05,2.2699543478665873e-05,9.979860624298453e-05
-1.1937984709220473e-05,1.3183514056436252e-05,9.856003089225851e-06,2.430869972158689e-05,0.00012759360834024847
-4.396637814352289e-05,1.6748421330703422e-05,9.875704563455656e-06,2.6836656616069376e-05,0.00012358986714389175
-5.5328451708192006e-05,2.2199117665877566e-05,1.3558656974055339e-05,2.6262405299348757e-05,0.00010307937918696553
-3.2099796953843907e-05,2.9096721846144646e-05,1.3791069250146393e-05,2.1300398657331243e-05,8.96900164661929e-05
-2.6242835247103358e-06,2.953718649223447e-05,6.449200554925483e-06,1.7301877960562706e-05,9.600992052583024e-05
8.231982974393759e-06,2.2347088815877214e-05,-2.1619550807372434e-06,1.883145159808919e-05,0.00011151195212733
1.3581872053691768e-06,1.8979939341079444e-05,-3.423454472795129e-06,2.413691981928423e-05,0.00012622032954823226
-1.051325580192497e-05,2.151219996449072e-05,8.108289080155373e-07,3.107779775746167e-05,0.0001331472594756633
-1.975589111680165e-05,2.5350344003527425e-05,2.529879566282034e-06,3.964469215134159e-05,0.00012903455353807658
-2.42122114286758e-05,2.8727414246532135e-05,2.0137092633376596e-06,4.824013740289956e-05,0.0001243246515514329
-2.565723298175726e-05,3.2361262128688395e-05,3.953900886699557e-06,5.115322710480541e-05,0.00013395004498306662
-2.9746581276413053e-05,3.370120975887403e-05,5.868315383850131e-06,4.7768957301741466e-05,0.00014245159400161356
-3.513405681587756e-05,3.189305425621569e-05,2.598274022602709e-06,3.896543421433307e-05,0.00012123474880354479
-4.0740047552390024e-05,2.7157042495673522e-05,-2.615124230942456e-06,2.7966814741375856e-05,7.741807348793373e-05
-4.386839646031149e-05,2.5198391085723415e-05,-2.986569143104134e-06,1.6296698959195055e-05,5.393794708652422e-05
-4.3541764171095565e-05,3.142643254250288e-05,5.338758001016686e-06,9.866925211099442e-06,5.853724360349588e-05
-3.9671002014074475e-05,4.3231604649918154e-05,1.8399729015072808e-05,1.019628416543128e-05,6.265573028940707e-05
-3.568849933799356e-05,4.8526802856940776e-05,2.6763327696244232e-05,1.4160320461087395e-05,6.19039565208368e-05
-3.348750033183023e-05,4.465760139282793e-05,2.823334034474101e-05,1.624902870389633e-05,6.803160795243457e-05
-3.46366832673084e-05,4.0639650251250714e-05,3.10321083816234e-05,1.3134645087120589e-05,7.379832823062316e-05
-3.388236655155197e-05,3.9734535675961524e-05,3.3449370675953105e-05,3.6853296023764415e-06,7.496733451262116e-05
-3.1502069759881124e-05,3.793196447077207e-05,3.348304016981274e-05,-4.575785169436131e-06,7.233994256239384e-05
-3.347433084854856e-05,3.419093991396949e-05,3.083644696744159e-05,-7.304648079298204e-06,7.016989547992125e-05
-3.771561023313552e-05,3.366495730006136e-05,2.800681431835983e-05,-9.461537047172897e-06,6.871025107102469e-05
-4.116541822440922e-05,3.548787208274007e-05,2.4975219275802374e-05,-1.2181113561382517e-05,5.9725218306994066e-05
-4.2409199522808194e-05,3.720520908245817e-05,2.1572550394921564e-05,-1.3323643543117214e-05,4.8013771447585896e-05
-4.343830005382188e-05,3.930836828658357e-05,2.0524794308585115e-05,-1.1655461094051134e-05,4.737375274999067e-05
-4.423764767125249e-05,3.7944046198390424e-05,2.2468015231424943e-05,-5.2233253882150166e-06,5.426044299383648e-05
-4.025914313388057e-05,3.6789300793316215e-05,2.7101759769720957e-05,2.9423383693938376e-06,6.202334043337032e-05
-3.337392263347283e-05,4.135251947445795e-05,3.1888885132502764e-05,9.735221283335704e-06,6.620047497563064e-05
-3.0563965992769226e-05,4.4401131162885576e-05,3.397896944079548e-05,1.665830313868355e-05,6.396247044904158e-05
-3.1742529245093465e-05,4.249858466209844e-05,3.25871842505876e-05,2.216299435531255e-05,6.0450478486018255e-05
-3.15520228468813e-05,4.201205956633203e-05,3.0898107070242986e-05,2.4448137992294505e-05,5.962346403975971e-05
-3.2731364626670256e-05,4.3987824028590694e-05,2.823150498443283e-05,1.8873644876293838e-05,5.884987331228331e-05
-3.3053434890462086e-05,4.206690937280655e-05,2.0612547814380378e-05,-9.463074093218893e-06,5.701599729945883e-05
-3.1415031116921455e-05,3.571518027456477e-05,1.045042517944239e-05,-7.137011562008411e-05,5.686371150659397e-05
-2.89115596388001e-05,3.100546746281907e-05,1.9102981241303496e-06,-0.00014006069977767766,6.012421363266185e-05
-2.4252314688055776e-05,3.044029654120095e-05,-2.8093763830838725e-06,-0.00017025212582666427,6.183437653817236e-05
-1.8517755961511284e-05,3.182276486768387e-05,-4.1494799916108605e-06,-0.00015076957060955465,5.863602564204484e-05
-1.6808355212560855e-05,3.3241256460314617e-05,-6.237434718059376e-06,-0.00010596337961032987,5.5162407079478726e-05
-2.1395409930846654e-05,3.3872387575684115e-05,-1.2727189641736913e-05,-6.102953557274304e-05,5.3227689932100475e-05
-2.6007352062151767e-05,3.183213993906975e-05,-2.11479673453141e-05,-1.8999035091837868e-05,5.344615055946633e-05
-2.732320899667684e-05,2.4262737497338094e-05,-2.4926066544139758e-05,2.0762181520694867e-05,5.602629971690476e-05
-2.8035077775712125e-05,1.565474485687446e-05,-2.4966766432044096e-05,5.666601282428019e-05,5.743235305999406e-05
-3.185281821060926e-05,1.2132426491007209e-05,-3.0768176657147706e-05,9.273779869545251e-05,5.392982711782679e-05
-3.434512473177165e-05,1.2392547432682477e-05,-4.000539775006473e-05,0.0001222544815391302,4.964759136782959e-05
-3.520836617099121e-05,2.027359550993424e-05,-3.865032340399921e-05,0.00013522140216082335,4.711324436357245e-05
-3.540269972290844e-05,3.92589827242773e-05,-2.758470145636238e-05,0.00013219313404988497,4.3712938349926844e-05
-3.684600960696116e-05,5.4210147936828434e-05,-1.3515463251678739e-05,0.00012164373038103804,3.918766014976427e-05
-4.260539935785346e-05,5.515499287866987e-05,3.6729250041389605e-07,0.000108310479845386,3.249726432841271e-05
-4.706258187070489e-05,4.7170578909572214e-05,1.3948647392680869e-05,8.423381223110482e-05,2.7924488676944748e-05
-4.113676550332457e-05,3.814299634541385e-05,2.3276612409972586e-05,5.027782390243374e-05,2.9472881578840315e-05
-3.6806490243179724e-05,3.019928772118874e-05,3.090814789175056e-05,1.2892833183286712e-05,3.3864020224427804e-05
-4.0051902033155784e-05,1.636411434446927e-05,4.1482991946395487e-05,-3.2118688977789134e-05,3.484170520096086e-05
-4.363698826637119e-05,-1.3974314470033278e-06,4.6859790018061176e-05,-7.704985910095274e-05,3.165932139381766e-05
-4.490562423598021e-05,-1.2349450116744265e-05,4.863974390900694e-05,-0.00010150389425689355,2.772939478745684e-05
-4.086598346475512e-05,-1.699562562862411e-05,4.663463550969027e-05,-9.573428542353213e-05,2.7635280275717378e-05
-3.527496664901264e-05,-1.9763045202125795e-05,3.820392885245383e-05,-7.203871791716665e-05,3.076452048844658e-05
-2.9429138521663845e-05,-1.8257085685036145e-05,3.063456460949965e-05,-4.365723725641146e-05,3.327318700030446e-05
-1.978756336029619e-05,-1.1837600141006988e-05,3.0433902793447487e-05,-2.2361467927112244e-05,3.823318547802046e-05
-9.424154086445924e-06,-1.917906956805382e-06,3.600155105232261e-05,-1.2670111573243048e-05,4.499147325986996e-05
-5.9194662753725424e-06,9.636720278649591e-06,3.6100118450121954e-05,-2.3065417735779192e-06,5.1894454372813925e-05
-7.137823104130803e-06,1.9470317056402564e-05,2.4318613213836215e-05,1.791382601368241e-05,5.707481250283308e-05
-6.921018211869523e-06,2.3833630621084012e-05,9.474381840846036e-06,3.9792299503460526e-05,6.113520794315264e-05
-2.5635949896241073e-06,2.0797842807951383e-05,2.2705842184223e-06,5.1648414228111506e-05,5.983190203551203e-05
2.467902277203393e-06,1.8984668713528663e-05,3.6183926113153575e-06,5.4222142352955416e-05,5.267207234282978e-05
5.567832886299584e-06,3.122411362710409e-05,7.958160495036282e-06,5.1061066187685356e-05,4.358197838882916e-05
6.495620255009271e-06,5.263856292003766e-05,1.2229250387463253e-05,4.198767419438809e-05,3.303845369373448e-05
5.591522040049313e-06,6.819111877121031e-05,1.561016142659355e-05,2.657203185663093e-05,2.486761695763562e-05
4.356145382189425e-06,7.915067544672638e-05,1.8084885596181266e-05,1.1865875421790406e-05,2.4569792003603652e-05
3.009947022292181e-06,9.332654008176178e-05,1.855612572398968e-05,4.983071448805276e-06,3.063698022742756e-05
-1.9996907667518826e-06,0.00010808668594108894,4.18191120843403e-06,3.053322075174947e-07,3.766160079976544e-05
-1.266783510800451e-05,0.0001161724139819853,-3.230318907299079e-05,-6.784789093217114e-06,4.2453280912013724e-05
-2.471248990332242e-05,0.00010918315092567354,-7.356318383244798e-05,-1.3033974028076045e-05,4.2270949052181095e-05
-3.0468570912489668e-05,8.824906399240717e-05,-9.551556286169216e-05,-1.7693684640107676e-05,3.865464168484323e-05
-3.169877891195938e-05,6.50257061352022e-05,-9.322778350906447e-05,-1.9475519366096705e-05,3.6175621062284335e-05
-3.735509380931035e-05,4.7122481191763654e-05,-7.99928093329072e-05,-2.3207712729345076e-05,3.8825255614938214e-05
-4.4173142669023946e-05,3.354072759975679e-05,-7.622963312314823e-05,-5.250842514215037e-05,4.223905489197932e-05
-4.504790558712557e-05,1.873574910860043e-05,-7.990250014699996e-05,-9.902034071274102e-05,3.98669762944337e-05
-4.325237387092784e-05,5.6050607781799044e-06,-6.782839045627043e-05,-0.0001302227465203032,3.436175029492006e-05
-4.190649633528665e-05,1.0706462489906698e-06,-3.319658208056353e-05,-0.00014669123629573733,3.306517828605138e-05
-3.586709499359131e-05,9.494564778833592e-07,1.002852150122635e-05,-0.00015458175039384514,3.5855315218213946e-05
-3.2013049349188805e-05,3.3442756830481812e-06,4.2561383452266455e-05,-0.00015071620873641223,3.93008413084317e-05
-2.87682305497583e-05,7.2930461101350375e-06,6.150707486085594e-05,-0.0001247249310836196,4.2444386053830385e-05
-1.8088147044181824e-05,1.098974644264672e-05,7.672338688280433e-05,-8.049498137552291e-05,4.613917917595245e-05
-3.1232427772920346e-06,2.047765337920282e-05,9.550467075314373e-05,-3.2141328119905666e-05,5.268846143735573e-05
1.0296663276676554e-05,3.569627369870432e-05,0.00011172841186635196,5.616504950012313e-06,5.9766425692941993e-05
1.807560693123378e-05,3.399796332814731e-05,0.00011431377060944214,2.139807111234404e-05,6.103771738708019e-05
1.7825403119786642e-05,-3.313255092507461e-06,9.971890540327877e-05,1.885708661575336e-05,5.540425991057418e-05
9.226325346389785e-06,-5.751790013164282e-05,7.421106420224532e-05,1.5289651855709963e-05,5.132260776008479e-05
-1.3743106137553696e-06,-8.727765089133754e-05,5.169440555619076e-05,2.6381883799331263e-05,5.705318835680373e-05
-6.916236998222303e-06,-7.497404294554144e-05,3.9436446968466043e-05,4.8324156523449346e-05,6.663817475782707e-05
-5.4400375120167155e-06,-4.9879552534548566e-05,3.6477049434324726e-05,6.82233294355683e-05,7.010972331045195e-05
-4.142692432651529e-06,-3.925288183381781e-05,3.7765843444503844e-05,7.636537338839844e-05,6.963377381907776e-05
-6.291237696132157e-06,-3.71519781765528e-05,3.488269430818036e-05,6.83708130964078e-05,7.266316242748871e-05
-8.217700269597117e-06,-3.170486161252484e-05,2.607269743748475e-05,4.422189886099659e-05,8.2425816799514e-05
-6.577398380613886e-06,-2.248971395601984e-05,1.4608084711653646e-05,1.2636477549676783e-05,9.519846207695082e-05
-6.458093594119418e-06,-1.020446143229492e-05,3.3291776162513997e-06,-1.4560018826159649e-05,0.00010392766853328794
-1.2949783922522329e-05,5.415064947555948e-07,-2.93310063170793e-06,-3.341216506669298e-05,0.00010245646262774244
-1.9110628272756003e-05,4.196237568976358e-06,-6.734519502060721e-06,-4.636721860151738e-05,9.269391739508137e-05
-2.2703503418597393e-05,7.083386662998237e-06,-1.1428078323660884e-05,-5.1088449254166335e-05,8.354932651855052e-05
-2.7175405193702318e-05,1.4998404367361218e-05,-1.2552205589599907e-05,-4.973534669261426e-05,7.781724707456306e-05
-2.8751770514645614e-05,2.6231276933685876e-05,-1.3848018170392606e-05,-4.4842687202617526e-05,7.694625674048439e-05
-2.771381514321547e-05,3.549192479113117e-05,-1.7426385966246016e-05,-4.104709660168737e-05,7.681231363676488e-05
-2.7091689844382927e-05,4.1461451473878697e-05,-2.036128171312157e-05,-4.001863635494374e-05,7.487289985874668e-05
-2.588253846624866e-05,4.265567258698866e-05,-2.2846645151730627e-05,-3.9331593143288046e-05,7.263564475579187e-05
-2.101996142300777e-05,4.438711403054185e-05,-2.1420475604827516e-05,-3.8726746424799785e-05,7.029149128356948e-05
-1.8247344996780157e-05,5.608149876934476e-05,-1.8987280782312155e-05,-4.3141990317963064e-05,6.73849499435164e-05
-2.266075534862466e-05,7.47100348235108e-05,-1.734934267005883e-05,-6.213803862920031e-05,6.439292337745428e-05
-3.0167309887474403e-05,9.697835048427805e-05,-1.8046162949758582e-05,-8.793223241809756e-05,6.375268276315182e-05
-3.8088699511718005e-05,0.00013183434202801436,-1.9030176190426573e-05,-0.00010572831524768844,6.175917224027216e-05
-4.6009630750631914e-05,0.00017649756046012044,-1.587345832376741e-05,-0.0001138180450652726,5.9978490753564984e-05
-5.5545020586578175e-05,0.0002067346649710089,-1.1073735549871344e-05,-0.00011026320862583816,5.494149445439689e-05
-6.637274054810405e-05,0.00021101585298310965,-1.1453483239165507e-05,-9.274503827327862e-05,4.790049933944829e-05
-7.277127588167787e-05,0.00019094048184342682,-1.8152531993109733e-05,-6.80091543472372e-05,4.4995649659540504e-05
-7.431897392962128e-05,0.00015798481763340533,-2.34010203712387e-05,-4.2519226553849876e-05,4.476274625631049e-05
-7.744498725514859e-05,0.00011298133176751435,-2.5781753720366396e-05,-1.8899632777902298e-05,4.5519700506702065e-05
-8.15827224869281e-05,5.718889951822348e-05,-3.2550549804000184e-05,9.802593012864236e-07,4.772735701408237e-05
-8.044928836170584e-05,5.334698926162673e-06,-4.543686009128578e-05,1.6781499653006904e-05,4.838228051085025e-05
-7.222364365588874e-05,-3.560931872925721e-05,-6.044164183549583e-05,3.104796996922232e-05,4.5142067392589524e-05
-6.308390584308654e-05,-6.886023038532585e-05,-7.549678412033245e-05,4.4980100938118994e-05,4.5182907342677936e-05
-5.851448804605752e-05,-9.33630799409002e-05,-8.85703630046919e-05,5.49009237147402e-05,4.93195911985822e-05
-5.361629882827401e-05,-0.00010022814967669547,-9.972561383619905e-05,6.037189086782746e-05,5.292569039738737e-05
-4.6383986045839265e-05,-9.352824417874217e-05,-0.0001028292826958932,6.658453639829531e-05,5.2608320402214304e-05
-4.5165408664615825e-05,-7.689910125918686e-05,-8.51566219353117e-05,6.984572974033654e-05,4.9331832997268066e-05
-4.773882028530352e-05,-4.527393321041018e-05,-4.755106056109071e-05,5.493250137078576e-05,4.786793579114601e-05
-4.4227093894733116e-05,-4.281883150270005e-07,-3.905822723027086e-06,1.8897701011155732e-05,4.716001785709523e-05
-3.610186104197055e-05,2.8958547773072496e-05,3.2403080695075914e-05,-2.650888927746564e-05,4.163933408563025e-05
-2.7421414415584877e-05,2.1313368051778525e-05,5.9541074733715504e-05,-8.865623385645449e-05,3.586799721233547e-05
-1.6233207134064287e-05,-6.254217623791192e-06,8.291569247376174e-05,-0.0001702695299172774,3.609523628256284e-05
-6.33949093753472e-06,-2.5503850338282064e-05,0.00010476519673829898,-0.00022314372472465038,4.200247713015415e-05
-2.900756896906387e-07,-1.040309143718332e-05,0.0001250825880561024,-0.00020769018738064915,5.408640572568402e-05
-1.6841033811942907e-06,3.9478076359955594e-05,0.0001313581014983356,-0.00015342944243457168,6.451060471590608e-05
-1.4263006960391067e-05,7.882940553827211e-05,0.00012353152851574123,-8.884305862011388e-05,6.184569792822003e-05
-3.623781230999157e-05,8.418952347710729e-05,0.00010991268936777487,-7.869506589486264e-06,4.7391535190399736e-05
-5.6729397329036146e-05,6.882047455292195e-05,9.725434210849926e-05,7.471683056792244e-05,3.1442363251699135e-05
-6.875926919747144e-05,4.497529153013602e-05,8.541822171537206e-05,0.0001337345747742802,2.0265155399101786e-05
-7.118872599676251e-05,2.7056077669840306e-05,6.451837543863803e-05,0.00017277957522310317,1.5496685591642745e-05
-6.269162986427546e-05,2.0513620256679133e-05,3.272180038038641e-05,0.0002015253558056429,2.0807139662792906e-05
-5.2560772019205615e-05,2.3695407435297966e-05,6.148707711872703e-07,0.0001997654908336699,2.9425164029817097e-05
-4.7334633563878015e-05,4.329970761318691e-05,-1.5209694538498297e-05,0.00015898479614406824,3.5708246286958456e-05
-4.635533696273342e-05,9.117011359194294e-05,-2.0196184777887538e-05,0.00011488697055028751,4.619337050826289e-05
-4.6816083340672776e-05,0.00016825272177811712,-3.749954339582473e-05,8.602502930443734e-05,6.297937943600118e-05
-4.831804471905343e-05,0.00024953734828159213,-6.581862544408068e-05,6.248537101782858e-05,7.145546987885609e-05
-5.5589927796972916e-05,0.0003002449229825288,-8.319193875649944e-05,2.738873808993958e-05,5.880397657165304e-05
-7.096967601682991e-05,0.00030704072560183704,-8.246483776019886e-05,-1.5237772458931431e-05,3.1550465791951865e-05
-8.34820166346617e-05,0.0002756872563622892,-7.326295599341393e-05,-3.999200271209702e-05,7.68436621001456e-06
-8.222457836382091e-05,0.0002116585528710857,-6.392777868313715e-05,-4.3308744352543727e-05,7.669167985113745e-07
-6.745907012373209e-05,0.00012661814980674535,-4.887107934337109e-05,-4.39315008406993e-05,9.259350008505862e-06
-4.380290556582622e-05,4.7891520807752386e-05,-1.9493976651574485e-05,-4.173968409304507e-05,2.5028048185049556e-05
-1.2727717148663942e-05,-6.076683348510414e-06,1.5580342733301222e-05,-2.1148733139852993e-05,4.3046857172157615e-05
1.644105759623926e-05,-5.5851854995125905e-05,3.6470446502789855e-05,4.175167759967735e-06,6.851194484625012e-05
2.788783240248449e-05,-0.00012893701205030084,4.189291212242097e-05,1.4158612430037465e-05,0.00010064223170047626
1.9863498891936615e-05,-0.00020223739556968212,4.761898162541911e-05,1.8515760530135594e-05,0.00012748513836413622
1.1547832400538027e-05,-0.0002467636950314045,6.389109330484644e-05,2.640423917910084e-05,0.00013590090384241194
1.9202519979444332e-05,-0.00028532222495414317,8.061483094934374e-05,3.242957973270677e-05,0.00012677542690653354
3.648678830359131e-05,-0.0003473015676718205,8.03847360657528e-05,3.557609670679085e-05,0.00011405690747778863
5.757941471529193e-05,-0.00039932550862431526,6.138977187220007e-05,3.122721682302654e-05,0.00011328005348332226
8.165564213413745e-05,-0.00035622803261503577,3.5916622437071055e-05,1.216554574057227e-05,0.00012864000746048987
9.574187424732372e-05,-0.00023839270579628646,8.69470022735186e-06,-2.550137105572503e-05,0.00014489938621409237
9.426917677046731e-05,-0.00014320696936920285,-1.6612468243693e-05,-8.733558206586167e-05,0.0001552572357468307
9.435544052394107e-05,-7.194501085905358e-05,-2.738962575676851e-05,-0.00013777177082374692,0.00015372030611615628
9.613947622710839e-05,5.062258878751891e-06,-2.3356104065896943e-05,-0.00013750822108704597,0.0001448362017981708
7.984379772096872e-05,9.269834845326841e-05,-6.709172794217011e-06,-0.00010543304233578965,0.00013024605868849903
4.694065864896402e-05,0.00017058600496966392,1.9760505892918445e-05,-6.689312431262806e-05,0.00010576049680821598
2.244376446469687e-05,0.00021389455650933087,3.4747266909107566e-05,-4.080239523318596e-05,8.506883023073897e-05
1.7180098438984714e-05,0.00022563683160115033,2.412686444586143e-05,-2.1009465854149312e-05,7.538958016084507e-05
1.9636232536868192e-05,0.0002247471420560032,4.774946091856691e-07,8.662699997330492e-07,7.369651575572789e-05
1.6295780369546264e-05,0.00023049859737511724,-1.84712353075156e-05,1.4733835087099578e-05,6.841059803264216e-05
3.200982973794453e-06,0.00023892454919405282,-3.384174851817079e-05,1.0167891559831332e-05,6.0579372075153515e-05
-1.709225762169808e-05,0.00022389768855646253,-4.555606210487895e-05,2.4688238227099646e-06,5.4148164053913206e-05
-3.824894884019159e-05,0.00019263301510363817,-4.336797428550199e-05,1.724465619190596e-05,5.2175855671521276e-05
-5.849532681168057e-05,0.0001899790804600343,-2.1633321011904627e-05,5.1361432269914076e-05,4.527092460193671e-05
-8.623018220532686e-05,0.00021270370052661747,1.2037273336318322e-05,5.017021612729877e-05,2.9520262614823878e-05
-0.0001182548949145712,0.0002059618418570608,4.1217779653379694e-05,-3.871310400427319e-05,1.2312969374761451e-05
-0.00014028260193299502,0.00015838364197406918,5.325839447323233e-05,-0.00017910524911712855,9.449709637010528e-07
-0.00014181660662870854,0.0001272019580937922,4.652809730032459e-05,-0.00027769440202973783,8.361403160961345e-07
-0.0001225327723659575,0.00013575631601270288,3.1170304282568395e-05,-0.0002853906771633774,7.213369372038869e-06
-9.384932491229847e-05,0.00013522827066481113,1.3780671906715725e-05,-0.00022762527805753052,1.163836623163661e-05
-7.370853563770652e-05,0.00011016423377441242,-4.132267804379808e-06,-0.00013412977568805218,1.4115255908109248e-05
-7.138065120670944e-05,9.54310453380458e-05,-1.5220000932458788e-05,-2.195974775531795e-05,2.606878479127772e-05
-7.892145367804915e-05,6.917719292687252e-05,-2.101112113450654e-05,8.598829299444333e-05,4.596688813762739e-05
-8.454876660834998e-05,4.185375928500434e-06,-3.3789128792705014e-05,0.0001669094926910475,6.33516683592461e-05
-8.427838474744931e-05,-9.273921750718728e-05,-5.1528990297811106e-05,0.00022635016648564488,6.975001451792195e-05
-8.363270171685144e-05,-0.00022201116371434182,-5.744502414017916e-05,0.00027545454213395715,6.272624887060374e-05
-8.186401828425005e-05,-0.00037587128463201225,-3.259483855799772e-05,0.0003032082167919725,4.424524013302289e-05
-6.275026680668816e-05,-0.00046465458581224084,2.4347300495719537e-06,0.0002916048397310078,3.131585253868252e-05
-1.9362645616638474e-05,-0.0004518975329119712,2.1034184101154096e-05,0.00024311328888870776,3.405179813853465e-05
3.7481288018170744e-05,-0.0003710594610311091,2.72607576334849e-05,0.00017509885947220027,4.970727604813874e-05
7.969735452206805e-05,-0.0002468560414854437,3.03046363114845e-05,0.00010652519267750904,6.451377703342587e-05
9.061327727977186e-05,-0.00015531641838606447,3.5242635931354016e-05,5.1412305765552446e-05,7.109821308404207e-05
7.877510506659746e-05,-9.539095481159166e-05,4.144270860706456e-05,1.2805447795471991e-06,7.517058838857338e-05
5.7254015700891614e-05,-4.229107798892073e-05,5.075219814898446e-05,-6.16745455772616e-05,7.329610525630414e-05
4.453336077858694e-05,7.654342937257752e-08,5.975571912131272e-05,-0.00011715407890733331,6.75512565067038e-05
3.978424865636043e-05,5.783917004009709e-06,6.286700227065012e-05,-0.0001340919261565432,6.144634244265035e-05
3.2791034755064175e-05,-4.5612792746396735e-05,5.9629626775858924e-05,-0.00011514173093019053,5.4373926104744896e-05
2.4131813916028477e-05,-0.00010914619633695111,4.950377478962764e-05,-9.012012014864013e-05,5.479746687342413e-05
1.4196572919900063e-05,-8.671058458276093e-05,3.0040575438761152e-05,-7.979338261066005e-05,6.532115367008373e-05
2.5865390398394084e-06,2.5826333512668498e-05,3.391963673493592e-06,-8.140212594298646e-05,7.601176912430674e-05
-1.700325265119318e-05,0.00012746843276545405,-2.9152181014069356e-05,-7.904014637460932e-05,7.565951818833128e-05
-4.6374843805097044e-05,0.00015677540795877576,-5.961496935924515e-05,-5.622582830255851e-05,6.560937617905438e-05
-8.272453851532191e-05,0.0001458203769288957,-6.694985495414585e-05,-1.987238101719413e-05,5.4994961828924716e-05
-0.00012012112711090595,0.0001594586210558191,-4.8931946366792545e-05,2.1929915874352446e-06,4.714685201179236e-05
-0.00014578057744074613,0.00020757262245751917,-3.098914385191165e-05,-4.466498921829043e-06,4.0177113987738267e-05
-0.00014821191143710166,0.0002704092185012996,-2.8267048037378117e-05,-2.1415995433926582e-05,3.459462459431961e-05
-0.00012813137436751276,0.00033630969119258225,-2.8108628612244502e-05,-2.7622783818515018e-05,3.4435455745551735e-05
-9.771501208888367e-05,0.0004011593118775636,-1.0727589142334182e-05,-2.0857718482147902e-05,4.249431731295772e-05
-6.994667637627572e-05,0.0004287176998332143,2.0461846361286007e-05,-1.5343208360718563e-05,5.864359263796359e-05
-4.8098183469846845e-05,0.00039846167783252895,4.4375577999744564e-05,-2.1493493477464654e-05,7.893483416410163e-05
-3.23267413477879e-05,0.000313073891447857,5.7883844419848174e-05,-3.3484910090919584e-05,9.34541312744841e-05
-2.820045847329311e-05,0.000181121940840967,7.115699554560706e-05,-2.852015313692391e-05,9.087654325412586e-05
-2.3507935111410916e-05,2.4218616090365686e-05,7.989982987055555e-05,-7.348092822212493e-06,7.70303959143348e-05
1.620247076061787e-06,-0.00013693301298189908,7.330052176257595e-05,-9.756598956300877e-06,5.879177842871286e-05
3.414105231058784e-05,-0.00028010434471070766,4.853804421145469e-05,-3.0370525564649142e-05,4.5105363824404776e-05
6.105632201069966e-05,-0.00041162772686220706,1.551473542349413e-05,-3.7789432099089026e-05,4.329423973103985e-05
8.166977931978181e-05,-0.00047001440543681383,-1.3040256817475893e-05,-3.4450105886207893e-05,5.0548835133668035e-05
8.669694216223434e-05,-0.0003629376878961921,-3.890940570272505e-05,-2.4648305043228902e-05,6.424356251955032e-05
9.943367331288755e-05,-0.00018765500863082707,-5.52786877960898e-05,-1.7957483578356914e-05,8.046467701205984e-05
0.000136234171804972,-5.041396070737392e-05,-6.143176142359152e-05,-2.880848478525877e-05,9.878410492092371e-05
0.00017024247790686786,3.286703213234432e-05,-6.296534411376342e-05,-6.43976018182002e-05,0.00011453995102783665
0.00017157998809125274,8.838092617224902e-05,-5.5937452998477966e-05,-9.526920621283352e-05,0.00011436430941103026
0.00012959170271642506,0.0001255703973583877,-4.122398604522459e-05,-8.760410855757073e-05,8.760519995121285e-05
6.438728451030329e-05,0.00015177889144979417,-2.326838148292154e-05,-4.861980414716527e-05,4.774810804519802e-05
6.668449259450426e-06,0.00017283408669754863,-7.11771781425341e-06,-9.906694685923867e-06,1.4420746083487757e-05
-5.586937186308205e-05,0.00017969160398934036,1.8298306940778275e-06,1.5839630577829666e-05,-4.549231107375817e-06
-0.0001417905295966193,0.0001864671939983964,3.638770294855931e-06,4.057084152009338e-05,-6.604770078411093e-06
-0.00021528819343075156,0.00021060167637187988,6.232406121853273e-06,7.993447070475668e-05,6.6985444391320925e-06
-0.0002358245401410386,0.0002489682810846716,8.95221182872774e-06,0.00013441222836263478,2.5002624170156196e-05
-0.0002168188220821321,0.0002808988792821765,4.135944891459076e-06,0.00017215621483046561,3.330608524265699e-05
-0.00019578065257519484,0.00030937930569052696,-5.44529802937177e-06,0.00014280102914199233,2.8140198992332444e-05
-0.0001906784891616553,0.0003261441015638411,-8.763762707530987e-06,4.459575575310737e-05,1.8731687305262312e-05
-0.0001998665975406766,0.00033380553941242397,-1.7519994344183942e-06,-4.673488001571968e-05,1.684774542809464e-05
-0.00021062591986265033,0.0003376997774466872,1.3957265764474869e-05,-8.028266893234104e-05,2.409478292975109e-05
-0.00020820103236474097,0.00030495121609419584,2.7571544706006534e-05,-8.898988016881049e-05,3.907841892214492e-05
-0.00018280540825799108,0.00019237420929130167,2.8391119485604577e-05,-0.00011656506831059232,6.58491044305265e-05
-0.0001421364868292585,2.5250337785109878e-05,2.0902944015688263e-05,-0.0001331724924966693,9.521310857962817e-05
-0.00010722663137130439,-0.00013962361845187843,1.0887465577980038e-05,-0.0001170923060271889,9.794070501811802e-05
-8.283486386062577e-05,-0.0002556774124968797,-1.5951605973896221e-06,-0.00011310275294817984,7.206363079603761e-05
-5.4295447625918314e-05,-0.00031296288943849504,-9.547602530801669e-06,-0.00012375967344269156,5.1385552069405094e-05
-2.881210093619302e-05,-0.00032372758141718805,-7.597796411573654e-06,-0.00011679140152409673,5.501389750861563e-05
-1.1222019566048402e-05,-0.0003123680653516203,-7.140043635445181e-06,-0.00010247963655274361,7.078581984387711e-05
2.0800576749024913e-05,-0.0003118387539871037,-1.3233138815849088e-05,-9.07805297174491e-05,8.540353883290663e-05
6.772443157387897e-05,-0.0003382100840099156,-1.743865868775174e-05,-7.937351620057598e-05,9.165654046228155e-05
9.776074148248881e-05,-0.0003651693696156144,-1.4590115824830718e-05,-6.0033642512280494e-05,8.742014324525371e-05
9.414581290911883e-05,-0.0003452755918260664,-6.9592188083333895e-06,-2.908701208070852e-05,7.453326543327421e-05
7.452685531461611e-05,-0.0002366040862398222,-3.5287112041260116e-06,5.0593716878211126e-06,6.46981643512845e-05
5.889304156880826e-05,-5.727011011913419e-05,-8.365983376279473e-06,2.5452458430663683e-05,6.413168739527464e-05
4.7434394218726084e-05,0.00010849959653569385,-1.9299521227367222e-05,1.9251605408499017e-05,6.17898695054464e-05
3.5971963370684534e-05,0.00020364478405099362,-2.576961378508713e-05,4.364900178188691e-06,5.396847700467333e-05
2.652417606441304e-05,0.0002455136855132878,-2.2244408683036454e-05,5.849342983310635e-07,5.005896673537791e-05
2.178174509026576e-05,0.000270659540547058,-1.3082319128443487e-05,8.605238690506667e-06,5.610463267657906e-05
2.205844793934375e-05,0.0002857237122952938,-3.6790440844924888e-06,1.896770299936179e-05,6.62494421703741e-05
2.563888301665429e-05,0.00028158025816082954,4.543014711089199e-06,2.381118065386545e-05,7.584551349282265e-05
2.6450101358932443e-05,0.0002449176972731948,1.348642854281934e-05,2.3447653802577406e-05,8.156796684488654e-05
2.215415042883251e-05,0.0001762587926350534,2.4218912585638463e-05,2.2430212993640453e-05,8.001684182090685e-05
1.2504197002272122e-05,8.93740143510513e-05,3.315131107228808e-05,2.010950629482977e-05,7.395392458420247e-05
-1.2083299225196242e-05,2.240353069282719e-06,3.440131331444718e-05,1.3945321370556485e-05,6.710657908115536e-05
-5.91775678913109e-05,-7.858555909479037e-05,2.9746757718385197e-05,5.402913757279748e-06,5.820365186082199e-05
-0.00011234941484872252,-0.00014560365525539964,2.486600715201348e-05,-1.4321441312858951e-06,4.830817488254979e-05
-0.00014197225391399115,-0.00017731431580614299,2.388985922152642e-05,-4.568205440591555e-06,4.282860390958376e-05
-0.00014193018432706594,-0.00015212719154078513,2.5156314222840592e-05,-5.495840014191344e-06,4.1151117329718545e-05
-0.0001343752519460395,-8.981188148027286e-05,2.6029598302557133e-05,-4.5889592001913115e-06,4.0824943425832316e-05
-0.0001349302037851885,3.312150511192158e-05,2.6602290745358914e-05,-2.845692733899341e-06,4.835082290810533e-05
-0.00013330466754268855,0.00029045785777270794,2.8422386094462126e-05,1.9247504496888723e-06,6.12258372711949e-05
-0.00011481163528515026,0.0006486508063971996,3.096848013228737e-05,1.4545174963132013e-05,7.095098408171907e-05
-8.83006869116798e-05,0.0009472536621615291,3.2057017961051315e-05,2.587493509054184e-05,7.478491170331836e-05
-6.822480645496398e-05,0.0010318888816982508,2.8882397600682452e-05,2.530589517846238e-05,7.607406587339938e-05
-4.5968376070959494e-05,0.0008999435231089592,2.5470229957136326e-05,6.194118213898037e-06,7.797263970132917e-05
-8.824872566037811e-07,0.0006723276455886662,2.0534829673124477e-05,-4.386900400277227e-05,7.728809578111395e-05
5.910161053179763e-05,0.00037051833351142704,8.520360097463708e-06,-0.00012011986837023869,7.45835859561339e-05
8.495187648804858e-05,-5.743094334320631e-06,-8.368673661607318e-06,-0.00020388692792039365,7.218994869617745e-05
3.516306969686411e-05,-0.0003740978136193007,-2.3961483748280443e-05,-0.0002556188264861703,6.617416511289775e-05
-5.858748409082182e-05,-0.0006385930464603007,-3.2129406463354826e-05,-0.0002477660309523344,5.479392348206602e-05
-0.000131311928271316,-0.0007812897092662752,-3.162578650517389e-05,-0.0001909754064399749,4.422009442350827e-05
-0.0001736973354127258,-0.0008610181976109743,-2.777990812319331e-05,-0.0001095533516490832,3.9801358070690185e-05
-0.00019158913346473128,-0.0008843341493047774,-2.1716730771004222e-05,-3.0406221412704326e-05,4.0632367017678916e-05
-0.00018123739573638886,-0.0008468426531180739,-1.355336917185923e-05,4.231333878124133e-05,4.587830335367471e-05
-0.00012729155423585325,-0.0007191370241343975,-3.752456677830196e-06,0.0001106345298467204,5.3681829740526155e-05
-3.523870327626355e-05,-0.0004884502268396318,6.942353593331063e-06,0.00017259347077924758,6.419083365472034e-05
5.432475154520944e-05,-0.0002042484557023272,1.7216163541888818e-05,0.00021947699133306742,7.531370647484437e-05
0.00010590891179163009,3.376812310307287e-05,3.1989482522476465e-05,0.00024240525090135634,7.584824197692797e-05
0.00011553436343092471,0.0001466952817281708,5.009380402043462e-05,0.0002419519005343318,6.245225085876882e-05
0.0001024791708914563,0.00016396264254581183,6.381414277711883e-05,0.00021787043078802526,4.7592468035873026e-05
9.029725333675742e-05,0.0001827238011173904,6.723393744323403e-05,0.00016866647638380527,3.869594365824014e-05
9.910941298585385e-05,0.00024914887035265565,6.173319707158953e-05,0.0001146461145253852,3.8123238482512534e-05
0.00013352170935831964,0.0003061259922105819,5.2864990720991045e-05,7.969929720275104e-05,5.020738171879202e-05
0.0001811196270864457,0.00025699904654175043,4.284214082872495e-05,5.9918369515798986e-05,6.571697304025292e-05
0.00021627098612952977,8.796064503258094e-05,2.493713327567093e-05,4.5285058149602264e-05,6.27803456154652e-05
0.00022952562721911818,-7.684930460527539e-05,-8.812497185317625e-07,3.3587108191568404e-05,4.247516699251719e-05
0.00022163080575410277,-0.000153934393892996,-2.2258465833147056e-05,2.395037517999299e-05,2.860936729121022e-05
0.00019037282618228346,-0.0001558014191687107,-3.0427308956859633e-05,9.591995876689907e-06,3.454797843005508e-05
0.0001525052502984181,-0.00010950621799565852,-2.9619421184179373e-05,-2.0764113287441432e-05,5.578094351221807e-05
0.00012237223563715816,-6.4470135839656e-05,-2.4484343157382682e-05,-5.515735756489448e-05,7.158649532357231e-05
8.554401574656367e-05,-5.3573050536215305e-05,-2.155924084945582e-05,-6.760407995898277e-05,7.009109685895965e-05
5.510091796168126e-05,-5.8808309404412284e-05,-2.2038047973182984e-05,-5.768940900452435e-05,6.33874733466655e-05
3.580166958272457e-05,-3.879495125147514e-05,-1.7919808669830672e-05,-5.050640174886212e-05,6.813841173425317e-05
1.0365646630816627e-05,1.2562567462737206e-05,-1.1166429430886637e-05,-7.340821321122348e-05,7.936533074826002e-05
-3.0208915632101707e-05,5.130017234478146e-05,-5.427255473477999e-06,-0.00011031806207029149,7.917440962046385e-05
-7.35930516384542e-05,6.204973033163697e-05,-1.9041400491914828e-06,-0.00012491796223912388,6.507402576971799e-05
-0.00010653392382664606,2.8964544981135987e-05,-2.0054274330050248e-07,-0.00011419669317547232,4.632389754988253e-05
-0.00013581538223661482,-2.70230884780176e-05,-4.312382628768319e-08,-9.358292300021276e-05,2.6809981136466376e-05
-0.00016026038792915642,-5.575748946284875e-05,2.7527130797011523e-08,-6.933121039764956e-05,1.585137033544015e-05
-0.00018356426153331995,-4.61410018033348e-05,1.3258439821584034e-06,-4.3905249185627326e-05,1.6523896192666143e-05
-0.00019420453463681042,9.786465682282142e-08,6.227766334632179e-06,-1.7089570974349044e-05,2.4899642085074447e-05
-0.00018497148994356394,8.022086694836617e-05,1.1719484973582439e-05,9.565955224388745e-06,3.651042788987979e-05
-0.00016211542242672294,0.00018735346384346485,1.4364210073836148e-05,3.247788117732853e-05,4.903424996882677e-05
-0.0001334181142738089,0.00030125988996587694,1.5746392818982713e-05,5.2104456699453294e-05,5.939045513514429e-05
-0.00010982334788423032,0.00036657904274761677,1.8056382032227702e-05,6.933176337042823e-05,6.265524280024692e-05
-9.769910684553906e-05,0.0003267641004640609,2.19942976400489e-05,7.627061131643131e-05,5.9852362028323114e-05
-9.608290565665811e-05,0.00021931515948381275,2.4528117137379013e-05,6.384345033438876e-05,5.396065898821689e-05
-0.000101734149211552,0.00014335947344079614,2.3106857042876072e-05,3.676251071738079e-05,4.980432640877552e-05
-0.00011111488856840879,0.00015278757200576365,1.703348425508011e-05,7.515333436458604e-06,5.379057620302774e-05
-0.00012294652697164565,0.00021462849690578878,1.0679611477826256e-05,-1.3129060789651703e-05,6.542454502778128e-05
-0.00014291165280155838,0.00027065444737672806,8.176145456673112e-06,-2.214507185271941e-05,6.911681703059003e-05
-0.00016920735652092844,0.0003263885446358472,7.191285021690419e-06,-2.4102155293803662e-05,5.883864650968462e-05
-0.0001942482776939869,0.00041934731416404247,4.2930346353386994e-06,-2.5417602955712937e-05,4.589626769302413e-05
-0.00021483382442966104,0.000503439106978476,2.8483236746978946e-06,-2.5038154490175657e-05,4.130367960897274e-05
-0.00023371231509372592,0.0004912068252451718,3.862056928483071e-06,-2.1129922970430925e-05,4.775884735863656e-05
-0.0002386060223216191,0.00035561859840527177,3.823412043857388e-06,-1.6628624507575296e-05,6.030146323610097e-05
-0.0002237823064206168,0.00015548127703368664,3.2720577110012528e-06,-1.2240013347764034e-05,6.645869871135801e-05
-0.00019793679530266672,-5.992937440169044e-05,8.411710155087349e-07,-1.075903946912149e-05,6.446620682254434e-05
-0.000163069402333349,-0.00020313012646511197,-1.193620050798927e-06,-1.0791066415549722e-05,6.244242104003206e-05
-0.0001282997109228745,-0.0002281678607687354,5.571723704633769e-06,-3.732311597559601e-06,6.462190503953025e-05
-9.750076424097642e-05,-0.00020923884585499763,1.6398262232542038e-05,4.875354079558747e-06,7.276171527337283e-05
-6.128640961833298e-05,-0.00020899876835756004,2.188624239352066e-05,8.152991540555377e-06,8.877064828993753e-05
-5.558826615015278e-06,-0.00025470342370681465,2.1487614503712393e-05,-1.0504528518140432e-06,0.00010373550321673974
5.8265919506084174e-05,-0.00034170126309618354,1.975846680579707e-05,-2.1362764528021216e-05,0.0001080088404705748
9.395530651090667e-05,-0.00042449324973858893,1.7571170246810652e-05,-3.845849641948007e-05,9.96563903754577e-05
9.93193025351502e-05,-0.00035167226451449096,1.4893841580487788e-05,-4.7376011934829876e-05,8.61366352182813e-05
9.0482433733996e-05,-9.25842541619204e-05,1.0640465916367248e-05,-4.899486884824e-05,7.672807987546548e-05
7.24127676221542e-05,0.000172676591319032,6.44544934402802e-06,-4.516350236372091e-05,7.22640470485203e-05
5.206384594202973e-05,0.0002651865652296692,5.420984962256625e-06,-3.9856484363554046e-05,7.09161176928319e-05
3.495716373436153e-05,0.00019149025320075452,4.713069301942596e-06,-3.2614043448120356e-05,6.719533121213317e-05
2.9220063879620284e-05,9.030730143422261e-05,2.6813556814886397e-06,-2.050440525636077e-05,6.164015940157697e-05
4.055672980030067e-05,6.996352749411017e-05,2.014377969317138e-06,-5.509532002179185e-06,5.688220335287042e-05
6.560085603268817e-05,0.00011630114022409543,4.292895482649328e-06,6.109397872933187e-06,5.682211849489249e-05
9.000497811939567e-05,0.00016310415230691433,7.4607005444704555e-06,9.29417547013145e-06,6.224113167263567e-05
9.985683573177084e-05,0.0002052146737696603,1.0332645615562797e-05,6.592116733372677e-06,6.746706640115008e-05
9.889117791317403e-05,0.0002495750959496945,1.1306211490591522e-05,2.2519941467180615e-06,6.845074676675722e-05
0.00010415842552902177,0.00025561434449627995,9.17483339435421e-06,-6.345773272187216e-06,6.627866241615266e-05
0.00013327741180546582,0.00017734321590978652,4.827987595490413e-06,-2.1055317120044492e-05,6.416567339329049e-05
0.00018372543854638934,5.202678221394308e-05,3.034204382856842e-06,-3.8151345506776124e-05,6.407333421520889e-05
0.00022320229618344456,-7.758286665193737e-05,2.4653224954818143e-06,-5.538843106478453e-05,6.378885154845193e-05
0.0002268368989462033,-0.00019635327043943107,-3.090864538535243e-06,-6.450138607760891e-05,6.182453216752037e-05
0.00019710508058778942,-0.0002622870379127562,-1.1882635590154678e-05,-6.170287088025361e-05,6.039573054295033e-05
0.00015432582586072385,-0.0003002346493303776,-1.3358014257391915e-05,-5.91179596085567e-05,5.752745346399024e-05
0.0001108294673031196,-0.000382019963581115,-1.0374800694989972e-05,-6.591480632778257e-05,5.293994036037475e-05
5.911982589168474e-05,-0.00043883698526769876,-1.2437943951226771e-05,-7.244138396345079e-05,4.8189849621849135e-05
2.082976425299421e-05,-0.00037081478512845933,-1.7732321794028394e-05,-7.008548709563911e-05,4.0045782952802256e-05
1.4511298104480375e-05,-0.00022359410650096834,-2.232651604572311e-05,-6.13825031905435e-05,2.9541990443249233e-05
2.9276123314048164e-05,-8.486578735755756e-05,-2.2427517251344398e-05,-4.6073011617409065e-05,2.496164415788371e-05
5.55894584977068e-05,-3.278644840065681e-07,-2.199545269832015e-05,-2.3256323402165435e-05,2.8486108931247145e-05
7.696305692661554e-05,3.078890949836932e-05,-2.3464632249670103e-05,-1.0292876595485723e-06,3.2330965041182935e-05
7.029779226286337e-05,6.776957161491737e-05,-2.428532206977252e-05,-1.0944092991849175e-06,3.130175173282623e-05
3.487268622848205e-05,0.00010603667760733515,-2.390805457253009e-05,-2.000416316150222e-05,2.7202459023101255e-05
-3.478385451671784e-06,0.0001276124530704692,-2.0178049453534186e-05,-3.39775942848064e-05,3.0659688491141424e-05
-3.764049324672669e-05,0.00013676990056410432,-1.3374179616221227e-05,-3.946432116208598e-05,4.5401178795145825e-05
-7.366939098574221e-05,0.00014498477685265243,-6.6798238549381495e-06,-3.695765190059319e-05,6.417612166842446e-05
-9.933336696121842e-05,0.00014731254486832768,-1.276614170819812e-06,-2.9385390007519163e-05,8.020114910323173e-05
-9.886120824376121e-05,0.00014154471864458174,4.741519205708755e-06,-2.0490095266723074e-05,8.935192454373464e-05
-8.047051233006641e-05,0.00011936394730582833,1.1358722076693084e-05,-1.1005092346749734e-05,8.753349538892508e-05
-6.648748967563733e-05,8.322665962623432e-05,1.6458143363706768e-05,-9.673340173321776e-07,7.462240319000557e-05
-6.921261956449598e-05,5.794371827505529e-05,1.7801310605136678e-05,6.485295216407394e-06,6.309439777396619e-05
-8.503435674356297e-05,5.353461892809719e-05,1.661335045355372e-05,7.3848918873409275e-06,6.284716073423624e-05
-0.00010429582471260801,6.477255374193192e-05,1.6723715816624463e-05,4.150607765041059e-06,6.735178612871096e-05
-0.0001234820083482191,7.912549335742369e-05,1.7483074771007523e-05,2.8930044209118932e-06,6.598916661459953e-05
-0.00014549972547683865,9.360029071103781e-05,1.6118081475724466e-05,2.6267837256455095e-06,5.835264528286643e-05
-0.00016981334192678332,0.0001061690054484643,1.4962721252231859e-05,6.73044837640191e-08,4.912873555440456e-05
-0.0001835949078667909,0.00012639336637221277,1.398238237015903e-05,-3.877392828144366e-06,4.1972860344685614e-05
-0.0001773075491655618,0.000136864633532241,1.3364838196139317e-05,-7.189963525888743e-06,3.9237300370587036e-05
-0.00016340827278327197,0.00012738168879877776,1.1769234333769418e-05,-4.3591021494648885e-06,4.327372880652547e-05
-0.0001512478629592806,0.00010532831947784871,4.680205620388733e-06,2.5932583866961068e-06,5.080815753899515e-05
-0.00013753054372500628,9.202757064485922e-05,-3.979071152571123e-06,4.557130523608066e-06,5.707362652174197e-05
-0.00012712010357063264,8.444822015007958e-05,-8.119224730762653e-06,2.330853703824687e-06,5.7689565437613055e-05
-0.0001209143883897923,7.663735595997423e-05,-1.693041895123315e-06,1.7874688182928367e-06,5.342799340724014e-05
-0.00011353711306583136,7.155680941650644e-05,1.2365957445581444e-05,5.4620668379357085e-06,5.0776798161678016e-05
-0.00010120925435330719,7.565456326119602e-05,2.38004340644693e-05,9.102003787120339e-06,5.335865353117697e-05
-8.846569107845426e-05,7.53505082684569e-05,2.7068967028753832e-05,9.357987437397242e-06,5.898195377085358e-05
-7.995239138836041e-05,5.0842772907344624e-05,2.707070962060243e-05,8.986835382529534e-06,6.158550240797922e-05
-7.34820932848379e-05,5.947930276306579e-06,3.1273128115572035e-05,5.765111836808501e-06,6.144705548649654e-05
-6.425010360544547e-05,-2.5358787752338685e-05,3.9255864976439625e-05,5.0123935579904355e-06,6.28176931058988e-05
-5.343800876289606e-05,-3.371008642716333e-05,4.4814831198891625e-05,8.053198143898044e-06,6.460461736423895e-05
-5.008254447602667e-05,-2.407543252047617e-05,4.514332249527797e-05,1.1143686606374104e-05,6.513166590593755e-05
-5.814289761474356e-05,-6.920309374436329e-07,4.5006170694250613e-05,1.0737390766735189e-05,6.321018736343831e-05
-7.65969161875546e-05,2.375809162913356e-05,4.662682840717025e-05,7.3262940532003995e-06,5.984531526337378e-05
-9.503825276624411e-05,3.230167931178585e-05,4.5138414861867204e-05,2.584411504358286e-06,5.928210521233268e-05
-0.00010333868704037741,2.4947838028310798e-05,3.776109224418178e-05,-1.7686188584775664e-06,6.0731443227268755e-05
-0.00010054602898890153,2.8115724489907734e-05,2.9915003324276768e-05,-4.444331807462731e-06,6.352319906000048e-05
-8.963198342826217e-05,5.649240847560577e-05,2.652772491273936e-05,-3.419361519263475e-06,6.74783150316216e-05
-7.510227442253381e-05,9.41520556807518e-05,2.4980368834803812e-05,1.5380666127384757e-06,7.036584429442883e-05
-6.068504444556311e-05,0.00011147262557642534,2.0967741875210777e-05,5.989249075355474e-06,7.284266757778823e-05
-4.6971596020739526e-05,0.00011134293890791014,1.7647294953349046e-05,5.477291324496036e-06,7.65004733693786e-05
-3.009135434695054e-05,9.780663822311908e-05,1.4988870134402532e-05,-7.861973472245154e-07,7.955782348290086e-05
-8.109229383990169e-06,5.449272794066928e-05,6.508100341306999e-06,-9.948093065759167e-06,7.618002564413473e-05
1.5237737898132764e-05,3.0326927458190767e-07,-6.72557780490024e-06,-2.081644197460264e-05,6.636812031501904e-05
3.4018379665212706e-05,2.53498692472931e-05,-1.6572477761656046e-05,-2.9053213438601233e-05,5.825640255352482e-05
4.853562859352678e-05,0.0001327266072621569,-1.891537249321118e-05,-3.316238507977687e-05,5.7686076615937054e-05
6.305481656454504e-05,0.00021307218412403017,-1.706121656752657e-05,-3.286308128735982e-05,6.340294930851087e-05
7.191763870650902e-05,0.00022599747171625495,-1.5724879631306976e-05,-3.025383921340108e-05,7.270953938132152e-05
6.76616036798805e-05,0.0001994016784010455,-1.4959968211769592e-05,-3.139154796372168e-05,8.243392949225381e-05
4.7660356358392164e-05,0.00014795265451539308,-1.616578083485365e-05,-4.7297282435465604e-05,8.395756594836712e-05
7.728890523139853e-06,9.839895210461691e-05,-1.812775371945463e-05,-6.860148278065026e-05,7.06403297954239e-05
-3.5685206967173144e-05,8.603666356066242e-05,-1.895692912512459e-05,-6.866332842037082e-05,5.510952905751765e-05
-4.835466097574681e-05,5.357533154892735e-05,-1.791917202353943e-05,-4.972859096596949e-05,5.0484188250266016e-05
-2.797927663777955e-05,-8.119961421471089e-05,-1.7189144273288548e-05,-3.3052321668947116e-05,4.9422123993281275e-05
-4.349863502284279e-06,-0.00018701063527259976,-1.890090061351657e-05,-2.448239865771029e-05,4.8856505600269884e-05
6.056565325707197e-06,-0.00013399186718743294,-1.8157494196202606e-05,-1.9798406356130727e-05,5.074079308542423e-05
6.436928742914461e-06,1.822220724534418e-06,-1.7945356376003474e-05,-9.268705071008299e-06,5.260942634777166e-05
6.59644274492166e-06,8.819803042570129e-05,-1.6937936379690655e-05,8.787565093371086e-06,5.3005667723482475e-05
8.224890734709334e-06,8.819771028356627e-05,-9.866545042314101e-06,2.6045749109471217e-05,5.551998765440658e-05
1.736422632347967e-06,5.119486013427377e-05,-4.056767295423924e-07,3.6141485907137394e-05,5.5644391977693886e-05
-1.4494022252620198e-05,1.6281113857985474e-05,5.977262389933458e-06,3.988079697592184e-05,5.205336128710769e-05
-3.3630400139372796e-05,-1.890982275654096e-05,9.78938533080509e-06,3.740468673640862e-05,4.816430009668693e-05
-4.459136471268721e-05,-6.29014684818685e-05,1.2237574082973879e-05,3.125974762951955e-05,4.4810403778683394e-05
-3.889690924552269e-05,-9.170773410005495e-05,1.2476414667617064e-05,2.6634523237589747e-05,4.42672026110813e-05
-1.564997910463717e-05,-9.295402560383081e-05,9.982763913285453e-06,2.307770228071604e-05,4.6341781853698194e-05
1.5233831618388649e-05,-8.322930807480589e-05,8.572524166083895e-06,1.996854552999139e-05,4.893866935162805e-05
3.940022725146264e-05,-7.585064304294065e-05,1.2988521120860241e-05,1.744255678204354e-05,5.03667579323519e-05
5.1549919589888304e-05,-6.399363337550312e-05,1.953735772985965e-05,1.8097673091688193e-05,5.1628099754452705e-05
5.436681385617703e-05,-4.1821251215878874e-05,2.280845001223497e-05,1.9830200471915305e-05,5.4511550843017176e-05
4.2796214984264225e-05,-1.7587719412404113e-05,2.107693399011623e-05,1.5827312381588854e-05,5.748484909418039e-05
2.145713096979307e-06,-4.399781118991086e-06,1.57353060785681e-05,6.030719305272214e-06,5.5141856137197465e-05
-6.73869508318603e-05,6.941988885955652e-06,7.605739938298939e-06,-2.902965434259386e-06,5.041236727265641e-05
-0.00011440641537774354,3.181960710207932e-05,5.439949859464832e-07,-1.0042965186585207e-05,4.7484540118603036e-05
-9.563876665197313e-05,6.47102715447545e-05,-2.0308101511545829e-07,-1.266738854610594e-05,5.0833103159675375e-05
-5.41910485480912e-05,6.193527951836586e-05,2.564525857451372e-06,-1.3700199815502856e-05,5.6237920944113284e-05
-3.9435533835785463e-05,1.8247863408760168e-05,5.45235161553137e-06,-1.7973006833926775e-05,5.8857694966718554e-05
-4.8805468395585194e-05,-1.0047825526271481e-05,6.546457370859571e-06,-1.763464570103679e-05,5.958025940344669e-05
-5.7371824368601665e-05,-6.693186605843948e-06,3.941166141885333e-06,-1.1804719179053791e-05,5.6704382586758584e-05
-5.273375063552521e-05,-2.1069545255159028e-06,4.3686696926670265e-07,-8.865641575539485e-06,5.695940853911452e-05
-3.3215015719179064e-05,-9.849148227658588e-06,8.312115369335515e-07,-1.0839105016202666e-05,6.412917718989775e-05
-1.1123415788460989e-05,-1.922950286825653e-05,4.224696112942183e-06,-1.297681410505902e-05,7.059119525365531e-05
-2.299547077200259e-06,-2.209552621934563e-05,4.740822078019846e-06,-1.3500114619091619e-05,7.088320853654295e-05
9.663809805715573e-07,-1.710272772470489e-05,3.955469765060116e-06,-1.3881572158425115e-05,6.844218296464533e-05
6.71050111122895e-06,-5.5478926697105635e-06,5.357419468055014e-07,-1.411853008903563e-05,6.643076631007716e-05
8.996833457786124e-06,8.969619557319675e-06,-2.5618114705139305e-06,-1.7523700080346316e-05,6.166109960759059e-05
-3.248733719374286e-06,1.326991059613647e-05,-8.688995762895502e-07,-2.2938402253203094e-05,5.430972669273615e-05
-2.168108767364174e-05,3.6359574551170226e-06,1.8983765812663478e-06,-2.873689118132461e-05,5.122814764035866e-05
-3.2254836696665734e-05,-6.304530415945919e-06,5.619859166472452e-06,-3.0070494176470675e-05,5.436677020043135e-05
-3.4073433198500425e-05,-3.849736913252855e-06,1.0154469237022568e-05,-2.513720937713515e-05,5.846824205946177e-05
-3.370010381331667e-05,1.1161082511534914e-05,1.228712972078938e-05,-1.9629158487077802e-05,6.0107959143351763e-05
-3.8704405596945435e-05,2.8608794309548102e-05,9.529154340270907e-06,-1.5423072909470648e-05,6.0672275139950216e-05
-4.827757220482454e-05,4.6452671085717157e-05,3.947273853555089e-06,-1.1291976989014074e-05,6.3369057897944e-05
-4.703138256445527e-05,6.628336996072903e-05,8.899028216546867e-07,-6.925778961885953e-06,6.8357061536517e-05
-2.5157905838568695e-05,8.54324534884654e-05,2.0746565496665426e-06,-6.3858656176307704e-06,7.161117537179962e-05
-5.03397473039513e-07,9.101453179027885e-05,3.0343157959578093e-06,-1.0348167961637955e-05,6.883985770400614e-05
4.6198865675251e-06,7.823590567568317e-05,2.915329105235287e-06,-1.4240121345210355e-05,6.36368858977221e-05
-5.511343715625117e-06,6.0851918533444405e-05,2.5420347355975537e-06,-1.3863551430404186e-05,6.114465941209346e-05
-1.5071167581481859e-05,4.6021486923564225e-05,2.1106504846102325e-06,-1.3126959856890608e-05,5.8476671256357804e-05
-1.881150819826871e-05,2.969291017507203e-05,2.368863306401181e-06,-1.4692869626742322e-05,5.429865268524736e-05
-1.7017440768540837e-05,1.6720501662348397e-05,3.865371581923682e-06,-1.6808933651191182e-05,5.35474500793498e-05
-1.3310868780536111e-05,2.0226998458383605e-05,1.0593113984214142e-05,-1.927660923684016e-05,5.860383316758089e-05
-8.092373718682211e-06,4.214643922750838e-05,1.9067647372139618e-05,-2.1354735508793965e-05,6.366218440234661e-05
-1.944934865605319e-06,5.815684926346876e-05,1.6388950825785287e-05,-1.792913826648146e-05,6.38751225778833e-05
-2.3899042389530223e-06,5.238705125520937e-05,4.649006768886466e-06,-7.692790859437082e-06,5.933075590291992e-05
-1.1592960618145298e-05,4.389079549582675e-05,-5.447904641187051e-06,-3.872523393511074e-06,5.538564073503949e-05
-1.8659962734091096e-05,5.918063470744528e-05,-7.932763764983974e-06,-7.815648132236674e-06,5.676792352460325e-05
-2.247956581413746e-05,6.751441833330318e-05,-6.417828899429878e-06,-6.806390047131572e-06,5.780197898275219e-05
-2.676742042240221e-05,2.1007939722039737e-05,-7.971334525791463e-06,-4.853575319430092e-06,5.661149407387711e-05
-3.1848005164647475e-05,-2.369836875004694e-05,-7.307934083655709e-06,-3.5380112421989907e-06,5.539039193536155e-05
-3.497577563393861e-05,-3.403301661819569e-06,-4.3501222535269335e-06,-2.8242675398360007e-06,5.285664519760758e-05
-3.5558303352445364e-05,4.4061463995603845e-05,7.771967602820951e-07,-2.744897983575356e-06,4.765123230754398e-05
-3.6074685340281576e-05,6.593234138563275e-05,6.419063993234886e-06,8.158870627994474e-07,4.259947672835551e-05
-3.4177021007053554e-05,5.6535511248512194e-05,9.239502105629072e-06,7.897049727034755e-06,4.271921716281213e-05
-2.881576983781997e-05,4.0604285459266976e-05,1.213048290082952e-05,1.3836175639880821e-05,4.88978112116456e-05
-2.1838191969436593e-05,4.3977339373668656e-05,1.4113956240180414e-05,1.2436400538717862e-05,5.8720870583783835e-05
-2.513224353606347e-05,5.1955346862087026e-05,1.4857320820738096e-05,7.515664037782699e-06,6.606060196645558e-05
-3.7875783164054155e-05,5.211408279137686e-05,1.3562707863457035e-05,4.304632966523059e-06,6.770390609744936e-05
-4.585787246469408e-05,5.6005839724093676e-05,1.1014131814590655e-05,3.7850224998692283e-06,6.559187022503465e-05
-4.491271829465404e-05,7.367436774075031e-05,7.898097464931197e-06,3.046278152396553e-06,6.221434887265787e-05
-4.091751907253638e-05,8.327483374159783e-05,8.518608410668094e-06,1.8233799892186653e-06,6.0234709962969646e-05
-4.055606041220017e-05,3.127709715045057e-05,1.2342528862063773e-05,-7.910260251264845e-07,6.074804696254432e-05
-4.594536221702583e-05,-9.236641199095175e-05,1.3145319826435298e-05,-5.3933754315949045e-06,5.660798342432827e-05
-5.0264367018826306e-05,-0.00018392170022707433,1.0232080057903659e-05,-1.1209790500288364e-05,4.739350697491318e-05
-4.5650958782061934e-05,-0.0001556257193442434,1.1075396287196781e-05,-1.294722460443154e-05,4.0937877201940864e-05
-3.486806235741824e-05,-8.15224411780946e-05,1.8727108908933587e-05,-1.0606085197650827e-05,3.9641556213609874e-05
-2.9299810194061138e-05,-4.3443294998724014e-05,2.4962615498225205e-05,-8.422567589150276e-06,4.1668303310871124e-05
-3.6540135624818504e-05,-1.6383408365072682e-05,2.4945866243797354e-05,-6.452960406022612e-06,4.562718095257878e-05
-5.374415923142806e-05,3.8482132367789745e-05,2.2361151422956027e-05,-6.702057817165041e-06,4.8602632887195796e-05
-6.514533015433699e-05,0.00010970887524308637,2.0958712411811575e-05,-9.287032298743725e-06,4.677806282415986e-05
-6.134935392765328e-05,0.00016048319230321795,2.1134959752089344e-05,-1.1269476999586914e-05,4.444673686521128e-05
-4.589593663695268e-05,0.00015636115858796984,2.3036987840896472e-05,-1.3096258044242859e-05,4.637485835701227e-05
-9.911275810736697e-06,9.231682633981109e-05,2.3840897483751178e-05,-1.801747021090705e-05,5.437694926513359e-05
2.849908014468383e-05,4.331069067120552e-05,2.2450702090281993e-05,-1.9948291082982905e-05,6.45393374725245e-05
4.162412733421661e-05,2.3171753127826378e-05,2.2496702513308264e-05,-2.1234285668469965e-05,6.694772309856489e-05
3.59846162609756e-05,-1.0938797458948102e-05,2.178270005970262e-05,-2.4461753127980046e-05,6.325851427391171e-05
2.484083961462602e-05,-5.1206596253905445e-05,1.5418712791870348e-05,-2.630578092066571e-05,6.149871478555724e-05
1.8147604350815527e-05,-8.135135431075469e-05,1.063282888935646e-05,-2.444512392685283e-05,6.572866550413892e-05
2.118863631039858e-05,-6.515162385767326e-05,1.2843614058510866e-05,-2.008504088735208e-05,7.343602192122489e-05
2.8826765628764406e-05,-2.7238744223723188e-05,1.3041388228884898e-05,-1.835282273532357e-05,7.777728023938835e-05
3.271930108894594e-05,-1.0120696742887958e-06,9.536819561617449e-06,-2.030246650974732e-05,7.893138536019251e-05
3.2799041946418583e-05,2.5914359866874292e-05,9.10736525838729e-06,-2.7022839276469313e-05,7.773875404382125e-05
2.5529121558065526e-05,7.400683534797281e-05,8.389637514483184e-06,-3.171695789205842e-05,7.55137371015735e-05
3.6683964026451577e-06,0.00012187618995085359,6.7661339926416986e-06,-3.272829417255707e-05,7.440484478138387e-05
-2.84680281765759e-05,0.00014713566633872688,4.33533614341286e-06,-3.0340197554323822e-05,7.204728171927854e-05
-6.0290600231382996e-05,0.00015492626698687673,4.140404598729219e-06,-2.484376818756573e-05,6.809746992075816e-05
-8.715788135305047e-05,0.00015158636961132288,6.3937277445802465e-06,-2.0268545995349996e-05,6.160791963338852e-05
-0.0001094630642910488,0.0001284368336200714,8.46873354021227e-06,-1.9003968191100284e-05,5.299783879308961e-05
-0.0001211947383126244,8.521506970282644e-05,7.612902209075401e-06,-1.9974888346041553e-05,4.649591937777586e-05
-0.00012096000864403322,4.24079698859714e-05,5.958496331004426e-06,-2.0299257812439464e-05,4.357894795248285e-05
-0.0001182330961455591,1.5900721336947754e-05,8.568666999053676e-06,-2.0286290236981586e-05,4.219798938720487e-05
-0.00011710181570379063,-2.3874188173067523e-06,1.4302449926617555e-05,-2.1728008505306207e-05,4.0071026887744665e-05
-0.00011225701746298,-4.246893877279945e-05,2.03843810595572e-05,-2.223070987383835e-05,3.7092431739438325e-05
-9.465467155678198e-05,-7.923247176222503e-05,2.3220860384753905e-05,-2.072371898975689e-05,3.668281715363264e-05
-6.593654688913375e-05,-7.074393943184987e-05,2.2612319298787042e-05,-2.1342280888347887e-05,4.312317832955159e-05
-4.1876075556501746e-05,-4.7833465941948816e-05,2.2240617909119464e-05,-1.8720500520430505e-05,5.488008901011199e-05
-3.184737579431385e-05,-6.839822162874043e-05,2.3681583115831017e-05,-1.0737293450802099e-05,6.651636067545041e-05
-2.4210839910665527e-05,-0.0001080554720829241,2.2983480448601767e-05,-1.2995515135116875e-06,7.057821494527161e-05
-7.615002687089145e-06,-0.00010688483598642051,2.2703366994392127e-05,4.232816991134314e-06,6.575038423761725e-05
1.4542682947649155e-05,-7.118819485185668e-05,2.033978125837166e-05,2.1798898615088547e-06,6.114676216384396e-05
1.5848781913518906e-05,-7.702313450863585e-05,1.3280451639730018e-05,-4.829056251764996e-06,5.801178849651478e-05
-6.228364782145945e-06,-0.00010881148045882583,5.038993549533188e-06,-1.336192053713603e-05,5.330549902282655e-05
-1.7055364878615364e-05,-0.00011294513387838379,-8.829829312162474e-07,-1.9892180716851726e-05,5.3045459935674444e-05
-8.512497515766881e-06,-8.1661157310009e-05,-1.0387988140792004e-06,-1.432995850336738e-05,5.749955016653985e-05
9.064379810297396e-06,5.673563919117441e-06,1.1390231975383358e-06,-2.235123247373849e-06,6.0884365666424856e-05
1.4773018847336061e-05,0.00014515710063278675,1.3369195528412092e-07,3.7616625832015416e-06,6.007036427035928e-05
4.619077571987873e-06,0.00027801591204479337,-1.679033630352933e-06,7.491296400985448e-06,5.802866508020088e-05
3.325405714349472e-06,0.0003521186881698668,-1.430964005066926e-07,1.2264608812984079e-05,5.820588194183074e-05
2.227706863777712e-05,0.00037249672459438443,3.01575369121565e-06,1.918977068271488e-05,6.072040196158923e-05
4.234986045048572e-05,0.00035861809737980366,3.487272579150158e-06,2.3352915377472527e-05,6.181109347380698e-05
4.695725510828197e-05,0.00030996714485809207,-4.332173659804539e-07,1.7284455680055544e-05,6.135539297247306e-05
3.3448981412220746e-05,0.00015728914877399802,-7.387185632978799e-06,-4.818180514121195e-06,6.229842983884737e-05
7.662571988475975e-06,-4.715974137070589e-05,-1.486910605308367e-05,-3.440820728428662e-05,6.216499605216086e-05
-1.6675690858392045e-05,-0.00010753974493127316,-1.6695194062776864e-05,-4.6450848458334804e-05,6.1018388805678114e-05
-2.584840331110172e-05,-1.2978784980077762e-05,-1.0805282727233134e-05,-3.377535904292017e-05,6.441438017645851e-05
-1.5561898180749267e-05,6.385776214301586e-05,-5.124224571773084e-06,-1.6683723515598103e-05,7.26262223906815e-05
1.55669681589643e-06,2.5437928343308158e-05,-4.9365448830940295e-06,-1.3606772881757934e-05,7.59820977691561e-05
1.507868819317082e-05,-6.141257472336292e-05,-9.000741556519642e-06,-1.955511288542766e-05,7.134502084227279e-05
2.5000868845381774e-05,-7.697546971030533e-05,-1.2610234080057126e-05,-2.0688084987341426e-05,6.412778748199344e-05
3.423585440032184e-05,-1.854676338552963e-05,-1.1988423466391396e-05,-1.8485403415979818e-05,6.0478712839540094e-05
3.519023448461667e-05,-1.8646802573130117e-06,-8.09686207503546e-06,-2.5359244318678975e-05,6.118979945313185e-05
2.3340997358900495e-05,-5.2123305067652836e-05,-3.555102694008383e-06,-3.6958612326998264e-05,6.063984255888499e-05
3.5177008612663485e-06,-0.00011955161608057097,1.57691249569325e-06,-3.97611984226387e-05,5.683245035470463e-05
-1.1652116882032715e-05,-0.00015825606533326209,2.0054294509463944e-06,-3.2557727536186576e-05,5.3659965487895533e-05
-1.1169992831128184e-05,-0.00016403471818193793,-1.8465348148311023e-06,-2.189120823459234e-05,5.4470783652504906e-05
2.0981151465093717e-06,-0.0001633157953619957,-1.8478370975572034e-06,-1.3027254681219347e-05,5.960649286862463e-05
1.3332099115359597e-05,-0.00013105195830576122,3.061079951294232e-06,-2.7157736894878326e-06,6.107924855314195e-05
6.6654088186623994e-06,-7.573595939902589e-05,4.5032493289909326e-06,5.284447524900315e-06,5.71731106902007e-05
-1.4441697203437798e-05,-1.7351529095321894e-05,-3.6774935097128036e-07,1.1649758562271018e-05,5.703869101125747e-05
-3.4818618587451056e-05,4.771846579387784e-05,-6.783503181395645e-07,1.4275350622483529e-05,6.149202090455219e-05
-4.3918073060922325e-05,0.00010871695121750236,5.758367478847504e-06,4.46508147433633e-06,6.684988329652697e-05
-4.369338057585992e-05,0.0001378801098326221,1.193764455820201e-05,-6.17742216491024e-06,7.191550685092807e-05
-4.62192328996025e-05,0.0001258000556845218,1.0862197996175382e-05,-9.63746333582094e-06,7.31114560039714e-05
-5.0886192184407264e-05,0.00010617271618684754,5.256862550595542e-06,-1.003662600851385e-05,7.184414425864816e-05
-5.2846578910248354e-05,9.920780576067045e-05,-1.7035280563959532e-07,-1.3764557479589712e-05,7.317681593121961e-05
-4.743687895825133e-05,8.24662929517217e-05,-2.2980043468123768e-06,-1.841009179770481e-05,7.636389636900276e-05
-4.2677304008975625e-05,4.315500336815603e-05,-1.9144292764394777e-06,-1.961098678293638e-05,7.57790039642714e-05
-4.946053013554774e-05,7.5135872066312e-06,-5.13440545546473e-06,-1.5542766050202772e-05,7.115174230420962e-05
-6.150230183266103e-05,-6.570872756128665e-06,-1.0507286788197234e-05,-1.1033123882953078e-05,6.871147343190387e-05
-6.365370791172609e-05,-5.5747441365383565e-06,-1.20036102089216e-05,-1.0301519978384022e-05,7.007702515693381e-05
-5.114308441989124e-05,-3.3634853480180027e-07,-9.153270184469875e-06,-1.1294409887341317e-05,7.163245027186349e-05
-3.790624759858474e-05,9.521956599201076e-06,-6.194848083396209e-06,-1.3432199011731427e-05,7.110687874956056e-05
-3.489950540824793e-05,2.427498657198157e-05,-5.655449058394879e-06,-1.318508293479681e-05,7.239863771246746e-05
-4.019419429823756e-05,4.060493301949464e-05,-6.076059435144998e-06,-9.994804713642225e-06,7.392245606752113e-05
-4.452848224900663e-05,6.0745402151951566e-05,-6.236869921849575e-06,-7.639771865797229e-06,7.234485383378342e-05
-4.464441371965222e-05,8.351109136128798e-05,-4.2548194869596045e-06,-9.449717254028656e-06,6.857624248368666e-05
-4.362138133728877e-05,8.437658834736794e-05,5.164671392776654e-07,-1.06053012132179e-05,6.616356404265389e-05
-4.7311492380686104e-05,3.009663851116784e-05,4.552455720840953e-06,-8.473087291349657e-06,6.57282944303006e-05
-5.5931061069713905e-05,-5.192610478843562e-05,6.2684857766726054e-06,-5.123858954902971e-06,6.339957326417789e-05
-7.006472878856584e-05,-7.889843982411548e-05,5.347225396690192e-06,-4.133255515625933e-06,5.824940308229998e-05
-8.346320828422904e-05,-3.838274642475881e-05,2.0095560557820136e-06,-3.933798780053621e-06,5.43277601536829e-05
-8.3591126895044e-05,1.5756788343423977e-05,-4.122107839066302e-06,-7.395756711048307e-06,5.570965731749311e-05
-7.329924119403586e-05,4.665094820666127e-05,-8.624386282463092e-06,-1.6729431081330404e-05,5.978980698273517e-05
-5.948788020759821e-05,5.191291347728111e-05,-9.105582648771815e-06,-2.4108165234792978e-05,6.20727805653587e-05
-4.6929028030717745e-05,6.296064384514466e-05,-1.5939966033329256e-05,-2.5119261408690363e-05,6.157495226943865e-05
-4.50929619546514e-05,9.196659812005237e-05,-2.667387707333546e-05,-2.2470765543403104e-05,6.027660856489092e-05
-4.735794209409505e-05,0.00012715258344542235,-2.735042289714329e-05,-1.9018531020265073e-05,5.951652929070406e-05
-4.4485157559392974e-05,0.00013849443348590285,-1.9203233023290522e-05,-1.3908072105550673e-05,6.087995643611066e-05
-3.897928036167286e-05,0.00011221720342291519,-1.0371472853876185e-05,-9.053099347511306e-06,6.253822357393801e-05
-3.880229633068666e-05,7.908239786047488e-05,-5.565578248933889e-06,-4.6190070861484855e-06,5.960816270089708e-05
-4.7310226364061236e-05,7.442511559929699e-05,-1.903052066154487e-06,3.7362045191002835e-07,5.3130243031773716e-05
-5.742166831623763e-05,8.83485990925692e-05,4.686879492510343e-06,7.602904588566162e-06,4.6481694880640134e-05
-5.893080742680468e-05,0.00010216989903710783,1.3505906281352509e-05,1.936680382641498e-05,4.076062032254413e-05
-4.9254966143053025e-05,0.00011164028546772897,2.0997833416913636e-05,3.414915772737004e-05,3.801249840762466e-05
-3.6503795854514465e-05,0.00011307711974950507,2.64699319814099e-05,4.6676246711285785e-05,4.101796366740018e-05
-3.165161979268305e-05,0.00010011372796725482,3.0289011192508042e-05,5.591960871242918e-05,4.7103127144509926e-05
-3.37956371367909e-05,7.114873005775735e-05,3.490911331027746e-05,5.7103854487650096e-05,5.101910574012436e-05
-3.435882899793796e-05,3.993316204287112e-05,3.990353434346616e-05,4.62307725683786e-05,5.1560353313107044e-05
-3.3709206036292017e-05,1.8625940356287174e-05,4.0586059185443446e-05,2.901654806919396e-05,5.0754759286064655e-05
-3.6935369280399755e-05,3.6618484955397435e-06,3.4711280022747815e-05,1.2829331353714224e-05,5.272095222608186e-05
-4.54104520031251e-05,-1.0092219781654421e-05,2.445580503263045e-05,7.563633630525146e-07,5.560728459386155e-05
-5.487053203978576e-05,-6.82813470120891e-06,1.2169538422313053e-05,-1.0961864063574467e-05,5.547837645281106e-05
-6.139930337667465e-05,2.1520376321859658e-05,-1.1069460725821045e-07,-2.4571158064645715e-05,5.2262555982451886e-05
-6.0369944549165666e-05,4.649731999961659e-05,-7.205117981357034e-06,-3.558461685315706e-05,4.8184920160565525e-05
-5.1879629609175026e-05,3.67762622772716e-05,-8.602964953752235e-06,-3.9000031392788514e-05,4.277437619748525e-05
-3.976939478889108e-05,1.5934447219478898e-05,-7.425666353810811e-06,-3.565980296116322e-05,3.7508532841457054e-05
-2.6925106794806197e-05,9.739725101098884e-06,-5.883348876523087e-06,-2.850556847988628e-05,3.739498424693011e-05
-1.474722012062557e-05,1.2468499335227534e-05,-5.680307822331088e-06,-2.2160187654662877e-05,3.987115269410424e-05
-8.948883078119252e-06,8.626122507848777e-06,-6.96459028404206e-06,-1.8807684682542458e-05,4.0469851228408515e-05
-4.2046679027407663e-07,-1.0830789506144356e-05,-6.185810889292043e-06,-1.3175402273191139e-05,4.199334216536954e-05
1.7143418517662212e-05,-2.5928025934263133e-05,-1.3272365322336555e-06,-5.464638434204971e-06,4.7440447815461084e-05
2.678495366126299e-05,-4.653091309592128e-05,4.585025180858793e-06,-2.4183026425816934e-07,5.401219823397696e-05
2.3756148948450573e-05,-8.765803795540705e-05,7.073858341755113e-06,2.219861244157073e-06,5.720278568333015e-05
1.5984389392542653e-05,-8.595714461989701e-05,9.514632438367698e-06,-5.59403451916296e-06,5.763215449405834e-05
1.0370590644015465e-05,-2.297522769367788e-05,1.0006735465140082e-05,-2.636792851262726e-05,5.999689892632887e-05
8.149490895448253e-06,3.4479598980396986e-05,5.340230472938856e-06,-4.8747675464255735e-05,6.23684682068415e-05
1.235257695952896e-05,5.16029613208957e-05,7.287928269761323e-07,-5.414416955318302e-05,6.36468394077383e-05
1.760667328198906e-05,5.3722345910500735e-05,6.94181636617941e-08,-4.3469714000821114e-05,6.421926809707657e-05
1.7841552107711323e-05,5.5391585192410275e-05,-2.1253838156098936e-07,-3.488337461021729e-05,6.444114842452109e-05
1.3728687008551788e-05,6.711251626256853e-05,-2.2997751329967286e-06,-3.591758286347613e-05,6.603154906770214e-05
4.981493020750349e-06,8.60164946061559e-05,-2.638436626511975e-06,-4.10491120419465e-05,6.770225445507094e-05
-1.3056053376203636e-06,9.040264558279887e-05,-2.8169924348731e-07,-3.6891480704071e-05,6.699054210912436e-05
-8.110106136882678e-06,7.958172500366345e-05,-6.77386609027053e-08,-2.4324577680090442e-05,6.299994129221886e-05
-1.9264552975073457e-05,6.36285767541267e-05,-2.90536331704061e-06,-1.0484021004231181e-05,5.8967547374777496e-05
-3.18854654324241e-05,5.341973519534804e-05,-2.657390041349572e-06,6.326337143036653e-07,5.554792733164504e-05
-3.728075171238743e-05,4.452706707525067e-05,2.1093101167934947e-06,6.4710907281551044e-06,5.521461207536049e-05
-3.347438178025186e-05,2.7748443244490772e-05,7.585904313600622e-06,5.089568730909377e-06,5.908452658331953e-05
-2.7427249733591452e-05,9.204435627907515e-06,1.0006281627283897e-05,-2.110341938532656e-06,6.165928061818704e-05
-2.424250305921305e-05,7.077086593199056e-06,9.457596206630114e-06,-9.513505574432202e-06,6.216282054083422e-05
-2.3123087885323912e-05,1.6686248272890225e-05,7.887757419666741e-06,-1.253637583431555e-05,6.193742592586204e-05
-2.2768028429709375e-05,2.1810326870763674e-05,7.593027930852259e-06,-1.2778046766470652e-05,5.936477464274503e-05
-2.7042504370911047e-05,2.1083436877233908e-05,5.369854989112355e-06,-1.4456462849921081e-05,5.4769763664808124e-05
-3.498224396025762e-05,2.1679610654246062e-05,-1.0677924677793271e-07,-2.0951849364791997e-05,5.215451164986007e-05
-4.337006248533726e-05,2.4311242668773048e-05,-2.66927236225456e-06,-2.917556594184134e-05,5.2878011047141626e-05
-4.753646135213785e-05,2.857611070794519e-05,-1.9611472623637383e-07,-3.123813803540543e-05,5.4709154937881976e-05
-4.3521213228814304e-05,3.618450864451006e-05,1.245960675078095e-06,-2.8046952138538472e-05,5.584968675975688e-05
-3.375185406184755e-05,4.409869507071562e-05,2.3652412437513703e-06,-2.4588563974248245e-05,5.3751504310639575e-05
-2.988560481753666e-05,4.192531559965573e-05,8.409979272983037e-06,-2.1274328901199624e-05,5.161842273082584e-05
-3.2135263609234244e-05,3.161449421895668e-05,1.4875838132866193e-05,-2.1255460524116643e-05,5.646561112371273e-05
-3.251245652791113e-05,2.4125345589709468e-05,1.5422385331476107e-05,-2.172253152821213e-05,6.330728501779959e-05
-3.1289677281165496e-05,2.08906512852991e-05,1.231329679285409e-05,-1.4089045180298854e-05,6.942264008102939e-05
-2.9028027711319737e-05,1.671549580350984e-05,9.680643415777013e-06,-3.6367721349961357e-06,7.079407077981159e-05
-2.7042411602451466e-05,1.4902423572493717e-05,9.874620445771143e-06,1.8717331613515853e-06,6.645701796514913e-05
-2.4227720132330433e-05,2.044514985755086e-05,1.3285957720654551e-05,1.4876414979880792e-06,6.278766522882506e-05
-1.8095923223881982e-05,2.7426722226664424e-05,1.5378036550828256e-05,1.8471685052645626e-06,5.9483594668563455e-05
-1.3573347132478375e-05,2.5950410417863168e-05,1.7383325030095875e-05,1.3974654393678065e-06,6.001079236739315e-05
-1.4178819583321456e-05,2.1493473468581215e-05,1.8976381397806108e-05,2.1007595023547765e-06,6.158572796266526e-05
-1.8744944100035354e-05,2.1138346710358746e-05,1.6333475286955945e-05,3.153845909764641e-06,6.244820542633533e-05
-2.2287566025624983e-05,2.5848359655356035e-05,1.0484454833203927e-05,2.2124770566733787e-06,6.418049451895058e-05
-2.0495494027272798e-05,3.308164741611108e-05,8.26101859274786e-06,1.7828837144406862e-06,6.656577170360833e-05
-1.8948730939882807e-05,3.71652640751563e-05,1.3669893633050378e-05,2.470071649440797e-06,6.962950283195823e-05
-1.902945587062277e-05,4.037336475448683e-05,2.098643199133221e-05,2.672050641194801e-06,7.122429087758064e-05
-1.772480936779175e-05,4.540403460850939e-05,2.4955896151368506e-05,3.312172509595257e-07,7.020027260296047e-05
-1.6605579730821773e-05,5.170626172912307e-05,2.378010867687408e-05,-2.3938846993587504e-07,6.872879748698324e-05
-1.7473497791797854e-05,5.023993071517907e-05,1.894459819595795e-05,-5.188999239180703e-07,6.5480315242894e-05
-1.908398735395167e-05,3.540884790709242e-05,1.1500019354571123e-05,-2.4788969312794507e-06,5.826729102409445e-05
-1.8830669432645664e-05,1.4564444427378476e-05,4.3033601286879275e-06,-5.176790182304103e-06,5.062608397565782e-05
-1.941917071235366e-05,3.6815108614973724e-06,2.0694496924988925e-06,-7.966046723595355e-06,4.703517697635107e-05
-2.6355239242548123e-05,4.32667184213642e-06,7.500055289710872e-06,-1.1001699931512121e-05,4.772632382810116e-05
-3.6387147702043876e-05,3.2076527531899046e-06,1.7535083316033706e-05,-1.135879210778512e-05,4.879231710219756e-05
-4.128458385821432e-05,-6.443691290769493e-06,2.4425831725238822e-05,-1.2657593288167845e-05,4.703890226664953e-05
-3.932877007173374e-05,-1.0273282896378078e-05,2.9617289328598417e-05,-1.5460436770808883e-05,4.455776797840372e-05
-2.7983549443888478e-05,2.2964771417832708e-08,3.899067087331787e-05,-1.4301914234238211e-05,4.727300620288588e-05
-1.9657947632367723e-05,1.588264603924472e-05,5.387889905250631e-05,-8.003718903637491e-06,5.113076986162923e-05
-3.0835624784231186e-05,2.736691567406524e-05,6.843900337116793e-05,-5.419232365966309e-06,5.1842653192579746e-05
-4.564538176055066e-05,2.9389504561549984e-05,7.44758581276983e-05,-7.611056844325503e-06,4.8261139454552904e-05
-5.0735543482005596e-05,2.421942372166086e-05,7.496736361645162e-05,-1.066545519279316e-05,4.518316563917324e-05
-4.5416953071253374e-05,2.1175177607801743e-05,7.248442125273868e-05,-1.509383218945004e-05,4.5779725041938946e-05
-3.0671595595777035e-05,2.281709384988062e-05,7.063635712256655e-05,-1.6614230844425038e-05,4.75235101475846e-05
-1.6298987247864716e-05,2.269324249937199e-05,7.315760740311816e-05,-1.3503764421329834e-05,5.092765059089288e-05
-6.721772933815373e-06,2.2221000108402222e-05,7.549401198048145e-05,-9.292755748901982e-06,5.3120951633900404e-05
-7.8598814070574e-06,2.3450669687008485e-05,7.32725384295918e-05,-6.947702786419541e-06,5.330171188688837e-05
-2.0148245312157087e-05,2.628318907227367e-05,6.761063559679314e-05,-3.663868483272381e-06,5.403922841651365e-05
-3.6352863389765844e-05,2.682969716261141e-05,5.906529622734524e-05,1.751299123498029e-07,5.495941877597943e-05
-5.147566844243556e-05,1.595904541318305e-05,4.940608414472081e-05,4.953889742864703e-07,5.433124169940129e-05
-6.183340155985206e-05,7.304216183001699e-07,4.309981522965245e-05,-5.58401552552823e-06,5.110193887958303e-05
-6.202882650541142e-05,4.499693659454351e-06,3.818388358922675e-05,-1.2289964615774807e-05,4.835826257476583e-05
-5.372320447349921e-05,2.7549065634957515e-05,3.0813436751486734e-05,-1.571269785927143e-05,4.9023212341126055e-05
-4.321711458032951e-05,4.6257806388894096e-05,2.2442018234869465e-05,-1.5889661881374195e-05,5.286547457217239e-05
-3.726645445567556e-05,4.387524677440524e-05,1.650240483286325e-05,-1.512394464953104e-05,5.792911542812362e-05
-3.705791095853783e-05,3.0840765248285607e-05,1.2225184036651626e-05,-1.5100041309779044e-05,6.018290878273547e-05
-3.8508638681378216e-05,2.830160519806668e-05,9.272803254134487e-06,-1.4997299331298564e-05,5.8600457123247907e-05
-4.145713319303468e-05,3.732867480721325e-05,4.268540124030551e-06,-1.5370565961347893e-05,5.763302033301443e-05
-4.460034324438311e-05,4.290943616069853e-05,-4.177943083050195e-06,-1.7239235603483394e-05,5.698500535800122e-05
-4.222787538310513e-05,3.989112519775517e-05,-1.1428735888330266e-05,-1.903366319311317e-05,5.4146286856848747e-05
-3.4012628020718694e-05,3.758521779673174e-05,-1.351814717054367e-05,-1.7119087715400383e-05,5.233503907220438e-05
-2.581027365522459e-05,4.054877717862837e-05,-1.3163105904823169e-05,-9.307208529207855e-06,5.068889004178345e-05
-2.1899551938986406e-05,4.0932322008302435e-05,-1.6660080291330814e-05,-2.5030083179444773e-06,5.0200284022139385e-05
-2.3373968360829167e-05,3.25666660501156e-05,-2.1332354663172737e-05,-3.2743039355409564e-06,5.3935375035507604e-05
-2.2637483198195696e-05,2.09329209610587e-05,-1.865963713498786e-05,-6.7617484091897495e-06,5.755731035606004e-05
-1.8311160602024756e-05,1.63410441018641e-05,-1.3302415027283132e-05,-8.228440492530353e-06,5.9770191001007333e-05
-1.1609497960307635e-05,2.2573552996618673e-05,-1.3489817320078146e-05,-5.905374564463273e-06,6.150845001684502e-05
