3.980181645601988e-06,2.158142342523206e-05,-3.475386733953201e-07,-5.381608843890717e-06,9.276610217057168e-05
1.5126792050068616e-06,1.8979659216711298e-05,-2.6803845685208216e-06,-1.1367857950972393e-05,9.449245408177376e-05
-8.553633961128071e-06,3.063432814087719e-05,6.412532798094617e-07,-1.1012268259946723e-05,9.428276098333299e-05
-2.531822246965021e-05,4.3729360186262056e-05,7.19552281225333e-06,-1.1146922588523012e-05,9.170654811896384e-05
-3.268091313657351e-05,5.263727143756114e-05,1.4651575838797726e-05,-1.1276382792857476e-05,9.424989548278973e-05
-2.9315013307495974e-05,5.0370595999993384e-05,1.6454028809675947e-05,-1.0298521374352276e-05,9.890436194837093e-05
-2.1548174117924646e-05,4.063096275785938e-05,1.5758188965264708e-05,-7.792807991791051e-06,9.927961946232244e-05
-1.5523160982411355e-05,2.884019704652019e-05,1.4505410035781097e-05,-6.997411674092291e-06,9.378761023981497e-05
-1.0430723705212586e-05,1.4007711797603406e-05,1.2114692253817338e-05,-1.0339845175622031e-05,8.789951971266419e-05
-5.1693741625058465e-06,1.3900061048843781e-06,9.004605090012774e-06,-1.335849901806796e-05,8.52601951919496e-05
-5.516850251297001e-06,2.3581055756949354e-06,1.0876512533286586e-05,-8.255262400780339e-06,8.698923193151131e-05
-1.5337162039941177e-05,1.6990697986329906e-05,1.3610252608486917e-05,2.103279484799714e-06,8.915349462768063e-05
-3.248893335694447e-05,3.249799556215294e-05,1.5242279914673418e-05,6.896851118654013e-06,8.899984823074192e-05
-5.3114006732357666e-05,3.892934910254553e-05,1.716534825391136e-05,3.7170905216044048e-06,8.90183582669124e-05
-6.75696792313829e-05,3.632659718277864e-05,1.9536877516657114e-05,-7.629468541381357e-07,8.761913341004401e-05
-6.189777195686474e-05,2.958949153253343e-05,2.063382817141246e-05,-2.814357230818132e-06,8.06532843853347e-05
-3.590225605876185e-05,2.3467971914215013e-05,1.8198923498857766e-05,-4.99375391882495e-06,7.281648140633479e-05
-7.072406333463732e-06,2.179184593842365e-05,1.3873738680558745e-05,-7.551639100711327e-06,6.836339889559895e-05
4.378327048470965e-06,2.4025261154747568e-05,9.561531442159321e-06,-7.623721558047691e-06,6.748521263943985e-05
-8.435044037469197e-06,2.666888030944392e-05,5.721940397052094e-06,-5.7092065617325716e-06,6.968477100599557e-05
-3.548097447492182e-05,2.7032921934733167e-05,2.3249501737154787e-06,-7.511790499847848e-06,6.90521628712304e-05
-6.089123780839145e-05,2.482026866346132e-05,-3.7475874137271603e-07,-1.329411861661356e-05,6.3554965890944e-05
-7.863413338782266e-05,2.2697682652506046e-05,-1.9643446194095304e-06,-2.1063091480755247e-05,5.732497083954513e-05
-8.314147999044508e-05,2.3395521566271782e-05,-3.1274234970624093e-06,-2.8931226552231237e-05,5.10371828568168e-05
-7.346009806497023e-05,2.704880535020493e-05,-5.0641460802580696e-06,-3.493245822028257e-05,4.3666743295034394e-05
-5.6542125093983486e-05,3.682935130200349e-05,-3.023522367584519e-06,-3.4920518373837695e-05,4.1031555156223476e-05
-3.631326762842946e-05,4.760879892273806e-05,1.970522816918674e-06,-2.6797910322784446e-05,3.683159957290627e-05
-1.3573379874287639e-05,5.007133586332202e-05,3.821269274340011e-06,-2.015953214140609e-05,2.6866733605857007e-05
1.967472599062603e-06,4.499294300330803e-05,1.926862296386389e-06,-1.708099080133252e-05,1.613477616047021e-05
1.5188633142315666e-06,4.06838626076933e-05,4.7529832158943464e-07,-1.3396189388004132e-05,1.1966150850639679e-05
-8.044688001973554e-06,3.875791298924014e-05,1.3391913853411097e-06,-1.2561345101858024e-05,1.691778379608877e-05
-1.7209646102855913e-05,3.0207602321752347e-05,4.2610558921296615e-06,-1.3852849406248424e-05,2.612445859995205e-05
-2.341552135476377e-05,2.1958283468848094e-05,7.5422808549774345e-06,-1.2750068890454713e-05,3.4382966987323016e-05
-2.5448893211432733e-05,2.0701421817648225e-05,9.833659532887395e-06,-7.38852531867451e-06,4.2722513171611354e-05
-2.52091049333103e-05,2.554685306677129e-05,9.814345503400546e-06,-3.257142680013203e-06,5.3049461712362245e-05
-3.068972728215158e-05,2.9931401513749734e-05,7.889524567872286e-06,-2.127490233760909e-06,6.249836587812752e-05
-4.1288301872555166e-05,3.175164601998404e-05,5.882287496206118e-06,-3.954051408072701e-06,6.704978295601904e-05
-5.2060586313018575e-05,3.523497434798628e-05,6.788801329093985e-06,-5.442896053864388e-06,6.853986997157335e-05
-5.7072658819379285e-05,4.0650207665748894e-05,9.88040574156912e-06,-4.8173747018154245e-06,6.830862548667938e-05
-5.451427568914369e-05,4.1696646803757176e-05,8.775737114774529e-06,-5.648994374496397e-06,6.714698247378692e-05
-5.038216841057874e-05,3.331524203531444e-05,6.120754278526874e-06,-1.0189223758061416e-05,6.753830530215055e-05
-4.430463013704866e-05,2.503444738977123e-05,6.504364591819467e-06,-1.4039506822882686e-05,6.558888708241284e-05
-3.6707227991428226e-05,2.380908335908316e-05,6.440829565690365e-06,-1.3136191228113603e-05,5.6553923059254885e-05
-3.081904651480727e-05,2.698071148188319e-05,2.4663825115567306e-06,-9.324890015705023e-06,4.5321234210859984e-05
-2.9101467589498498e-05,2.847258838301059e-05,-1.430263182555791e-06,-3.977892902184976e-06,3.7673511542379856e-05
-2.8319822376943193e-05,2.762736039585434e-05,-1.8995200434801518e-06,1.1370887023076648e-06,3.524889689288102e-05
-2.770292485365644e-05,2.396350282651838e-05,-9.74921135821205e-07,4.706502295448445e-06,3.6655241274274886e-05
-3.110827674390748e-05,1.868826620921027e-05,5.597763674813905e-07,4.477467882679775e-06,3.865624967147596e-05
-3.55926422344055e-05,1.3203914022597019e-05,3.4601073366502533e-06,2.5275671760027763e-06,4.2650848627090454e-05
-2.975492134282831e-05,9.005563697428443e-06,5.955571850790875e-06,2.989721451740479e-06,4.830521356780082e-05
-6.7122305154043715e-06,5.865368166269036e-06,6.2088502090773545e-06,7.682670002395753e-06,5.220831008045934e-05
2.5452083718846552e-05,2.521865098970011e-06,4.50537163487752e-06,1.195498407469131e-05,5.160484943189658e-05
4.70880331704393e-05,-2.99310499940475e-06,4.538889697869308e-06,1.0168656444875523e-05,4.927732516080141e-05
4.56653033324983e-05,-3.6657406781159807e-06,8.583149792684708e-06,4.3737095438700635e-06,4.597268343786709e-05
2.2542029910255224e-05,4.414046088641044e-06,1.2054339094902389e-05,1.1488963309602696e-06,4.280452776583843e-05
-5.194206096348353e-06,1.5522675312240608e-05,1.515771418780787e-05,2.5465669750701636e-06,4.331367745180614e-05
-2.4548817236791365e-05,3.0257808248279616e-05,1.8289336367161013e-05,2.5491472115390934e-06,4.547876233118586e-05
-3.420899884076789e-05,4.10487009503413e-05,1.357314977212809e-05,-1.6761292727096588e-06,4.438034738996066e-05
-3.226326953154057e-05,4.555564737529494e-05,6.13797828918905e-06,-2.450636429784936e-06,4.2840747482841834e-05
-3.143411231576465e-05,4.667577377404086e-05,2.6969403279508697e-06,1.0205200169366435e-06,4.452620123629458e-05
-3.4128886909456924e-05,3.988585012848489e-05,2.8177985313959653e-06,4.390081357996678e-06,4.438159157871269e-05
-3.579520125640556e-05,2.6026365958387032e-05,1.3934618436906021e-06,4.152841938775964e-06,4.147178333369084e-05
-3.384747833479196e-05,1.1754646948247682e-05,-3.752243856069981e-06,-1.8312903415917958e-09,4.026413080282509e-05
-3.3019699912983924e-05,1.4739790685780463e-06,-7.2213265411846805e-06,-5.996487288939534e-06,4.0649392758496106e-05
-3.660833681351505e-05,-2.7812086500489386e-06,-8.855837222654372e-06,-8.441138561465777e-06,4.24678364652209e-05
-4.063462620251812e-05,-3.3776088912418345e-06,-9.16850331122987e-06,-9.699259862827603e-06,4.498511043493636e-05
-4.459733463590965e-05,3.197116171804737e-08,-1.0889968507399317e-05,-1.2927958778163884e-05,4.7834244469413534e-05
-4.7097651986405253e-05,1.126140614360338e-05,-1.2243037417647429e-05,-1.4396466212929226e-05,5.07716613356024e-05
-4.3929641833528876e-05,2.8212894903845154e-05,-1.003345096250996e-05,-1.3488122021954041e-05,5.316646638675593e-05
-3.3787262509576976e-05,3.844640013994649e-05,-6.095459411881166e-06,-1.3007653251406737e-05,5.2117753511993214e-05
-1.7753025531419553e-05,3.803491927101277e-05,-4.6034465412958525e-06,-1.4224399819795508e-05,5.007861909689382e-05
1.553881475047092e-06,3.836415635305457e-05,-4.5870087888033595e-06,-1.4835198271612171e-05,5.072325802757405e-05
1.0985855624312535e-05,4.340033410699107e-05,-2.5242118226742605e-06,-1.7466592908021994e-05,5.2380804845597595e-05
2.814328581735026e-06,4.7116438508965075e-05,9.986202940126532e-07,-2.2529346097144298e-05,5.3193998610368e-05
-1.237417382071726e-05,4.714343958767131e-05,1.5990581232472323e-06,-2.6600384444463998e-05,5.450646858662367e-05
-1.9308567061671056e-05,4.461171192815527e-05,-2.5742913294379832e-06,-2.9263403121149167e-05,5.5846139730419964e-05
-1.8386004740023054e-05,4.0698778320802376e-05,-5.1945639825135e-06,-3.096503496635705e-05,5.5499200243502855e-05
-2.082317769236397e-05,3.989063043263741e-05,-3.663904863060452e-06,-3.0135885026538745e-05,5.3107840358279645e-05
-3.102433038293384e-05,4.211397026665509e-05,-5.339072686183499e-07,-2.5558787456247956e-05,5.0366968935122713e-05
-3.7318583054002374e-05,3.967222073697485e-05,9.697579343992402e-07,-1.9493591025820933e-05,4.8543439334025607e-05
-3.0352428439073265e-05,3.238821591367014e-05,2.9204891234257957e-06,-1.725979382172227e-05,5.004226841265336e-05
-1.846895247581415e-05,3.060614471905865e-05,8.886855539458338e-06,-1.6435807992820628e-05,5.583072197623551e-05
-1.7488666344434023e-05,3.941383329220116e-05,1.2333573067735415e-05,-1.3410271094471682e-05,5.46067749382928e-05
-2.7165122446604073e-05,4.428578176884912e-05,1.1313758477626834e-05,-9.689287253422663e-06,5.045075522502884e-05
-3.999320324510336e-05,3.4312568459426984e-05,7.920329153421335e-06,-1.0407777153886855e-05,4.9441699957242236e-05
-4.8249105020659044e-05,1.941925256687682e-05,5.526587301574182e-06,-1.113578946387861e-05,5.227307337918319e-05
-5.140302891959436e-05,9.449975550523959e-06,7.126388027245412e-06,-9.33035698835738e-06,5.7231685786973685e-05
-5.039421375840902e-05,1.3304814274306409e-05,1.047169826051686e-05,-7.097169145708904e-06,6.116623990237713e-05
-4.327202987042256e-05,2.537544787628576e-05,1.3860377293894999e-05,-6.487998234661063e-06,6.284546543611214e-05
-3.607213875511661e-05,3.439012652961537e-05,1.4564265256922226e-05,-6.222775027708849e-06,6.242949166335166e-05
-3.032964923477266e-05,3.644181560957804e-05,1.2126593901484739e-05,-4.408979293657467e-06,6.445898179663345e-05
-3.0722694646101445e-05,3.3271393476752564e-05,9.016789590532426e-06,-4.300356522435322e-06,6.745084101567045e-05
-3.4865217457991093e-05,2.985375795105938e-05,9.293574294133577e-06,-7.3844312282744795e-06,6.648297130595893e-05
-3.6582514439942315e-05,3.136458690278232e-05,1.1679772796924226e-05,-1.1617865311563946e-05,5.987064650980756e-05
-3.405128518352285e-05,4.119174263905734e-05,1.161347063316498e-05,-1.3305909305927344e-05,5.51374614587985e-05
-2.8174825274618343e-05,5.362504816730507e-05,7.81655398895964e-06,-1.5077009265951347e-05,5.4271902627078816e-05
-2.1409803593996912e-05,6.362553540384397e-05,5.089645128464326e-06,-1.87192672456149e-05,5.36251172889024e-05
-1.682603578956332e-05,7.114704203559086e-05,5.227642304816982e-06,-2.3395918105961755e-05,5.2650149882538244e-05
-1.8126949726138264e-05,7.060330972308293e-05,3.90566083297017e-06,-2.660993231984321e-05,5.145203249412589e-05
-2.5933948563761078e-05,5.362478259485215e-05,-2.9935097245470388e-06,-2.8103655495215207e-05,5.090407648822293e-05
-3.910796658601612e-05,2.8586378903128207e-05,-1.2794180292985402e-05,-2.6799572879099287e-05,5.007005893276073e-05
-5.251760740065947e-05,1.6702329958206974e-05,-1.7674525224720128e-05,-2.505661359464284e-05,5.041114127379842e-05
-5.9864207287319005e-05,2.6859821446123533e-05,-1.4948202078812756e-05,-2.408810905762948e-05,5.400090594775975e-05
-6.22492516413331e-05,4.447411629371345e-05,-1.1372154403943568e-05,-2.1851034034625627e-05,5.7812118029687554e-05
-6.313883204711601e-05,5.066465382697061e-05,-1.1886220818269067e-05,-1.9532675651134923e-05,5.9165777201997116e-05
-5.458069426822476e-05,4.267637268640101e-05,-9.28585996007314e-06,-2.1227140678092837e-05,5.742659413954243e-05
-2.5262334020226263e-05,3.706739516928792e-05,-7.043360028546886e-07,-2.5193216060870327e-05,5.564964885707013e-05
2.0426392438821495e-05,3.6802121030632406e-05,4.973732757207472e-06,-2.422507168375887e-05,5.829026849824004e-05
4.860953413299285e-05,2.2632937543676235e-05,1.0828751328517683e-05,-2.1208757971180603e-05,6.142930214991793e-05
3.498543446767144e-05,6.483079232566524e-06,2.1931735318503343e-05,-2.219914495071862e-05,6.171805580379441e-05
7.219888175313827e-06,1.0362360626459122e-05,2.778093949018512e-05,-2.3492513719247654e-05,6.205925456015393e-05
-1.0793140972964466e-05,1.8873852241085842e-05,2.3844302631914616e-05,-2.0109810066060163e-05,6.288900476647541e-05
-2.4227547328337096e-05,1.857401912275236e-05,1.5615918528055772e-05,-1.683535083429888e-05,6.514008418889716e-05
-3.822147482424043e-05,1.5143476048251614e-05,9.727424185257405e-06,-1.3702737305720802e-05,6.690036389045417e-05
-5.172445162315853e-05,1.2206396604597103e-05,9.366665835841559e-06,-9.401777788298205e-06,6.575243605766445e-05
-5.112079452374019e-05,1.1936874216189608e-05,1.2206715837237425e-05,-6.287170890573179e-06,6.355273217195645e-05
-3.206236215191893e-05,1.6439649698440917e-05,1.59022838488454e-05,-3.232242079320713e-06,6.332337943604216e-05
-1.0712780749599915e-05,1.9666624211822636e-05,1.953561877598986e-05,-6.555177947120683e-07,6.38784040347673e-05
-8.769675332587212e-06,1.939961475727614e-05,2.274966027471237e-05,-1.199116468342254e-07,6.297761865425855e-05
-2.0809895431739278e-05,1.706428884062916e-05,2.7551588573260233e-05,-3.5091272820864106e-06,6.213723827386275e-05
-3.1204341212287545e-05,1.67140387929976e-05,3.07848458760418e-05,-6.324409696389921e-06,6.140850018709898e-05
-3.571354682208039e-05,1.783135303412564e-05,3.13324635499157e-05,-7.802606887707952e-06,6.068158836569637e-05
-3.3889155020006e-05,1.788505687727593e-05,2.8189882868900895e-05,-9.831152055994608e-06,5.896501534152776e-05
-2.7205433070776053e-05,1.8809663743013516e-05,2.1351965187932365e-05,-1.0722131264628842e-05,5.822714228997938e-05
-1.9524388335412368e-05,1.7727028534864075e-05,1.3755052350461483e-05,-7.3815676842059474e-06,6.002082955092192e-05
-1.4045918760530185e-05,1.2156951925135218e-05,1.0196456969424617e-05,-1.8801815713231917e-06,6.112562550697476e-05
-1.0969142749672756e-05,7.114650998119032e-06,1.0291446415067185e-05,-8.312029535773036e-07,5.950704507995397e-05
-1.1037514013878535e-05,7.935082066978794e-06,9.49901277635945e-06,-4.293077381589683e-06,5.6028780818451196e-05
-1.2906027222925331e-05,1.1208553587493952e-05,8.461665856884792e-06,-7.202110737125622e-06,5.24759161635302e-05
-1.859402436821256e-05,1.4734958313056268e-05,1.1090729458373971e-05,-8.425807209277991e-06,5.1772880397038534e-05
-2.5431509129703045e-05,1.9513950974214822e-05,1.6253299691015854e-05,-1.2261824849701952e-05,5.16938125656452e-05
-2.7709693313227035e-05,2.417631731077563e-05,1.981030982278753e-05,-1.6414867786807008e-05,5.2593371947295964e-05
-1.7466743884142488e-05,2.533592669351492e-05,2.1445477614179254e-05,-1.5554027413600124e-05,5.5784319556551054e-05
-1.8471914700057823e-06,2.6981606424669735e-05,1.7946920706890523e-05,-1.0027285497926641e-05,5.5177708418341354e-05
4.086386525159469e-06,3.1428040529135615e-05,1.3298632438818458e-05,-3.872845809382852e-06,5.276687443256378e-05
2.4165379386431596e-07,3.400614150450565e-05,1.003958641376812e-05,-2.629333039294579e-06,5.322460492607206e-05
-9.392329047841486e-06,2.9124586944817565e-05,5.610832886304706e-06,-5.5636337492614985e-06,5.516432793228887e-05
-2.2411541067413054e-05,2.0706038412754424e-05,7.639338946319185e-06,-4.139760221733013e-06,5.497606980497949e-05
-4.237032408127561e-05,1.6768266505096108e-05,1.0401395229564514e-05,-1.4148558875604067e-06,5.63382200198248e-05
-6.605606176890433e-05,1.577264083607588e-05,1.258481279364787e-05,7.513509672207874e-07,5.864817285328172e-05
-8.295468433061615e-05,1.3210410543251783e-05,1.8054061001748778e-05,2.2046785943530267e-06,5.7656092394609004e-05
-8.653575787320733e-05,1.319281909673009e-05,1.6130357835208997e-05,1.3921260233473731e-06,5.7429329899605364e-05
-7.469689444405958e-05,1.5870818970142864e-05,1.1203438589291181e-05,1.617466864445305e-06,5.781715299235657e-05
-5.7560133427614346e-05,2.3043097826302983e-05,7.612626632180763e-06,3.906282472598832e-06,5.851794048794545e-05
-4.321937376516871e-05,3.396808460820466e-05,8.288589924632106e-06,5.108844561618753e-06,5.703030910808593e-05
-3.5816112358588725e-05,3.8436912291217595e-05,9.079351912077982e-06,4.78977335660602e-06,5.615402551484294e-05
-3.134786675218493e-05,3.777403981075622e-05,7.836179065634497e-06,5.429711109172786e-06,5.924103606957942e-05
-2.6719746529124677e-05,3.816390744759701e-05,4.821631591767073e-06,6.1766036196786445e-06,6.090844181017019e-05
-2.4563190891058184e-05,4.1887047700583935e-05,1.1393022987249424e-06,5.510445134859765e-06,6.0764090449083596e-05
-2.4031774955801666e-05,4.6383134758798406e-05,-1.826196694310056e-06,3.3849744340841426e-06,6.0914786445209756e-05
-2.3065285859047435e-05,5.0524806283647195e-05,-2.720109705478535e-06,2.44501620727533e-06,6.157519965199754e-05
-2.246663825644646e-05,5.0733080570353195e-05,-1.9932549832901714e-07,3.1865088203630876e-06,6.27947665634565e-05
-2.391417910985183e-05,4.2706764361355454e-05,8.324558109507052e-08,3.303503717688727e-06,6.286829739110544e-05
-2.625422530400101e-05,3.225479304092005e-05,-3.0467845135717653e-06,2.475319433870027e-06,6.19863931206055e-05
-2.9071599783492275e-05,3.0439179681707174e-05,-5.840865014761221e-06,2.9821037514921045e-06,6.104252679506317e-05
-3.099777313764207e-05,3.735965583473444e-05,-6.191848115122411e-06,3.902910066244658e-06,5.846299973200075e-05
-3.146792732877657e-05,4.303498280933127e-05,-6.9181924118311144e-06,3.5069081150140846e-06,5.687522570951842e-05
-2.9664592148037627e-05,4.186031947028823e-05,-5.899576990486821e-06,1.9265619357611286e-06,5.775823228759691e-05
-2.9602233553305268e-05,3.666589691420086e-05,-3.3449498459958704e-06,-1.2393371662255959e-06,6.00668863626197e-05
-3.32537128997501e-05,3.4412278182571754e-05,-3.555567445800989e-06,-6.902365385030862e-06,6.116792792454362e-05
-3.687365824589506e-05,4.032575816381723e-05,-8.096363671938889e-06,-1.0226744961983059e-05,5.876335853827186e-05
-3.8217029214138165e-05,5.460095781018026e-05,-9.267246241506655e-06,-7.754711987217888e-06,5.84232657274697e-05
-3.860417564283125e-05,6.418943667085841e-05,-6.596386810997501e-06,-4.199317572783912e-06,6.0456131905084476e-05
-3.556270894478075e-05,5.577596675720997e-05,-3.7023030472482787e-06,-8.408445637542172e-07,6.178664625622332e-05
-2.519430017855484e-05,4.230649210512638e-05,-2.9099710445734672e-06,4.880895971837163e-07,6.283848051680252e-05
-5.965872787783155e-06,3.3286691177636385e-05,-3.904136519849999e-06,-3.4124866488127736e-06,6.421165016945451e-05
1.1085237929364666e-05,2.643480729602743e-05,-1.5789373719599098e-06,-5.6354647313128226e-06,6.969646346988156e-05
1.1070350410591345e-05,2.153982495656237e-05,2.6468878786545247e-06,-4.165166501479689e-06,7.686973549425602e-05
-5.673834039043868e-06,1.4297408597485628e-05,3.3329188227071427e-06,-4.5558713281934615e-06,7.917454786365852e-05
-3.055602792301215e-05,9.099512681132182e-06,-4.987334136785648e-07,-6.84618180457619e-06,7.44057324482128e-05
-5.222710024099797e-05,1.195824643218657e-05,-3.5468258374748984e-06,-1.0400985047454014e-05,6.937118450878188e-05
-6.179888441693038e-05,1.8489701687940396e-05,7.224340947686869e-08,-1.643935866013635e-05,6.835622480139136e-05
-6.626439426327124e-05,2.0099716493859887e-05,6.990036126808263e-06,-2.3397415134240873e-05,7.121480302885175e-05
-8.009454904822633e-05,1.5655368770239875e-05,1.0601508620311506e-05,-2.708664396777749e-05,7.257773540914059e-05
-9.264924301533028e-05,1.1593686394917313e-05,1.1398249625926837e-05,-2.54238420893671e-05,6.967384979361668e-05
-8.122956205625087e-05,1.3885818589187693e-05,1.2938015061081387e-05,-2.197732283093501e-05,6.724621925968677e-05
-4.6123324864311144e-05,2.2159374566399492e-05,1.4701749023515731e-05,-1.9937442630180158e-05,6.56350384815596e-05
-8.925805559556466e-06,3.262452082708478e-05,1.3569593647844158e-05,-1.7611615476198494e-05,6.383951404131949e-05
1.0295731044607237e-05,4.036731115775183e-05,9.553003110340796e-06,-1.4503631064144429e-05,6.362620479194447e-05
9.239196515409276e-06,3.906150595867075e-05,4.95664426125586e-06,-1.4140277926344424e-05,6.649663555435836e-05
2.6250722839904483e-06,3.001910044986289e-05,9.774769296200247e-07,-1.7841839508037083e-05,7.086378172971308e-05
1.3074227354081813e-06,2.3237142158905044e-05,-1.8261123386764666e-06,-2.2575057300855406e-05,7.287206244654953e-05
1.4015507758813328e-06,2.236941145383753e-05,-3.543414777595899e-06,-2.5502262360532768e-05,6.986033986322582e-05
-2.2200035800779006e-06,2.8077814931748435e-05,-5.1426864047243726e-06,-2.512976061552763e-05,6.541636685142294e-05
-5.213569238549098e-06,3.91652574762702e-05,-6.4252735683112405e-06,-2.175328518205788e-05,6.271826714510098e-05
5.439020469566458e-07,4.61594172520563e-05,-4.23743176725111e-06,-1.8838056348613463e-05,6.351327465381473e-05
7.532492418249603e-06,4.611781696439721e-05,-1.1471215088931785e-09,-1.532669375592377e-05,6.324321293504909e-05
7.901056960690767e-06,4.285312024876475e-05,1.062248202288174e-06,-1.488025918661151e-05,6.207013939274475e-05
1.1934882422792725e-05,4.119879667996429e-05,2.2045790046831826e-06,-1.9033624994335696e-05,6.275452324189246e-05
2.7810050596599467e-05,4.021941640530713e-05,8.793382221483625e-06,-2.037935882981401e-05,6.394456431735307e-05
3.6819408705923706e-05,3.584927981137298e-05,1.4124507288215682e-05,-1.9998316929559223e-05,6.813454092480242e-05
2.2323523808154278e-05,2.799538560793735e-05,1.3131294508639257e-05,-1.8615075532579795e-05,7.029095286270604e-05
-1.1832445352411014e-06,1.978731779672671e-05,1.184421398647828e-05,-2.301623135281261e-05,6.842277070973068e-05
-1.2674015124503057e-05,2.0912742911605164e-05,8.556658940506168e-06,-2.951506212411914e-05,6.519571616081521e-05
-9.771755685505923e-06,2.8987193218199536e-05,2.627708454383537e-06,-3.006497172464151e-05,5.9824578784173355e-05
-6.411371941794641e-06,3.0108592909527943e-05,-1.464835918341123e-06,-3.0515711841871962e-05,5.669127494911663e-05
-8.263472409453243e-06,2.0592837245203555e-05,-1.267635866497585e-06,-3.0969709769124165e-05,5.583881647908129e-05
-1.559379234095104e-05,8.203424840758089e-06,3.418133928789757e-06,-2.920122460636776e-05,5.672069528372958e-05
-2.1873434889130294e-05,3.327604417791008e-06,9.568489986122586e-06,-2.621823296067305e-05,5.826200504088774e-05
-2.2523056031786837e-05,4.753940629598219e-06,1.0070898497360758e-05,-2.3162609068094753e-05,5.690206671715714e-05
-1.9807053831755184e-05,3.614495653891936e-06,5.648681053571636e-06,-1.9915474695153534e-05,5.4326657846104354e-05
-2.121512807207182e-05,6.661442597533096e-08,1.6510665545865777e-06,-1.6992791643133387e-05,5.385624899645336e-05
-3.3023588912328705e-05,1.1158441282077547e-07,2.8153253879281692e-06,-1.5182874449237715e-05,5.573127054958604e-05
-4.852382335229777e-05,5.083141786599299e-06,5.568874257733114e-06,-1.3479330846166704e-05,5.737395622418262e-05
-5.989037890685722e-05,1.0265582204738166e-05,6.353193384711631e-06,-1.0831659892573953e-05,5.820271690026857e-05
-6.458908319473267e-05,1.3915670024289284e-05,7.4725403464981355e-06,-7.512245701946085e-06,5.9566431446000934e-05
-6.562106136698276e-05,1.8781658582156524e-05,9.768928975972813e-06,-3.826908141491003e-06,6.035853220964782e-05
-6.464833859354258e-05,2.5884704882628284e-05,1.058358157024486e-05,-7.531477876909776e-07,6.048649811418727e-05
-6.047356509952806e-05,3.342329728184268e-05,9.347812920168508e-06,-6.467651587627188e-07,6.0628542996710166e-05
-4.5678250899072737e-05,3.6936708056600764e-05,1.0961549378407653e-05,-4.431053184816847e-06,6.237733759917319e-05
-1.7289345123572275e-05,3.560257391654886e-05,1.3904047591495328e-05,-8.496236659993883e-06,6.568317621713504e-05
1.388523196510505e-05,3.328403545310721e-05,1.217698536493117e-05,-1.0937494153040461e-05,6.729116284986958e-05
2.767980913631618e-05,3.137293242616579e-05,4.891710887022782e-06,-1.1111190360679757e-05,6.832270446466282e-05
1.8946451746160164e-05,3.060842209379189e-05,2.5938314252016426e-07,-1.0283221854479052e-05,6.746614235453308e-05
3.281523959230981e-07,2.6537531084613875e-05,-1.5731646954009193e-06,-9.429730198462494e-06,6.281660171225667e-05
-2.024307832471095e-05,2.0896179194096476e-05,-2.07411926567147e-06,-7.817729056114331e-06,5.650322054862045e-05
-3.981622649007477e-05,2.332149051653687e-05,-2.2561714558833046e-06,-7.348378858296201e-06,4.9367921747034416e-05
-4.8905727453529835e-05,2.4827037123031914e-05,-2.976988525915658e-06,-7.142767572076991e-06,4.615472789737396e-05
-4.164620258961804e-05,1.9955130483140238e-05,-1.1782385627157055e-06,-1.0171649591939058e-05,4.655206430470571e-05
-2.7683228836394846e-05,1.9853476260323077e-05,1.8862884871850838e-06,-1.4613151506637223e-05,4.7419969632755965e-05
-1.896199864859227e-05,2.819425571942702e-05,4.855237420997582e-06,-1.1905338396900333e-05,4.8793670430313796e-05
-1.78279460669728e-05,3.527981607476249e-05,6.1694422583968844e-06,-6.884882623126032e-06,4.9428526835981756e-05
-2.000255335588008e-05,4.217713649268262e-05,2.3035167941998225e-06,-7.643910066690296e-06,5.1372815505601466e-05
-2.6476815037312917e-05,5.1253155106678605e-05,-8.086582852229185e-07,-9.190733180730604e-06,5.119661727803759e-05
-3.673083119792864e-05,5.449635136756115e-05,-1.27541022720834e-06,-6.8559052124328446e-06,5.204530316404998e-05
-4.657339013647288e-05,5.2599876653403044e-05,3.2051792686615954e-07,-4.5633250920218416e-06,5.3171774197835475e-05
-5.078922549728304e-05,5.001476893085055e-05,4.001490196969826e-06,-4.35121819464257e-06,5.4033145715948194e-05
-4.709088534582406e-05,5.092297578812577e-05,6.352820037136553e-06,-5.623531706078211e-06,5.482283086166717e-05
-3.681713860714808e-05,5.381561641115695e-05,6.779937393730506e-06,-5.841369784320705e-06,5.3819014283362776e-05
-2.7397878511692397e-05,5.3600670071318746e-05,5.291237357596401e-06,-5.284189683152363e-06,5.387780038290657e-05
-2.4006911189644597e-05,5.0151811592513695e-05,2.8364740956021706e-06,-3.1749275422043866e-06,5.2958319429308176e-05
-2.4253171432064846e-05,4.860608169110492e-05,-3.937736892112298e-07,-2.463048758727382e-06,5.034273272030987e-05
-2.594891338958405e-05,5.039649840909988e-05,-2.8270467282709433e-06,-5.737622814194765e-06,4.91148057335522e-05
-2.9198674383223988e-05,5.471386975841597e-05,-2.561871724537923e-06,-6.659506198047893e-06,4.881307904724963e-05
-3.078659574384801e-05,5.7746819948079064e-05,-8.424858037869853e-07,-3.5307045891386224e-06,4.7845140215940773e-05
-2.848384974640794e-05,5.07327749801334e-05,-1.178527099909843e-06,-2.7377702735975618e-06,4.8088477342389524e-05
-2.4683040464879014e-05,3.164960435242392e-05,-1.4242496035876684e-06,-4.492079369811108e-06,5.0415503210388124e-05
-2.147235682059545e-05,1.620495277165901e-05,1.8130315311282175e-06,-5.699379471479915e-06,5.6945453252410516e-05
-2.0270428649382666e-05,1.8858607290894724e-05,8.033533958951011e-06,-8.928919669415336e-06,6.232261512195691e-05
-2.1927971829427406e-05,2.6159159460803494e-05,1.2043418792018201e-05,-1.1480969078547787e-05,6.11304203630425e-05
-2.5191158783854917e-05,2.1444022422656417e-05,1.0037264473794494e-05,-1.0204948011960369e-05,5.66085655009374e-05
-2.6416621039970778e-05,1.4909813216945622e-05,6.574315193574876e-06,-8.97979498404311e-06,5.580681681749411e-05
-3.0039598641451448e-05,1.3088055311527569e-05,6.8351096160768066e-06,-9.137786946666893e-06,5.503098509507254e-05
-3.6150464438833296e-05,1.2478858479880728e-05,1.0102100532094482e-05,-5.841138772666454e-06,5.3306335757952183e-05
-4.6643323003081605e-05,1.0496794857317582e-05,7.348704912146786e-06,-2.4855735318851657e-06,5.758006955147721e-05
-5.705841613234952e-05,2.829815684890491e-06,-1.2071726587237208e-06,-7.461658242391422e-07,6.451629451476038e-05
-5.593379682977684e-05,-3.8241159927565604e-06,-7.278495104401372e-06,-1.671622726462374e-06,6.62573947920464e-05
-4.901177453575656e-05,-1.0203381862083916e-05,-9.155527550319675e-06,-3.1851864150667097e-06,6.375165685312822e-05
-4.0496019209967926e-05,-2.5656399884610437e-05,-7.257545348693384e-06,-4.197755515633617e-06,6.137373566161841e-05
-3.547579035512172e-05,-4.75323831778951e-05,-4.219283709971933e-06,-8.936101039580535e-06,6.223720265552402e-05
-3.786345405387692e-05,-5.838956712977961e-05,3.9774672586645465e-06,-1.0909476259257644e-05,6.545972428284585e-05
-4.238661131239496e-05,-5.875092756468803e-05,1.5819054169696756e-05,-7.802550499036442e-06,6.605901580769569e-05
-4.5418626541504636e-05,-5.9450223488966e-05,2.4117671273415908e-05,-4.565459221339552e-06,6.481285527115688e-05
-4.411839836393483e-05,-5.75677004235331e-05,2.819493238348514e-05,-3.5696625673153903e-06,6.408656918210909e-05
-3.834949166048318e-05,-4.521614027908072e-05,3.245819243602455e-05,-2.43222984863678e-06,6.448322528740391e-05
-3.3997039281530306e-05,-2.3952650735736825e-05,3.75473391613923e-05,-1.890646672109142e-06,6.238787318579853e-05
-3.619907874963246e-05,-4.131641162530286e-06,3.7374946259660646e-05,-3.0028609216969926e-06,5.7508073950884864e-05
-4.080513826920651e-05,1.9027405642191297e-06,2.7544305339688435e-05,-6.613916866626823e-06,5.4620857554255053e-05
-4.425609949976206e-05,-1.6340404727088753e-06,1.236597108800197e-05,-9.48711658566026e-06,5.703310307580978e-05
-4.366844586911611e-05,1.4332242244563531e-05,6.69361611471686e-07,-9.045164006238338e-06,6.349846080411226e-05
-3.8343281630659476e-05,6.52040253044106e-05,-5.14605562784709e-06,-7.5837397162104025e-06,6.814462540205568e-05
-2.880807369365357e-05,0.00012763816630467772,-6.982997092563892e-06,-7.4816643973463215e-06,6.869247590657324e-05
-1.3927674444857985e-05,0.00016680410772096366,-7.535171789641026e-06,-1.0302317605237477e-05,6.619375926675275e-05
2.1308669602149166e-06,0.0001799345773179084,-8.043427442316897e-06,-1.687354415480513e-05,6.11959767411463e-05
1.4388559065992013e-05,0.00018543924670666456,-6.058427516109077e-06,-2.681157275219448e-05,5.677011358784512e-05
2.4268822016892955e-05,0.00018803773855324835,-2.8241274776519276e-06,-3.7540230550803244e-05,5.661421164404601e-05
2.5746876417542808e-05,0.00017748349637258798,-1.2800599051843164e-06,-4.362127947388217e-05,5.9950805734843016e-05
2.053296884696465e-05,0.00015405136218760163,2.4656094410602236e-06,-4.2585899791447446e-05,6.129824760137126e-05
1.6973495803540573e-05,0.0001255977404071018,7.07024537405232e-06,-3.577899042284116e-05,5.891451291972771e-05
9.763142770680133e-06,9.43197519518435e-05,1.1084500329161528e-05,-2.5441488105570897e-05,5.797754420200363e-05
-7.214709967229282e-07,6.353094795485958e-05,1.657751818129327e-05,-1.9730936401174404e-05,5.730011616833508e-05
-9.954802408174146e-06,4.1945702832890674e-05,2.0344279619166628e-05,-1.9530687495716847e-05,5.438286461867392e-05
-1.3477147149387747e-05,3.1332634534919634e-05,1.7016953279380687e-05,-1.948835233633872e-05,5.22786722285673e-05
-1.4290511899162084e-05,3.431089862715453e-05,8.516813977621496e-06,-1.787377732398454e-05,5.55453916604165e-05
-1.6934480299823917e-05,4.693053779192269e-05,8.427897455476341e-07,-1.8346987417316996e-05,6.137913442216814e-05
-1.9891973352059722e-05,5.945770681137219e-05,-1.5781473621245823e-06,-1.7073283743229695e-05,6.0399943322408944e-05
-1.9371793314348906e-05,6.771433254471049e-05,-1.1281759952908033e-06,-1.4043801456864458e-05,5.4672193073201925e-05
-1.9314897144795395e-05,7.0367575972341e-05,4.334740708600293e-07,-1.3675672562385444e-05,5.081653580418788e-05
-2.0979026885470375e-05,6.502038741018623e-05,2.3194179448182695e-06,-1.5600318874930963e-05,5.1242135668871924e-05
-2.2756445105187595e-05,4.4365682697389275e-05,1.8357628732701414e-06,-1.668368531682063e-05,5.326336031430401e-05
-2.6143692593905143e-05,9.209110430674627e-06,1.910921582748415e-06,-1.7289119568886235e-05,5.187454735278152e-05
-2.766862598946318e-05,-2.7439373297966085e-05,2.692313728402951e-06,-1.956215055542998e-05,4.8909078032011166e-05
-2.5153087335638702e-05,-4.2566251067910343e-05,4.464628545974847e-06,-2.1923166059423238e-05,5.04397030454129e-05
-2.1263556845951825e-05,-3.067820944124833e-05,7.685339369345456e-06,-2.301516360603273e-05,5.6006367231020704e-05
-1.8885210010921583e-05,-1.2242320735822432e-05,1.0539513823459856e-05,-2.31174908549292e-05,5.9997528296662495e-05
-1.605054239917081e-05,-5.944374152022647e-06,1.1994441592833027e-05,-2.2191134121385403e-05,6.147044041426852e-05
-1.573112422192935e-05,-9.885106919682585e-06,1.2412765499902889e-05,-2.1198613467277028e-05,6.336689693853259e-05
-1.9924364096368663e-05,-1.2196948773635086e-05,1.2640251952689141e-05,-2.3048187358654104e-05,6.310624303296208e-05
-2.084942752844654e-05,-1.1431141501816455e-05,1.2194551345601212e-05,-2.390345252933912e-05,5.9047892136732116e-05
-1.5783478374942206e-05,-1.5245515896822326e-05,9.0788480520132e-06,-2.246406438644044e-05,5.4226595239015296e-05
-1.2987818990950473e-05,-2.138634408765938e-05,5.0628364078875165e-06,-2.129070162482094e-05,5.35485269210767e-05
-1.4639638720836956e-05,-1.997662002395373e-05,2.8152051072538598e-06,-1.9458468159427866e-05,5.754940502811223e-05
-1.9872610209858976e-05,-1.303822409681743e-05,4.5991075126039505e-07,-1.6475023585371673e-05,6.063339242246002e-05
-2.8075824957340956e-05,-8.012304533622228e-06,-7.235371413116809e-07,-1.4436077435675543e-05,6.07027395744808e-05
-3.393177030375227e-05,-4.2612041397660505e-06,-2.4098185349430423e-06,-1.2577157576743048e-05,5.946367309661582e-05
-3.5747139918385074e-05,-2.797146692046226e-07,-6.3353782024933025e-06,-8.000753950909711e-06,5.9402049373602495e-05
-3.4816206607501954e-05,-3.8401066149162943e-07,-8.602441994298715e-06,-2.497173909432604e-06,5.974395025987178e-05
-3.035764893866144e-05,-1.2024736406601733e-06,-6.821097031206591e-06,-3.3660026019788347e-06,5.890238026040606e-05
-2.6700317903305404e-05,2.6239496264679474e-07,-4.902204636891838e-06,-3.6993496905779466e-06,5.529747795662843e-05
-2.542821312090382e-05,3.542493459463003e-06,-7.049918622215046e-06,-1.5104205886018462e-07,4.9856134864967316e-05
-3.271961031714454e-05,8.07831747806631e-06,-9.5489012892358e-06,3.5381485758989584e-06,4.8969159252010286e-05
-5.095498272567056e-05,1.2719286132778507e-05,-7.0285386755131185e-06,1.1983961485384498e-06,5.354317545425147e-05
-6.50906004011631e-05,1.3302314073371235e-05,-5.604386501545378e-07,-3.517505092531792e-06,5.446197246783413e-05
-6.995556759648025e-05,9.31478280108422e-06,6.714880100844312e-07,-1.780715251697984e-06,4.935204196954146e-05
-7.491010910598561e-05,8.05677154858131e-06,-2.791625547615695e-06,1.5435859950230224e-06,4.58262802567333e-05
-8.664861525176093e-05,7.221662144729635e-06,-1.8493044535716763e-06,2.420794771751389e-06,4.66164383396972e-05
-8.901514229364693e-05,6.318070518318564e-06,2.9494190130208153e-06,-8.409485303673137e-07,4.926699693896808e-05
-6.84807964717038e-05,8.904768037609756e-06,4.4667076508631e-06,-1.7682892803350114e-06,5.403774412116036e-05
-3.953361738240346e-05,1.6514915841980837e-05,6.403399197552062e-07,-6.591560577362543e-07,5.986462929286063e-05
-2.468203274474945e-05,2.3526945369667374e-05,-7.907762665126938e-06,-1.9102533315162873e-06,6.29577916697599e-05
-3.080168244196102e-05,2.964927989523858e-05,-1.2619242625078186e-05,-3.885472779074917e-06,6.354549987008795e-05
-4.857164458371699e-05,3.589517655200325e-05,-9.472459169046488e-06,-1.2160729738752707e-06,6.45321561023593e-05
-6.631083670072258e-05,4.0211914893006906e-05,-2.3650170533073833e-06,4.3194377212785184e-06,6.600956112379208e-05
-7.575831841677427e-05,4.081355291418731e-05,6.501701591332676e-06,6.9307088779169135e-06,6.718296208418906e-05
-7.27757578715682e-05,3.762933920370415e-05,1.4115828889771365e-05,4.3785757952718996e-06,6.656512414338067e-05
-6.131845293566585e-05,3.6967205232940614e-05,1.9020666513824835e-05,4.030421791867411e-07,6.56731499475427e-05
-4.704056846094318e-05,4.23329220211599e-05,2.251246405648999e-05,-1.7695335827738745e-06,6.627414404647425e-05
-2.596805279608816e-05,4.686133252107538e-05,2.3820801288820803e-05,-3.3056794563890435e-06,6.831447535660118e-05
5.515852990356507e-06,4.1696261178003624e-05,2.0132787540205754e-05,-2.946079803223256e-06,6.849259079899639e-05
3.385476884432137e-05,3.301202741567977e-05,1.4568357073585503e-05,-1.5038680203360855e-06,6.630919233430177e-05
3.991328048869036e-05,3.262178506702185e-05,1.126877214119304e-05,-3.224253305234015e-06,6.73609902150929e-05
3.488601214485243e-05,4.045796595164575e-05,1.2328234333836008e-05,-7.197169907158241e-06,7.177916268119588e-05
3.1190869776764885e-05,4.1710809455253184e-05,1.3252424651000183e-05,-7.0276132646540646e-06,7.28626037016511e-05
2.4391436454607174e-05,3.282601392129436e-05,1.4517785530188121e-05,-4.2646488509490155e-06,6.8470741098281e-05
1.7323034626315348e-05,2.1329762603272684e-05,1.5844278095755726e-05,-4.111992438993184e-06,6.671801384072751e-05
8.316009370901156e-06,1.4778186596231535e-05,1.3236678569228388e-05,-6.7903265517088585e-06,6.46679472993128e-05
-8.031274774111807e-06,1.9146214981446974e-05,1.1128185178677086e-05,-6.64069330014172e-06,6.348359602270648e-05
-3.3253829315071926e-05,2.8821799787692726e-05,1.3200363355281297e-05,-4.418031949171564e-06,6.431410292861983e-05
-5.430619785329327e-05,3.188400296494365e-05,1.2478482858568896e-05,-2.733641395025188e-06,6.392034265445545e-05
-5.349930142983794e-05,2.865935312001966e-05,6.515459972433746e-06,-2.0367760953377e-06,6.52153612463735e-05
-3.5266704799141735e-05,2.2231804905459285e-05,2.889605184464017e-06,-2.2799110865889816e-06,6.632434815401211e-05
-1.3738857887801714e-05,1.3921969184593763e-05,3.260279527239618e-06,-2.97342671728984e-06,6.520459282910451e-05
2.8502154236775823e-06,1.2121759027650114e-05,4.1190592128259595e-06,-2.4126052267092746e-06,6.106985529186204e-05
1.1681753676384687e-05,1.829773282224778e-05,2.842024969140766e-06,-5.937556011303968e-07,5.747405157308094e-05
1.4689084309793543e-05,2.3550821424578317e-05,6.785728601244045e-07,-4.920021723364698e-08,5.453908670460805e-05
1.322424486716045e-05,2.8398693757480942e-05,-3.195545332346228e-06,7.200656568784325e-07,5.4045565775595605e-05
6.900559583300492e-06,3.646930417744443e-05,-9.044992111739703e-06,1.4896234006300801e-06,5.523569416254759e-05
-3.488021548037068e-06,4.063975575263612e-05,-9.74659724306548e-06,2.0008430112739006e-07,5.7028239098144695e-05
-1.8362334230914712e-05,3.7655598134733737e-05,-1.9325038920214865e-06,-3.3239218737435294e-06,5.79399275011383e-05
-3.7913348933216184e-05,3.2111594919115305e-05,9.078139555640519e-06,-5.402303941082209e-06,5.597480048891157e-05
-5.3467774705495685e-05,2.8296852178755216e-05,1.459582108509494e-05,-4.157777311775135e-06,5.523697109310888e-05
-5.387615237850696e-05,2.9485183404176496e-05,1.609422906767577e-05,-2.7169278382643824e-06,5.5434255045838654e-05
-4.1905674152076244e-05,3.558242678991519e-05,1.8067370547214523e-05,-3.937549536203733e-06,5.3875755838816985e-05
-3.0178955057635903e-05,4.087451452505775e-05,1.8144657587981783e-05,-5.654435881297104e-06,5.236236393102445e-05
-2.6791101845446974e-05,4.173960041953251e-05,1.7036152712535113e-05,-5.452855020848801e-06,5.419230001280084e-05
-3.502146137179807e-05,3.920849121641368e-05,1.7746733647072688e-05,-4.174054538452765e-06,5.735687955166213e-05
-5.038434755988419e-05,3.6704263038700446e-05,1.7934846255229786e-05,-2.653570845723152e-06,5.847677675774321e-05
-6.762106932001188e-05,3.7003868783358485e-05,1.6284118828480132e-05,-3.2658352466796714e-08,5.809343929286115e-05
-8.036867075134069e-05,4.079031714354642e-05,1.43854749694583e-05,3.3188832730957074e-06,5.892293847864494e-05
-7.917269977042452e-05,4.566124698612839e-05,1.2461272490327246e-05,2.288345285705873e-06,6.058898361516185e-05
-7.084236858645454e-05,4.627261296263896e-05,1.1456628271844238e-05,-3.832736638287315e-06,6.152776040835306e-05
-6.355749792419374e-05,3.972211925429292e-05,9.074353329197038e-06,-9.986925761040766e-06,5.647648504236713e-05
-5.774737655883655e-05,3.855415343423374e-05,6.504912562377285e-06,-1.2421064639056567e-05,5.453154881251976e-05
-4.661837374442257e-05,4.465669917408377e-05,5.817622422910063e-06,-9.159836736216675e-06,6.11045106779784e-05
-2.491084160283208e-05,4.0342936699744314e-05,4.39343739344622e-06,-6.503318218165077e-06,6.601140194106847e-05
2.5159110919048544e-06,2.4656736059114337e-05,4.725866915578081e-07,-6.983035291341366e-06,6.646720430580899e-05
2.109556953655556e-05,1.6326655895682052e-05,-3.283972091594478e-06,-6.073002623452339e-06,6.454746471717954e-05
1.9649909518193454e-05,2.286223207192961e-05,-2.711178467507125e-06,-5.195057383389212e-06,6.121634942246601e-05
2.143393885489786e-06,2.830151788657531e-05,-5.845315058650158e-07,-6.537869012390729e-06,5.629231964121573e-05
-1.7809110431699082e-05,2.6876992706093006e-05,3.7690526255573786e-07,-8.30620774650015e-06,5.305545710143633e-05
-2.715199843805749e-05,2.5834857297013514e-05,-1.7605648281460162e-06,-1.0416959412395954e-05,5.215453347773291e-05
-2.653270712471567e-05,2.8417020075721666e-05,-4.2509263948886655e-06,-1.2418525329849217e-05,5.478158709593117e-05
-2.3713982955086976e-05,2.839419903466478e-05,-4.385355168778915e-06,-1.3189408491598442e-05,6.019488500896841e-05
-2.3711811081739143e-05,2.099277298839297e-05,-6.103088708186988e-06,-1.638912181078922e-05,6.380205013556406e-05
-2.3227370547829196e-05,1.2625474482774734e-05,-7.144255960156443e-06,-2.10360321943881e-05,6.350502371788025e-05
-2.358719939365983e-05,1.3390014828473795e-05,-5.465857611852698e-06,-2.239066088804975e-05,6.265110278036445e-05
-2.8996231776545756e-05,2.206392673542723e-05,-1.6243777736235643e-06,-1.8185846784035675e-05,6.435652903746814e-05
-3.708131771418266e-05,2.4054012101260014e-05,7.07578351466509e-07,-1.260644512512954e-05,6.768503226339817e-05
-4.1327395592816174e-05,1.6736168618081138e-05,9.499393058831629e-07,-1.0416873919893987e-05,6.719458178849891e-05
-3.9810638554627076e-05,1.2858065929322038e-05,7.490071993743186e-07,-9.94924357655691e-06,6.365482840919867e-05
-3.590339474612847e-05,1.6865049474290572e-05,2.1009427655371837e-06,-7.57716679800069e-06,6.204299279488623e-05
-3.286217906861566e-05,2.1686655600205995e-05,6.667941761406837e-06,-6.978465080464957e-06,6.0944497818127275e-05
-3.144063157378696e-05,2.5686475055408664e-05,1.3383672921918333e-05,-8.180518307199236e-06,5.721629713661969e-05
-3.2281528547173366e-05,2.8438113076845184e-05,1.883917866507545e-05,-1.0039274457085412e-05,5.1978189731016755e-05
-3.471293530310504e-05,3.3536547562107444e-05,1.8612301573739387e-05,-1.478788999520475e-05,4.9819398554973304e-05
-3.243337414460257e-05,4.082417217432521e-05,1.308429091295693e-05,-1.4868413018120918e-05,4.874203659710474e-05
-2.6565490770735778e-05,5.106581375002861e-05,8.63407058204757e-06,-9.824310836847872e-06,4.784400516655296e-05
-2.242047594336327e-05,5.97138459852431e-05,9.442735063203145e-06,-5.292178229865385e-06,5.032180706621148e-05
-1.5907078704913147e-05,6.0374797612894326e-05,1.1697009540512227e-05,-3.09403071696579e-06,5.158214480616152e-05
-7.233091309899464e-06,5.5757012887625024e-05,1.4846305930404924e-05,-2.405974100838648e-06,5.2832892833976075e-05
-1.2524910175670811e-07,5.033901834394783e-05,1.6066560419858433e-05,-4.719795470009558e-06,5.695136496797204e-05
6.5316589825670235e-06,4.905377863906324e-05,1.0418048987048678e-05,-1.0039584594778717e-05,6.183663208503276e-05
7.500978881580522e-06,4.7544621338602155e-05,2.7705123102350626e-06,-1.5490446457988583e-05,6.649245187873021e-05
2.557007519499166e-06,4.5694290747633204e-05,-1.1640224784059683e-06,-1.5404906662297435e-05,6.687260611215606e-05
-2.5506574274913874e-06,4.572591569740325e-05,-1.189172394333582e-06,-9.136149856203701e-06,6.456403207266703e-05
-6.508869773824699e-06,4.800662281922996e-05,-3.487767514798179e-07,-4.3493409975781105e-06,5.98480983171612e-05
-1.103510567190824e-05,4.704589809989557e-05,8.316330308844044e-07,-3.3407598039048025e-06,5.632579996017739e-05
-1.6700381820555776e-05,4.318454011809081e-05,2.5428134904359467e-06,-5.7009319789358415e-06,5.4822889069328085e-05
-1.7034923075698316e-05,3.981297049904242e-05,6.4427490542584565e-06,-9.982720257539768e-06,5.234366108197719e-05
-1.1208210707991384e-05,3.599602496251464e-05,1.0560685041127726e-05,-1.4719376849825494e-05,5.1848022849299014e-05
-8.705776963324752e-06,2.9898266802774742e-05,9.750457138579804e-06,-1.853517460403964e-05,5.6118973589036614e-05
-1.2993640666536521e-05,1.880444870039355e-05,6.593412308575353e-06,-2.2275342416833155e-05,5.837420394527726e-05
-1.9856799553963356e-05,9.25374661164824e-06,7.478798124793684e-06,-2.48953092523152e-05,5.306594539433718e-05
-2.4647557438584045e-05,1.3478901564667467e-05,1.2555567991512362e-05,-2.4619257601443678e-05,4.48124083050061e-05
-2.9468288630596362e-05,2.767273508652579e-05,1.4345534509629942e-05,-2.0891355234198272e-05,3.7744965084129944e-05
-4.162187906331383e-05,3.730635580723174e-05,1.2046805750287604e-05,-1.4498208656732459e-05,3.1439998565474525e-05
-6.026719347573817e-05,3.650015059974976e-05,7.451065812347224e-06,-7.790605195623357e-06,2.7842843337566592e-05
-7.338517752941698e-05,2.6419311325298622e-05,-3.741144496416382e-07,-1.936540911628981e-06,2.931124072347302e-05
-7.023453508736566e-05,1.4336204912979156e-05,-1.1911798537767027e-05,-6.58577505419089e-07,3.3291758882114664e-05
-5.32444792042952e-05,9.587446584191639e-06,-2.2043421267881058e-05,-4.172392436885275e-06,4.0277023799717426e-05
-3.726650174940005e-05,1.102411169995321e-05,-2.4435214072582312e-05,-4.723731763078831e-06,4.989610897609964e-05
-3.335883957333863e-05,1.4578442460333463e-05,-1.697046718618367e-05,-1.808365141187096e-06,6.409685011021793e-05
-3.796720920945518e-05,1.5716472262283787e-05,-3.85372550226748e-06,-1.7922926645042025e-06,8.153233648044989e-05
-4.193287168163806e-05,1.052231527864933e-05,7.657524292881135e-06,-3.913449290848803e-06,9.54499701038003e-05
-3.9799833757570013e-05,8.42675035528373e-06,1.495523247285746e-05,-5.063220669399016e-06,0.00010334639955544844
-1.2706715097010601e-05,1.2392978533171117e-05,1.6998788851196878e-05,-7.883213584136683e-06,0.00010894449951592833
3.0314293326227926e-05,1.5332467228290625e-05,1.550647539261263e-05,-1.352356412098743e-05,0.00011234056728426367
4.513204476097599e-05,1.8314960470888764e-05,1.516052543593105e-05,-1.6243488062173128e-05,0.0001100625449907966
2.3499829694628716e-05,2.8785510949091986e-05,1.662714930716902e-05,-1.3641100849781651e-05,0.00010350908269174397
-1.2230411812197417e-05,3.92590336559806e-05,1.7794969608075917e-05,-1.1438871297286823e-05,9.600929479347542e-05
-3.618601112975739e-05,4.226646706229076e-05,1.489640271756798e-05,-1.2752218935929704e-05,8.88897993718274e-05
-4.167816223343834e-05,3.8991023757262155e-05,8.617257662990596e-06,-1.308086393692065e-05,8.129855268634856e-05
-3.421419023652561e-05,2.9813245419063605e-05,3.5674568152899155e-06,-1.3731311810261104e-05,7.372516847681254e-05
-2.7322117603034712e-05,1.809448622225318e-05,4.359912054496817e-06,-1.618138594494667e-05,6.775579822715372e-05
-3.1192445021588355e-05,1.4068926248000935e-05,7.405632914014859e-06,-1.869045627245214e-05,6.264766125241295e-05
-4.2260715417796746e-05,1.3219932043284643e-05,8.692633855389431e-06,-2.0017876522615552e-05,5.7428816944593564e-05
-5.6594515626784414e-05,1.1507867384352721e-05,9.481743290962186e-06,-1.8956610801978968e-05,5.467080700327642e-05
-6.472889799624681e-05,1.1254170203756075e-05,9.032440175360534e-06,-1.5980354874045588e-05,5.425277413451113e-05
-5.882053665118292e-05,1.3802525245409925e-05,6.663130534434458e-06,-1.4446058230532799e-05,5.4020274546928704e-05
-4.235372762195766e-05,1.8806738808052614e-05,2.812328375512152e-06,-1.3052855138084851e-05,5.268833047011867e-05
-3.004478639923036e-05,2.536802458052989e-05,-6.432862278415996e-07,-1.0867056516872253e-05,5.0469578127376735e-05
-3.0233321012929082e-05,3.052709507755935e-05,-6.28144107395201e-06,-1.2265294571989216e-05,5.0355560233583674e-05
-3.3253541914746165e-05,2.5759258278412744e-05,-1.634916043258272e-05,-1.686514042376075e-05,5.111101199872792e-05
-2.054983087873552e-05,1.1849606380565092e-05,-2.7143440092913806e-05,-1.931312908709515e-05,5.145851901033893e-05
7.605516202602303e-06,1.225978962793306e-06,-3.092772021773271e-05,-1.737680759106297e-05,5.1850711315637454e-05
2.7343325200490654e-05,5.0613707571756095e-06,-2.722962926782202e-05,-1.535761657578405e-05,5.226244684308767e-05
1.780112143023871e-05,1.4444747648667544e-05,-1.8070497389999218e-05,-1.7337340977974236e-05,5.151446021045558e-05
-1.8334738342673518e-05,2.0541729099932127e-05,-8.129262823786121e-06,-2.154839785362128e-05,4.921984873362817e-05
-6.163398938952014e-05,2.3445165425073355e-05,3.566896396023367e-07,-2.4084509277599864e-05,4.922055813949555e-05
-8.598573185736313e-05,2.7766691346187145e-05,1.1479412933113053e-05,-2.3151431378209963e-05,5.237010554992594e-05
-7.348746294155717e-05,3.5250843211542815e-05,2.387164749961812e-05,-2.2356180124916136e-05,5.71522832615301e-05
-3.300133175798692e-05,4.241834903950803e-05,3.159958214382641e-05,-2.4474222300341353e-05,6.073215263313614e-05
9.05710749066202e-06,4.023573637823574e-05,3.4150238207075745e-05,-2.5687388188089244e-05,6.251702143345028e-05
2.5655377612565644e-05,3.852881854982115e-05,3.017158087459393e-05,-2.653238880157005e-05,6.326328730210662e-05
1.8326740246266127e-05,4.489620550884865e-05,2.2192198230186477e-05,-2.808813405863475e-05,5.8992241974920034e-05
8.183206432477164e-07,4.64038566860836e-05,1.829858956625685e-05,-2.773492451524362e-05,5.3064584790263325e-05
-1.6163676264113747e-05,3.218980418751016e-05,1.9202889234293252e-05,-2.493399369996041e-05,4.767356949741952e-05
-2.3566950403619558e-05,9.440414942218922e-06,2.0017681890749373e-05,-2.2183552573551424e-05,4.3909501982852817e-05
-2.898809361795429e-05,-4.622357963057766e-08,1.427327879355289e-05,-1.9564122339943424e-05,4.513875683187507e-05
-3.240858859498985e-05,9.040192708198447e-06,5.212029464018997e-06,-1.9196810171706602e-05,4.888109469902702e-05
-3.282186298747547e-05,1.9847544535878114e-05,1.2035552572342567e-06,-1.8696409824769944e-05,5.109310950501822e-05
-3.140958506264724e-05,2.2980784706305712e-05,4.575556431518635e-06,-1.8444930901750922e-05,4.975946285412647e-05
-3.173327786498703e-05,1.7422747987438925e-05,1.149377476394875e-05,-1.8858385374187492e-05,4.973364411853254e-05
-3.524917701724917e-05,3.6215199088474037e-06,1.758610233082436e-05,-1.978584987227805e-05,5.3139538067625836e-05
-3.878802453982644e-05,-4.9915461204363964e-06,1.851980596256908e-05,-1.9102037185803056e-05,5.6519445934100077e-05
-4.1895254980772734e-05,4.1025618884305e-06,1.4731885130458977e-05,-1.648602483328432e-05,5.8034212997881696e-05
-4.002770219813101e-05,2.6836234610527754e-05,9.0262155936216e-06,-1.5116436770767905e-05,5.5510306992800906e-05
-2.9547178201028146e-05,4.906851245323196e-05,2.1663713596353773e-06,-1.4364359230967239e-05,4.9812144425231963e-05
-1.6207273802137934e-05,6.551075784955174e-05,-2.890516270781518e-06,-1.3802289686282165e-05,4.65481098217424e-05
-9.669276550994255e-06,7.73514257161878e-05,-2.510321337467758e-06,-1.1363060366420541e-05,4.558058572001755e-05
-7.586602805531584e-06,8.67872076923959e-05,4.263938535586931e-07,-8.261064067482948e-06,4.578579682856798e-05
-4.873475518252235e-06,8.850938320392743e-05,1.0539333743508905e-06,-6.437076535803499e-06,4.699985947809182e-05
-2.1517087134270696e-06,7.681126589886844e-05,1.4905817806720734e-06,-8.921993867261335e-06,4.849884135182947e-05
-5.187150236451998e-06,5.385099575505592e-05,3.273213678767206e-06,-1.2059178516210523e-05,5.322483411873691e-05
-1.6499274352099746e-05,2.5404460757272318e-05,2.728516165007022e-06,-1.3657986528414767e-05,5.913209679420106e-05
-3.558373646228574e-05,1.149597324001661e-06,-3.3608616831770632e-06,-1.372298356727697e-05,6.0790611314587295e-05
-5.679048990714364e-05,-5.179983418202028e-06,-9.895770745060872e-06,-1.2376864106045105e-05,6.0669601225527003e-05
-6.79486183798872e-05,4.0793347579892725e-06,-1.0983650099660736e-05,-8.563507435610518e-06,6.008772470522672e-05
-6.332892371574417e-05,1.2094516023353208e-05,-8.03815510153072e-06,-3.8846483221277595e-06,5.8530033129500225e-05
-4.7611581976525486e-05,1.3272411706566345e-05,-6.017455689288909e-06,-7.2570460361021105e-06,5.687756129191257e-05
-3.272799585829489e-05,1.8471859220881015e-05,-6.337211743812077e-06,-1.17786639748374e-05,5.384259202401154e-05
-2.2040063413442113e-05,3.823261067736894e-05,-1.8840241864381824e-06,-1.052992774930317e-05,5.284045619191602e-05
-1.5553105185972527e-05,5.371505540097132e-05,3.2564742014074e-06,-9.629061423765961e-06,5.5526270443806425e-05
-1.5754027117509395e-05,5.1910752517869696e-05,4.320024800108513e-06,-1.0790109627123456e-05,5.790125942439772e-05
-1.7590207789908163e-05,4.3558775359997526e-05,6.7395349105936475e-06,-1.2807944585802034e-05,6.013103848090395e-05
-2.4049795683822595e-05,3.674106119433418e-05,9.456739462621044e-06,-1.2812378372473177e-05,6.221012881724164e-05
-3.409114287933335e-05,3.566059604054317e-05,1.0964214197883848e-05,-1.2984641216462478e-05,6.365685840137303e-05
-4.167225779383443e-05,3.7183410313446075e-05,1.1212925528525375e-05,-1.250236437044805e-05,6.376537203323096e-05
-4.212381099932827e-05,3.6633988202083856e-05,9.75280454440508e-06,-8.76221565704327e-06,6.069050868973136e-05
-3.540857142070308e-05,3.6380770325195044e-05,5.35690469405381e-06,-4.62893558506039e-06,5.648861042573117e-05
-2.0900544768664986e-05,4.1468971176072955e-05,2.321994543308392e-06,-4.566064035316231e-06,5.452324330690317e-05
-5.0000730880128685e-06,4.788714795722626e-05,2.8026890959154116e-06,-6.853095328551717e-06,5.4563115554628894e-05
4.08588948630495e-06,5.307508399710059e-05,6.402264261851087e-06,-8.92290972842602e-06,5.440175664261915e-05
7.194877980509773e-06,5.56196719116997e-05,1.2288684956729412e-05,-1.064652042259695e-05,5.268852328299545e-05
4.726960014522774e-06,5.228200097917579e-05,1.7105719962273724e-05,-1.0469746484886855e-05,5.0976570491911843e-05
-1.1620494433373096e-06,4.5378274080576375e-05,1.7579824998392724e-05,-7.7742115536239e-06,5.014900671085343e-05
-1.1383624041627627e-05,3.8384288927773014e-05,1.4118789295025636e-05,-5.072617113910383e-06,4.699165219790302e-05
-2.4154862330760807e-05,3.1571904401062056e-05,1.0623541129461955e-05,-4.915334557153983e-06,4.406004154589027e-05
-3.461826054262929e-05,2.5057077436940745e-05,1.1404499673517421e-05,-4.477036782191135e-06,4.4180687837069854e-05
-3.928806836484e-05,1.94636668311432e-05,1.4671443750557955e-05,-4.1842777136480436e-06,4.8059566324809566e-05
-4.264742892701179e-05,1.687787334958557e-05,1.3275990568217821e-05,-5.701761892851209e-06,5.5098174925660715e-05
-4.611475742422044e-05,2.147529085050337e-05,1.020815489027882e-05,-6.4284936343028676e-06,6.195631431182846e-05
-5.3068924898980185e-05,2.641051833052188e-05,1.0289119018125348e-05,-4.510671715252101e-06,6.65712432237342e-05
-6.037736966391094e-05,2.6186378818238154e-05,1.2741508726321626e-05,-4.401408205012558e-06,6.630158895859495e-05
-5.979940397082828e-05,2.5290928533650003e-05,1.4408808056032285e-05,-6.035341812093975e-06,5.9503221564227715e-05
-5.5038282880559564e-05,2.6331872504670173e-05,1.4772615031688474e-05,-7.299401659111027e-06,5.0614482461242005e-05
-5.128692646394484e-05,2.4953309548436664e-05,1.3043593753536697e-05,-9.753079211805016e-06,4.6352513891179115e-05
-5.329474151949398e-05,2.3579383196192794e-05,7.538837508036522e-06,-1.4213463146006688e-05,4.851492849411443e-05
-5.722864079871215e-05,2.4332257453352213e-05,4.372209332359489e-06,-1.560239434184041e-05,5.2525683713611215e-05
-5.706139563699253e-05,2.3253980543813668e-05,5.549104571400676e-06,-1.5004314263933338e-05,5.394820254878141e-05
-4.4381857151165605e-05,2.1227966499282047e-05,3.983715032518376e-06,-1.6204345229198225e-05,5.597717972705141e-05
-9.13884741748916e-06,1.673971928539686e-05,1.0623269872667152e-06,-1.3890435184293892e-05,5.791421790490858e-05
2.9081484171911143e-05,1.3243006833363324e-05,-1.7334642734567751e-06,-9.567447705194354e-06,5.9979651268804446e-05
4.164159327046946e-05,9.42392125580227e-06,-3.2544635359954555e-06,-7.29503290131106e-06,6.456355913542211e-05
2.28901335503906e-05,5.454691745399032e-06,-2.6643970159057062e-06,-6.046340786269866e-06,6.617519102292135e-05
-5.495758159668185e-06,5.391081231209682e-06,-2.379649004069506e-06,-5.714575308957137e-06,6.436774128815159e-05
-2.3562948626931757e-05,1.2359663742245175e-05,-2.8665367608482484e-06,-7.328108040383086e-06,6.214760651346296e-05
-2.8066206141375005e-05,2.608216709631961e-05,-4.253617134963861e-06,-7.952347914397251e-06,6.05854183959309e-05
-2.8099071641918272e-05,3.8484471588162705e-05,-4.7009762056404725e-06,-4.414853265188867e-06,5.95759047428146e-05
-3.266840212745592e-05,4.3898682633880526e-05,-3.184085699103889e-06,-2.3179322852229234e-06,5.972317376290448e-05
-4.031311982544139e-05,4.054302189615555e-05,-1.8229949318993022e-06,-4.08475079893833e-06,5.953485015197657e-05
-4.562423418974504e-05,3.297290822956711e-05,-2.8959238989045843e-06,-4.803898264071904e-06,5.876356954104267e-05
-4.5786993723595515e-05,2.7288206183584407e-05,-3.3779756449803244e-06,-1.2081787872375571e-06,5.944131044088863e-05
-4.200874536763877e-05,2.5508023099973798e-05,9.47153296237957e-07,3.818242930719862e-06,6.111532275099307e-05
-3.5281576856505126e-05,1.5192919818218797e-05,7.344257483055117e-06,5.655148470395943e-06,6.220577779458836e-05
-3.167626346112229e-05,-6.122125341789797e-06,7.235534667415777e-06,3.16671116706857e-06,6.275146006373689e-05
-3.281470344518311e-05,-1.60106792463921e-05,2.508054421923589e-07,-1.932030727402889e-06,6.357510574162006e-05
-3.4278018574696034e-05,-3.270833303758991e-06,-5.395980224420782e-06,-3.938442205253523e-06,6.25697139184922e-05
-3.2967396691674367e-05,1.6985952242976055e-05,-5.744123427575687e-06,-1.5759615052957088e-06,5.9324793255655095e-05
-3.29619761032518e-05,3.324148565297946e-05,-2.083361778204562e-06,-5.6664553937935125e-08,5.584252721746452e-05
-3.6081841244595125e-05,4.008244286524132e-05,2.411309765193437e-07,-5.171745556253882e-07,5.540327765629627e-05
-3.811174610746093e-05,3.801187267526984e-05,-1.0747185115178581e-06,-2.509369323888677e-06,5.946317105554044e-05
-3.903068136423826e-05,3.537667726050131e-05,2.9781142529827775e-07,-3.7757909012725577e-06,6.249995203688741e-05
-3.919632945326157e-05,3.657008346635848e-05,6.732386736985063e-06,-4.19342268287437e-06,5.923037315369584e-05
-3.845275932690129e-05,4.276285108062439e-05,1.098076972994022e-05,-4.510692633630242e-06,5.778482955065556e-05
-3.980311521445401e-05,4.839053508476354e-05,1.1029519555449951e-05,-2.378523959123413e-06,5.967246033833362e-05
-4.2533636587904766e-05,4.634232391254045e-05,9.582719030731823e-06,-1.877242766568088e-06,5.868569132871926e-05
-4.700377394328825e-05,3.996414307039231e-05,5.672129191225395e-06,-6.2878634707885794e-06,5.587508712778799e-05
-3.834833114524372e-05,3.98431220673956e-05,5.2115537982899696e-06,-1.1607005035330076e-05,5.438993684947491e-05
-8.603457899880596e-06,4.403205821290612e-05,7.955981345730834e-06,-1.1246127542108297e-05,5.426974894362502e-05
2.2784577595302835e-05,4.4527900172397494e-05,8.076401172729675e-06,-9.998770110541955e-06,5.3516159823630005e-05
3.147925963276066e-05,4.082140731043182e-05,6.87348301653401e-06,-1.163216438726522e-05,5.503719512489624e-05
1.3610832866106648e-05,4.0168699342757463e-05,6.158672931633191e-06,-1.220874491991708e-05,5.7106393796857446e-05
-1.0386191206634976e-05,4.5799479266861454e-05,7.684647243877407e-06,-1.1909791282960214e-05,6.115041469456628e-05
-2.6779207473737188e-05,4.888973853667267e-05,1.0311053301848006e-05,-1.1567410183488391e-05,6.684844265691936e-05
-4.215074295643717e-05,3.7433565012179315e-05,1.2200306628074031e-05,-1.2535087989817839e-05,6.60401419736445e-05
-5.917394446441904e-05,1.6247749954345636e-05,1.2807079656340647e-05,-1.3471119018504396e-05,5.9847243392141536e-05
-6.520462193293497e-05,6.362308340612799e-06,1.1035927855118643e-05,-1.2816747585020494e-05,5.4810618166811764e-05
-5.6199642131105065e-05,1.3064255654171575e-05,7.711528269283008e-06,-1.1663158147712238e-05,5.500993938767351e-05
-3.6276582250138745e-05,2.2371577870217152e-05,2.5011279376485618e-06,-9.634839443606324e-06,5.9533482271945104e-05
-1.1502163033583201e-05,2.3919361410662532e-05,-5.323513050825568e-06,-8.204666301026009e-06,6.340226536849514e-05
8.716300726518966e-06,2.188713006034959e-05,-1.0443141945870593e-05,-8.43886755319545e-06,6.489865336334333e-05
1.3162077266315464e-05,2.5297335014329292e-05,-7.4186928031849675e-06,-7.813870070094708e-06,6.600508640985936e-05
4.3655345507431775e-06,3.289816595497541e-05,1.0412850315333344e-06,-4.665740561904386e-06,6.657116318820044e-05
-1.1338978765706997e-05,3.525560168782249e-05,9.674990906205494e-06,-2.2300037016975693e-06,6.38684505247511e-05
-3.605682650231756e-05,3.0444094591075554e-05,1.668420918576885e-05,-8.791460004431428e-07,6.056071288185194e-05
-6.035823389538564e-05,2.055364166153595e-05,2.3576998501084745e-05,4.1617122406023555e-06,6.038988794898614e-05
-6.222145020728931e-05,1.0417852536193095e-05,3.0168306693667546e-05,1.088919543690281e-05,6.354662764351815e-05
-4.477045149542391e-05,8.859613444656134e-06,3.3340165828121826e-05,1.3251111340650823e-05,6.680779188172892e-05
-3.4255364880664274e-05,1.4228877262212336e-05,3.5639433917822316e-05,1.3892139577365015e-05,6.556548760272563e-05
-3.336172449053265e-05,2.2984693714533933e-05,3.7305697333067656e-05,1.398767108184984e-05,5.846884232596494e-05
-2.7602047339314595e-05,3.0086301194387488e-05,3.667521013994701e-05,1.3575896446127445e-05,5.430358578450978e-05
-1.7336313248961233e-05,3.601588468882255e-05,3.38834615831729e-05,1.6311400031554513e-05,5.8337707741884515e-05
-1.5757274013594724e-05,4.190538311377168e-05,3.063579788431525e-05,1.901138421089854e-05,6.010024299030192e-05
-2.624940316309221e-05,3.973311322624795e-05,2.6268648070981726e-05,1.8336995708523318e-05,5.9268790209898725e-05
-3.101631227764301e-05,2.536606916692108e-05,1.670620622462593e-05,9.159288310911506e-06,5.764178786193952e-05
-1.5499708752031438e-05,7.722432201262563e-06,5.9265075833536685e-06,-7.957582056405954e-06,5.8762725529959425e-05
1.3515819773601834e-05,9.599931217962876e-06,-3.8101501331766485e-07,-2.779309215839021e-05,6.125833169789985e-05
3.365567681612447e-05,2.9894619729020633e-05,-4.088647528988076e-06,-4.662727951654233e-05,6.089384260121733e-05
3.143941648886539e-05,4.738485949928872e-05,-7.800952516845427e-06,-5.941441122558899e-05,5.42827692697756e-05
1.593168781255372e-05,5.1158149290131405e-05,-1.1565333807084244e-05,-6.24546009930782e-05,4.374606942292303e-05
-9.994369065680075e-07,4.9708494771039113e-05,-1.4400662621483207e-05,-5.722368587157689e-05,3.215008109691553e-05
-1.0843205018318258e-05,4.6639033826068044e-05,-1.3892517927160952e-05,-5.017947478336282e-05,1.9713008441613056e-05
-9.355890142614953e-06,3.13300515699666e-05,-1.3141447197995149e-05,-4.4555519707500935e-05,1.1530736628628802e-05
2.9800091851939214e-06,1.0393909178674221e-05,-1.2371201592031866e-05,-3.86895117117092e-05,8.28435440780595e-06
1.8320779417990707e-05,9.932210787155782e-07,-9.922640856530052e-06,-3.169920819345862e-05,1.3342220881895628e-05
2.447256338200532e-05,7.797641046636272e-06,-6.179646788950777e-06,-2.7118978323414922e-05,2.7628180760075338e-05
1.7366970496368594e-05,1.737587444949895e-05,-3.2118837225425523e-06,-2.3620508727617562e-05,4.508169513428584e-05
-3.990815002907766e-06,1.6497044271091e-05,-1.3874375781597337e-06,-1.675868043093942e-05,5.82421816943679e-05
-4.367044675746001e-05,6.877051418996416e-06,1.442957341168949e-06,-8.575696483603679e-06,7.006713713053614e-05
-8.935509686125442e-05,-8.150429948727833e-07,5.08791845277301e-06,-6.060089617676567e-06,8.13910664874129e-05
-0.00010916283645201474,2.556146228016587e-07,6.239701633603545e-06,-7.522482974309241e-06,9.263274841941893e-05
-8.42654044390656e-05,1.0656407539499924e-05,4.618893854058115e-06,-6.581784873560537e-06,0.00010217134695267305
-3.642113370005973e-05,2.0722289264085703e-05,2.4329119696631096e-06,-3.057202775380574e-06,0.0001037722613546066
-1.081189293472562e-05,2.4978799046948552e-05,1.1202811265320634e-06,9.568291261530248e-07,9.746013529365882e-05
-2.3367107132798992e-05,2.5925392037606798e-05,3.028031414942234e-06,2.675732503121253e-06,9.274180774809793e-05
-4.6686378482263535e-05,3.295870919828303e-05,5.509354195964988e-06,-1.3610938367492054e-06,8.883605187293142e-05
-5.31528567080386e-05,4.997347787139006e-05,9.321403922513127e-06,-6.875941835460253e-06,8.552336657885462e-05
-4.12651315855328e-05,6.415877578547224e-05,1.3127523743605707e-05,-9.412730832991656e-06,8.401196100749075e-05
-2.1067244233563542e-05,6.764483987353742e-05,1.3283583029988222e-05,-9.109520760830492e-06,8.14438026282005e-05
4.5965534809511155e-06,6.259348447201774e-05,9.63601723924512e-06,-7.463020210707327e-06,7.893821748439223e-05
3.047590325877536e-05,4.8145604523597285e-05,2.079790874631726e-06,-6.7262894845043775e-06,7.182803528849036e-05
3.768339229281992e-05,2.7702977604349144e-05,-8.435973541054409e-06,-8.345345122506842e-06,6.303993723122403e-05
1.7676225979812443e-05,1.837027411966119e-05,-1.6310825230902992e-05,-1.0844070857274346e-05,5.692152262781747e-05
-5.965873697277857e-06,1.810384310374502e-05,-1.6062464055721648e-05,-9.219126695825253e-06,5.654978667735122e-05
-6.204550118127372e-06,1.8415121303405613e-05,-8.27682924864348e-06,-9.175806553685106e-06,5.8620724303182214e-05
1.0162548278458416e-05,2.2914693545317277e-05,1.0772356517918524e-07,-1.1742486094590276e-05,5.764433080912568e-05
1.872527354862541e-05,3.09139650198631e-05,5.400428108259803e-06,-1.0944125278911088e-05,5.583059464697726e-05
7.278555926859553e-07,3.273810216342099e-05,1.0698109690565616e-05,-5.9021031120209955e-06,5.518644320545718e-05
-3.8913341995794326e-05,3.000082324433606e-05,1.617725683900062e-05,-7.725998329988215e-07,5.7497050875099376e-05
-7.468930562026799e-05,3.2700892916182056e-05,2.1036403268226422e-05,5.392510956880869e-06,6.376711098710075e-05
-8.473722846247256e-05,4.068581620231271e-05,2.532137295929715e-05,1.142385917773936e-05,7.0149042585399e-05
-6.915864651091397e-05,4.2833315092138946e-05,2.6861624064622447e-05,1.0965358342218678e-05,7.230054325191304e-05
-4.687409818870947e-05,2.431741086184047e-05,2.4277505872305483e-05,4.450521828402998e-06,7.390256359940395e-05
-3.41640152328182e-05,-4.864094535150798e-06,2.0410239812918007e-05,-1.971680603674031e-06,7.704853487666696e-05
-3.3037162211257964e-05,-1.2012148545181844e-05,1.820137731556315e-05,-5.053215318184812e-06,7.75144508224912e-05
-3.446299524512142e-05,6.694533112749923e-06,1.6726042304071598e-05,-9.100637726078276e-06,7.395350257866085e-05
-3.429052230785601e-05,2.5277298846049234e-05,1.3633934941026382e-05,-1.6364825569326058e-05,6.919341831235215e-05
-3.438854400883429e-05,3.673565879580565e-05,1.0322696653020103e-05,-2.125442370015662e-05,6.323206616798416e-05
-3.546734660631046e-05,4.562299727695063e-05,1.0535188266658224e-05,-1.7866745110950433e-05,5.6577991927042603e-05
-3.748658127733506e-05,4.940268991049379e-05,1.2221315955684986e-05,-9.117324225371704e-06,4.9852947995532304e-05
-4.2315758037148044e-05,4.2886593291768804e-05,1.0351784112572204e-05,-2.054824562947033e-06,4.028207331430167e-05
-4.69965671072714e-05,3.078627560171299e-05,1.7659784816714819e-06,-3.4667957606870914e-06,3.0467619581031613e-05
-4.543986142380163e-05,2.2236510631046258e-05,-1.0868355275306385e-05,-1.0436624506837688e-05,2.8437139917514287e-05
-4.143701880821027e-05,1.859332223830279e-05,-2.1117390133440495e-05,-1.7652804672252387e-05,3.727503280970268e-05
-4.4759453885490075e-05,2.0012439563288353e-05,-2.7668711481965147e-05,-2.0469326045713387e-05,4.824125426239334e-05
-4.545613410300575e-05,2.0796016542590223e-05,-2.7356125428923406e-05,-2.172751737816725e-05,5.519831756828353e-05
-3.9959671994438395e-05,2.1744617697549984e-05,-2.2188349248608574e-05,-2.290585143782664e-05,6.140711775515229e-05
-3.5609064070740715e-05,2.436183422105387e-05,-1.8207309040008113e-05,-2.464675526425708e-05,7.004342478467152e-05
-3.1728395697427914e-05,2.4579165256000124e-05,-1.5253441233653575e-05,-2.86557315121172e-05,7.892196299508214e-05
-3.110423858743161e-05,2.878462510125246e-05,-1.8765391359920613e-05,-2.8666225261986256e-05,8.332422294188291e-05
-3.334106077090837e-05,2.931157905550208e-05,-2.721346572798211e-05,-2.617832251416985e-05,8.150665235007182e-05
-3.498794831102714e-05,2.19897847273387e-05,-2.9093105695210397e-05,-2.4908715204219334e-05,7.68639292800799e-05
-3.205263783456758e-05,1.4132379874354228e-05,-2.5767349143279716e-05,-2.2771891963202506e-05,7.168189767980948e-05
-3.166677197441459e-05,8.751477253099438e-06,-2.195029446738772e-05,-1.5939118384267204e-05,6.650990690104663e-05
-3.090232712565921e-05,9.306027095590252e-06,-1.6369609511457384e-05,-8.581676411267836e-06,6.13455631537363e-05
-2.607435453683138e-05,1.6532663721591234e-05,-5.639529263135046e-06,-5.237238383415388e-06,5.6158562074415386e-05
-2.111848516506143e-05,2.6214127501589246e-05,6.737554485880537e-06,-6.618256975343684e-06,5.1602281018858775e-05
-1.8600854673422873e-05,3.486245623207651e-05,1.6062344002421014e-05,-1.0576672138995491e-05,4.79735535918735e-05
-1.9300165149616078e-05,4.6220167860155925e-05,2.1706617189920507e-05,-1.2319965208007488e-05,4.6805878810118884e-05
-2.1989299057167955e-05,6.0031976317986846e-05,2.3431051886291243e-05,-1.1473354788904544e-05,4.7204051952576265e-05
-2.7574855266720988e-05,6.909456715220585e-05,2.2171070668264292e-05,-1.1456517313490622e-05,4.562025060295127e-05
-3.3439024264225736e-05,7.01673052390106e-05,1.992928264371585e-05,-1.3203292837715708e-05,4.4725693442160264e-05
-3.595010639401153e-05,6.588813266716897e-05,1.8217917386209592e-05,-1.3794481674267445e-05,4.59552466054447e-05
-3.401261710678227e-05,5.587668783846311e-05,1.660182715568226e-05,-1.329148744844133e-05,4.572153920889832e-05
-2.7983456675428897e-05,4.6481720346491784e-05,1.5141082258196548e-05,-1.134796730184462e-05,4.536456981441006e-05
-2.194868284277618e-05,4.3601743527688086e-05,1.5802310372237116e-05,-8.46747661853442e-06,4.8660251195542514e-05
-2.5632627512095496e-05,4.190473191556521e-05,1.7460570234106854e-05,-6.335148555081105e-06,5.403588875196874e-05
-3.2564745197305456e-05,3.92404108424671e-05,1.6989373762044124e-05,-5.037701157561969e-06,5.396056440076791e-05
-3.274173286627047e-05,3.4605891414685175e-05,1.5742351024528034e-05,-4.6226568883867e-06,5.006144056096673e-05
-2.2428337615565397e-05,1.9580773368943483e-05,1.3003511412534863e-05,-3.519152869557729e-06,4.748607170768082e-05
-6.278067758103134e-06,-9.5715240604477e-06,1.5128200175240636e-05,2.271850689794519e-07,4.7492096200585365e-05
2.1044950244686333e-06,-2.0370473066577688e-05,1.909409365907777e-05,3.53614109371847e-06,5.2517778385663405e-05
4.1541102291375864e-06,1.54770668814308e-06,1.8784439816954546e-05,3.98376323573757e-06,5.549133857130073e-05
6.428073788811162e-07,2.6237241399940103e-05,1.5258092389558442e-05,2.507011458874331e-06,5.3628351452061906e-05
-1.3504707567335572e-05,4.251241989550181e-05,1.0216794180450961e-05,8.436622351837286e-07,5.337902621249668e-05
-2.0643063180614263e-05,5.051826883573085e-05,9.621330718800891e-06,-2.7922301342186984e-06,5.665418939315714e-05
-1.6808777218102477e-05,5.373502790462226e-05,1.022585274768062e-05,-8.56120550452033e-06,6.332449265755713e-05
-1.7981308701564558e-05,5.141755173099227e-05,9.339977623312734e-06,-1.0528575330681633e-05,6.735492934240028e-05
-3.104396091657691e-05,4.8226411308860406e-05,1.0468525942997076e-05,-9.731637874210719e-06,6.549448880832642e-05
-4.783786425832659e-05,4.5667220547329634e-05,1.4999517588876188e-05,-8.617672392574605e-06,6.343056884361431e-05
-5.7198911235900596e-05,3.925824421457946e-05,1.5527131836279295e-05,-8.23260961624328e-06,6.392307113856077e-05
-5.1803290261887014e-05,2.805472286127042e-05,9.73667101789033e-06,-6.8499693952617235e-06,6.200675125000998e-05
-3.608761107898317e-05,1.9376951968297362e-05,1.224217612616485e-06,-6.316269264061702e-06,5.625415360555053e-05
-2.677723387023434e-05,2.6280158635927364e-05,-6.702946848236024e-06,-9.320173376181629e-06,5.0678467232501134e-05
-2.7334683181834407e-05,4.1449708078289405e-05,-1.1577903933357447e-05,-1.436651928088395e-05,4.778447328135371e-05
-3.1129198760027066e-05,4.4331478420645e-05,-1.3959517673356459e-05,-1.9043816791963764e-05,4.5399126975098625e-05
-3.505807399051264e-05,3.078321969951503e-05,-1.43622364703333e-05,-2.1663046936737373e-05,4.278179767425172e-05
-4.6341920096892864e-05,1.5277510101441294e-05,-1.34280298880185e-05,-2.2939773771213368e-05,3.9699323679087684e-05
-6.917300197528675e-05,2.7167432108399225e-06,-1.1444613846833818e-05,-2.352150659135077e-05,3.926927820430137e-05
-9.840957500273362e-05,-5.887626684852876e-06,-6.036425020283787e-06,-2.5647026632213965e-05,4.1919145587598905e-05
-0.00012072102254023775,-6.2535295910493005e-06,6.011975074216025e-06,-3.0947481718612835e-05,4.420882760314271e-05
-0.00012789109314326197,1.5234085140036768e-06,1.717930172162596e-05,-3.864714381052181e-05,4.5783617679262534e-05
-0.00011617614654824138,5.9235712797089946e-06,1.9593737306422554e-05,-4.120952871744521e-05,4.5517037506215274e-05
-9.841686551226303e-05,4.572177658701548e-06,1.7330939954263158e-05,-3.310799002065323e-05,4.1582326957723126e-05
-8.763060031924397e-05,8.708149835001677e-06,1.5879177226452157e-05,-2.27923064812785e-05,3.7411973607959226e-05
-6.897504499647766e-05,1.901243558677379e-05,1.5522251487709582e-05,-1.5911864466033876e-05,3.834761810139753e-05
-3.187625407008454e-05,2.2672700652037747e-05,1.3498301086656284e-05,-1.348622845398495e-05,3.7576544855255634e-05
2.1155094145797193e-05,1.8602990166982636e-05,8.443908882327378e-06,-1.7150709027191624e-05,3.240330261178315e-05
7.684720912948251e-05,1.7450931409257464e-05,1.9162923763360595e-06,-1.855334448919166e-05,3.5602697607828304e-05
0.00011203705798834562,2.4998817025334574e-05,-3.22278106068552e-06,-1.4887816178088542e-05,5.088792750029825e-05
0.00010614850179990754,3.228196510463022e-05,-2.4781827505648835e-06,-6.866286184958881e-06,6.755934737157077e-05
7.025881495792419e-05,3.2075044146040455e-05,6.475510190284695e-07,7.266156899277121e-06,7.877184543758631e-05
3.0322797101689503e-05,2.5986200853367336e-05,2.630924882396357e-07,2.2698666725773364e-05,8.394788164878264e-05
-1.7051578993232397e-07,2.118985321430955e-05,8.128295689857623e-07,2.8722084607579745e-05,8.886043360689655e-05
-1.7929593013832346e-05,2.2103989977040328e-05,2.5957215257221833e-06,2.603992288641166e-05,9.553480049362406e-05
-2.5434801500523463e-05,2.5664046916062944e-05,4.959042030350247e-07,2.401610981905833e-05,0.00010371943062637001
-2.422887337161228e-05,2.9257555070216767e-05,-4.971093403582927e-07,2.3678987417952158e-05,0.00010515068424865603
-2.21536338358419e-05,3.067884608753957e-05,1.1494183809190872e-06,1.8945225747302175e-05,9.77280578808859e-05
-1.765495107974857e-05,3.232759263482876e-05,2.708160081965616e-06,9.484931979386602e-06,8.74849793035537e-05
-1.2005900316580664e-05,3.3669828553684056e-05,9.552508117849356e-07,-4.17273099628801e-07,7.670922059332952e-05
-8.38635241962038e-06,3.502348772599362e-05,-3.0162934763211524e-06,-1.2008775229332969e-05,6.895857222843915e-05
-9.093692824535538e-06,3.698668660945259e-05,-4.281900146452244e-06,-2.603758912300691e-05,6.545997894136235e-05
-1.2812279237550683e-05,3.693374674185179e-05,-1.2781548548446153e-06,-3.920128438039683e-05,6.483985634986311e-05
-1.219495061377529e-05,2.67657214862993e-05,3.225210548407631e-06,-4.92174549435731e-05,6.578784814337268e-05
-8.111432180157863e-06,6.068835318728816e-06,4.346168225310976e-06,-5.6479057093383744e-05,6.602610665140674e-05
-4.994572918803897e-06,-7.952299711178057e-06,2.877247879951028e-06,-5.6773955293465406e-05,6.558379391208291e-05
1.6336251746906783e-06,-2.3751738353894325e-07,2.452047738188412e-06,-4.933707168675028e-05,6.531047984026372e-05
1.695483115327079e-05,1.7607482732273638e-05,4.409717803355306e-06,-3.8668793422402814e-05,6.162508361740038e-05
2.252645936096087e-05,2.6130381229449995e-05,6.325602953438647e-06,-2.580761611170601e-05,5.588398198597133e-05
1.7839311112766154e-06,2.9308741432032548e-05,8.664607776154298e-06,-7.953000931593124e-06,5.09452038386371e-05
-3.065374767174944e-05,3.540238321875222e-05,1.2414396223903168e-05,8.795153007667977e-06,5.149808566784486e-05
-4.5610027882503346e-05,3.882999953930266e-05,1.5248436284309719e-05,1.527968379377853e-05,5.96084792050533e-05
-3.962692426284775e-05,3.297529838164337e-05,1.6241141565842554e-05,1.3795226550428197e-05,7.468811236321926e-05
-3.148707401123829e-05,2.504665098967962e-05,1.60003164637601e-05,7.184490186773473e-06,9.122132905758917e-05
-3.2143729185918346e-05,2.1209834812907502e-05,1.0998628567904234e-05,-1.1962295047851512e-06,9.78493262664415e-05
-3.291426401119679e-05,1.9105915271211416e-05,9.900117220240645e-06,-4.85817554363166e-06,9.257467172574252e-05
-2.801764821924735e-05,2.3460759621229954e-05,1.668487129791174e-05,-3.996598024968989e-06,8.416702621616423e-05
-2.6112320483662188e-05,3.0881106795277447e-05,2.2019179596100003e-05,-2.1883082013118837e-07,8.249658276326954e-05
-3.100799585809e-05,3.593214205466211e-05,1.928965502884239e-05,-1.7416811033399426e-06,8.278271707240492e-05
-3.527982335072011e-05,3.615503737819381e-05,9.309607776231132e-06,-1.0347953320888337e-05,7.557963544968516e-05
-3.5628854675451294e-05,3.868819112540223e-05,2.1883829504076857e-06,-1.7480664610047825e-05,6.856314575998113e-05
-3.5613855288829654e-05,4.9233050958719105e-05,2.1828545015978307e-07,-2.3291684556170367e-05,6.076834324630909e-05
-3.2533749617869034e-05,5.825449989060871e-05,1.1987201560259564e-06,-2.793843304971233e-05,4.4437460019253194e-05
-2.70872642431641e-05,6.315501377684996e-05,3.836511041299673e-06,-2.8467311494750902e-05,2.0555609808070585e-05
-2.3380540369544178e-05,6.155242590466514e-05,5.053562745160889e-06,-2.468885577400215e-05,-6.441473033191869e-06
-2.023067463596817e-05,5.5562119086971506e-05,6.04131537329522e-06,-1.8220638594357297e-05,-2.485378718120046e-05
-1.8778269804897718e-05,5.1574723329395056e-05,8.525314115104266e-06,-1.081226764654275e-05,-2.42231890297262e-05
-2.330713323317468e-05,5.1426166464807466e-05,1.3325690815690905e-05,-4.008565156254917e-06,-9.648413652030285e-06
-3.428257696214132e-05,5.4853248002473265e-05,1.9778695786953904e-05,1.1526909702297417e-06,3.106026497334824e-06
-4.8841531679499894e-05,5.372592931962572e-05,2.2334366803988814e-05,1.1902122878382215e-06,4.997969881515019e-06
-6.077205398469232e-05,3.4904256608569995e-05,1.8563165212981403e-05,-7.095549108271371e-07,4.740875738207251e-06
-6.0687776567647234e-05,1.0104925422638189e-05,1.2446535038179718e-05,-1.054646986631269e-06,1.8773160263663158e-05
-5.032003900851123e-05,8.087353307928424e-06,9.835197488428093e-06,-2.1231919618003303e-06,4.848596654483117e-05
-4.501138027990237e-05,2.5377143174409866e-05,1.0050268429040443e-05,-5.6816734286258e-06,6.978237797738984e-05
-5.6646102166268975e-05,3.28631213051267e-05,9.193786354444455e-06,-9.695290827949066e-06,7.17339280527085e-05
-7.136852946132421e-05,2.3238069843500853e-05,4.3560557969613e-06,-1.3685560588783119e-05,7.186091534094885e-05
-6.203114753589034e-05,6.407476575986948e-06,-6.065514298825292e-06,-1.1730086043826304e-05,8.297593740280718e-05
-3.131483754259534e-05,7.075508960951993e-07,-1.9037406673305668e-05,-2.316366362720146e-06,9.870056965155527e-05
-9.334575224784203e-06,1.814837560232263e-05,-2.483240677975118e-05,5.805003183922963e-06,0.0001126344213844277
-1.4269158782553859e-05,4.2530460632406175e-05,-2.038182174146641e-05,6.547129487444181e-06,0.00012565746146719903
-3.5470264265313745e-05,6.237000343389809e-05,-1.244787472387543e-05,1.5615229358445504e-06,0.00013170520833227783
-4.711826113634743e-05,6.785763980587944e-05,-4.553839971777052e-06,1.1361721563574179e-09,0.00012436036195140332
-3.279840893810615e-05,4.57992973679211e-05,3.887903403665405e-06,1.300104213441955e-05,0.00010640156688168645
3.0784967748331837e-06,7.723658200120553e-06,1.3117002708895598e-05,4.014081787317991e-05,8.794532914180309e-05
3.102364644291811e-05,-1.785107269824948e-05,1.691097168077249e-05,6.415125972125679e-05,7.054867455735803e-05
3.2870917493710294e-05,-1.87491223186953e-05,1.6754900570958853e-05,7.803967309882864e-05,5.5520566093036905e-05
2.2323174562188797e-05,-5.4339375310519245e-06,1.5457784684258513e-05,7.944925164338201e-05,4.527998680714518e-05
1.3979662981000729e-05,1.3344355465960689e-05,1.3887816749047488e-05,7.64098294894211e-05,4.0084185457089916e-05
1.0365660273237154e-05,2.866524846467655e-05,1.558005351398606e-05,7.001382618909702e-05,2.692416455829516e-05
-5.391287771772113e-08,3.242746242904104e-05,1.9326458641444333e-05,5.075519948150031e-05,-2.167668981201132e-06
-1.574102498125285e-05,2.7334883270668797e-05,2.3607291950611398e-05,2.169013532693498e-05,-4.4016604078933597e-05
-2.627239518915303e-05,1.9516413885867223e-05,2.590388248790987e-05,9.98746941149875e-07,-8.276605512946844e-05
-3.247132190153934e-05,1.6035332009778358e-05,2.5354642275488004e-05,-5.919040177104762e-06,-9.448505443288013e-05
-3.818568802671507e-05,2.0350404156488366e-05,2.428049992886372e-05,-1.5237339539453387e-05,-7.784536865074188e-05
-4.154321504756808e-05,3.013977584487293e-05,2.3500408133259043e-05,-3.4381017030682415e-05,-4.857179374084808e-05
-4.422130587045103e-05,4.162575714872219e-05,1.7999036572291516e-05,-5.718597458326258e-05,-2.7399091777624562e-05
-4.809204619959928e-05,4.853282371186651e-05,8.54532299854327e-06,-7.189327152445912e-05,-2.811666126945056e-05
-4.822449409402907e-05,4.7273002564907074e-05,2.8196602670504944e-06,-7.601262768730521e-05,-4.047556285513565e-05
-4.6164175728335977e-05,3.9874710637377575e-05,5.231482191447867e-06,-7.380785973509774e-05,-3.1227522413246334e-05
-5.0537953939056024e-05,3.3087097108364105e-05,9.671534826338757e-06,-7.202960114227608e-05,2.0258556105545722e-05
-5.823712490382604e-05,3.0492525183944963e-05,9.502535249339417e-06,-7.34169443603605e-05,9.371618216391653e-05
-5.740932101616636e-05,2.3041646272758953e-05,7.099620233930182e-06,-7.62058625696227e-05,0.00014208248467184603
-4.635893492377363e-05,5.2313707783469e-06,4.668243946071016e-06,-7.783647015457973e-05,0.00014877338253427297
-3.090496102231555e-05,-9.926387065206654e-06,-6.631829592151917e-07,-7.887791434768587e-05,0.000144405901664868
-1.6439960745628923e-05,-6.874144219182199e-06,-7.322736109927064e-06,-7.490434654755518e-05,0.00014830804138910025
-3.1737865811010124e-06,8.140227691910695e-06,-1.1318345968902577e-05,-6.353324715746567e-05,0.00014339097833726555
3.3435267141612712e-06,1.9056702512898482e-05,-1.2688935385085642e-05,-4.198452370474115e-05,0.00012787457671947777
-3.8059711187088396e-06,2.4498240236425772e-05,-1.1252971489739139e-05,1.4195911717251875e-06,0.00011170611105626449
-1.9287801478640176e-05,3.6912188079440966e-05,-8.63402419781778e-06,5.877837975276634e-05,9.041924931807443e-05
-2.9234555768198334e-05,5.5518514272989705e-05,-7.07961771695409e-06,9.031256195157766e-05,8.344047091668472e-05
-2.688808126549702e-05,7.029338303254917e-05,-3.883083536493359e-06,9.173451690003276e-05,0.00012158570461906493
-1.4545657904818654e-05,7.097380148479715e-05,-1.8225796338811051e-06,8.697094017406926e-05,0.00019747410260606557
-1.3886738088331185e-06,5.635359411826357e-05,-2.770405899354955e-06,9.000752470456064e-05,0.0002600479929242283
7.584960258100182e-06,3.5208086046623066e-05,-2.0562933968903963e-06,0.00010450516128912568,0.00026615397655405104
1.2028774108330254e-05,6.791799933125731e-06,-1.8676640820558532e-06,0.00010971180745400488,0.00022756466933060437
1.121962304750923e-05,-3.107755219389219e-06,5.230729698268988e-07,9.313824557466432e-05,0.00017359327466692775
5.472230441228021e-06,4.698127213487169e-06,4.635247478290694e-06,6.318018859019503e-05,0.0001206957022077404
-1.756680831022095e-06,5.120413788972655e-06,1.1440652087912895e-05,4.054983219248243e-05,7.71407867432572e-05
-9.962803233065642e-06,4.542161605058936e-06,1.859274743765127e-05,2.7440435587777756e-05,6.977879820624366e-05
-2.165440128010232e-05,1.2272930689505301e-05,2.108882472384721e-05,1.2338323358562775e-05,9.606419916963205e-05
-3.1830004445509985e-05,2.6277439246769063e-05,2.057030360447243e-05,-1.153704033640679e-05,0.00010141787061002105
-4.1810992115642875e-05,3.753591590793803e-05,1.8254448150401004e-05,-3.321704934933223e-05,4.3358908442314714e-05
-5.631047679344192e-05,4.5730103011010215e-05,1.6805553968879394e-05,-3.889744766638614e-05,-4.89238700538408e-05
-6.879585998831317e-05,4.874091609963216e-05,1.856641029007733e-05,-2.8056894734618254e-05,-0.00010577467764960602
-6.58584467601031e-05,5.10201025463175e-05,2.0655566913774237e-05,-7.89306159276748e-06,-0.00011177210399182513
-4.6203895180951804e-05,6.1008329794276506e-05,1.6895050066523254e-05,9.35989464778686e-06,-0.00010635022772476077
-1.9828861695714295e-05,7.92905266280286e-05,8.389796676055994e-06,5.307967057888163e-06,-0.00012388454342726618
-5.310087999532698e-06,9.367460734210908e-05,7.094351985870162e-07,-3.334478606120683e-05,-0.00016231076733674854
-1.8100614397553727e-05,9.610404958948493e-05,-4.034397989016725e-06,-9.62122721830383e-05,-0.00019819888984784484
-4.5976081310072914e-05,8.423132385360077e-05,-7.031496807030635e-06,-0.00017124433361459523,-0.0002007742295973003
-6.226803816389292e-05,5.7565026509109885e-05,-1.0500260032131337e-05,-0.00025215110508725047,-0.0001605083089089021
-6.251758168218657e-05,1.7673395632300526e-05,-1.721101943985559e-05,-0.0003233530733268708,-8.4161882114131e-05
-5.746450551669113e-05,-2.1532867322093807e-05,-2.5115998141700402e-05,-0.00035459178616292775,1.777290708560031e-05
-5.618253635475412e-05,-2.719448457355611e-05,-2.7862748538609594e-05,-0.00032490992452949286,0.00011487827578093857
-6.21943618170917e-05,-1.2867578334407881e-05,-2.412790672678966e-05,-0.0002501381386537105,0.00018212752183899283
-6.154878792585805e-05,-2.826274567269138e-06,-2.300317464687396e-05,-0.00017015829507727176,0.00023236169363372028
-5.1248040108475834e-05,5.905248144699726e-06,-2.5516985260765068e-05,-0.00011404157703509554,0.0002534771920181811
-4.989720036974177e-05,1.369492292724317e-05,-2.4430777557427064e-05,-7.396728324238211e-05,0.0002442883269395679
-6.050088268239051e-05,2.0052541003678925e-05,-2.4506120098521933e-05,-3.976318839704618e-05,0.00024470422067679465
-6.50891088298522e-05,1.176220757770352e-05,-3.488103538984433e-05,-1.4611896403948776e-05,0.0002546810428611934
-3.4163196687586606e-05,3.6337942219688557e-06,-4.5679604227188975e-05,-3.7609268019878073e-06,0.00025282814749516547
3.5173976357327774e-05,1.0389181625214405e-05,-4.8119436542037874e-05,-1.1787744369939901e-05,0.00023650653020013124
9.550761024001986e-05,2.15996042243205e-05,-4.026009264634922e-05,-2.2381604139809497e-05,0.00021549231314565986
0.00011068180174333975,2.7454429073259234e-05,-2.7057030820287764e-05,-2.6730123863671906e-05,0.000198697904124856
8.245372009696439e-05,2.9166360036469996e-05,-1.8411330529488623e-05,-2.0729532479890622e-05,0.0001818838354665786
3.302351615275256e-05,3.1357390980701894e-05,-1.0226272024738137e-05,-5.0524226935522165e-06,0.00015677658666390926
-1.751902891555801e-05,3.324324279674329e-05,2.417816858724109e-06,2.426289029244799e-05,0.00012875797983724624
-5.411676102085039e-05,3.6873512726742774e-05,1.6726246030884795e-05,5.8546906075207517e-05,0.00010191914770985022
-6.593881698790938e-05,3.754356657736935e-05,2.781182774924673e-05,8.120352140394971e-05,8.211777458200231e-05
-5.3799736633664e-05,3.481776002445258e-05,3.177791950292885e-05,9.298472286900505e-05,8.120210259221494e-05
-2.6674884793465026e-05,3.246209234930575e-05,2.6568932298687287e-05,0.00010540735092945397,0.00010504460078664124
7.3311161941091996e-06,3.3700151107041165e-05,1.7871241652755998e-05,0.00012283919204492122,0.0001447222603019327
4.069579154020175e-05,3.335335713927634e-05,1.1473253834992647e-05,0.00013582438987214118,0.00018092159007210284
5.715231964131817e-05,3.183870649081655e-05,7.584233117086114e-06,0.00013092538574710488,0.00020082364790141582
4.2088518966920674e-05,2.7421900085755624e-05,2.1622201984428102e-06,9.861662692856044e-05,0.00019343916210345924
-1.3337346445041476e-06,1.214258463733131e-05,-4.232646915625082e-06,4.885384987574071e-05,0.00014729412214364856
-5.810202128486708e-05,-1.6652777048875578e-05,-8.089810762612615e-06,-2.7010376015823567e-06,7.078977796481922e-05
-0.00010892009595409036,-4.298161366023123e-05,-6.494005447166273e-06,-4.4335436541587114e-05,7.542492767242948e-06
-0.00012829923070967197,-4.6745019062655047e-05,2.317449798283633e-06,-7.39124370738864e-05,-9.295295058109332e-06
-0.00011187762720510364,-2.6457499188836664e-05,1.4533680769091006e-05,-8.887361036613584e-05,-8.457910553261172e-06
-8.045732829486951e-05,-3.025967885150749e-07,2.3815953682060353e-05,-9.069004590855911e-05,-2.5216955691576004e-05
-5.540174606721848e-05,1.4283612472354434e-05,2.9464161343639717e-05,-8.247994992416352e-05,-3.198877675458789e-05
-3.910919986083172e-05,2.065312582999468e-05,3.137769454042427e-05,-5.266902007861063e-05,1.0949780744340387e-06
-3.085330536123365e-05,2.957703145511914e-05,3.1640782253816724e-05,-7.962866220623255e-06,4.378720041131601e-05
-3.2149448088603094e-05,4.042158980155364e-05,2.9949052986921743e-05,2.25705916818697e-05,6.542872870340943e-05
-3.2771520636742935e-05,4.9338275857735425e-05,2.3163540390669368e-05,3.889474828611128e-05,7.161941175581887e-05
-3.0425169825321063e-05,5.4159660066943616e-05,1.7084466890082695e-05,5.2476523705990985e-05,7.63728457968682e-05
-2.9107704904163256e-05,5.3474090236704797e-05,1.4394122445082758e-05,6.627016409765929e-05,8.412711758865044e-05
-2.7734095056075603e-05,4.9414007662562653e-05,1.6159428923856467e-05,7.40220639272593e-05,0.00010021900379797444
-2.8167880373075604e-05,4.3965457734884694e-05,1.855327354860492e-05,7.238703256007284e-05,0.00010858840687433258
-3.650574944913387e-05,3.741880937013775e-05,1.9508092009346e-05,6.0677179135382175e-05,7.141259993659332e-05
-4.916483158012852e-05,3.0277007681434043e-05,2.101577956636902e-05,4.455279486137442e-05,-3.7151723518036306e-05
-5.646808858728036e-05,2.4307139028678648e-05,2.2192854885361157e-05,2.6868321583606303e-05,-0.00018960193847306073
-5.604221951216459e-05,1.6177675206563435e-05,2.2163789253681898e-05,1.413167774444446e-05,-0.00028608745196834207
-5.03161754750181e-05,1.0193571142735891e-05,2.275297993037384e-05,2.009926720347721e-05,-0.0002672821283340454
-4.381643157103099e-05,1.534710099804215e-05,2.371805203438271e-05,4.4491473090602085e-05,-0.00017614294483792037
-3.704033952089958e-05,3.2398565963376313e-05,2.3056714780977927e-05,6.710633897455409e-05,-8.719485776964575e-05
-2.8315445888438262e-05,4.4955468183616176e-05,2.278778083564248e-05,7.27478472981602e-05,-3.89802225981839e-05
-2.077902900055051e-05,4.189570609014481e-05,2.2992790036369115e-05,6.665327964583412e-05,-2.6613612135406584e-05
-1.548346881463658e-05,2.9761002224404365e-05,2.256699008285068e-05,5.6390992540400475e-05,-2.5829547666944563e-05
-8.612674719188362e-06,2.5478606403339654e-05,2.0763329303008504e-05,5.2747294830624014e-05,-1.3418653907137923e-05
-2.3985312509466894e-06,3.752774864551611e-05,1.782578692655079e-05,6.863193993922323e-05,1.2401217645674478e-05
-8.195706300284655e-07,5.604616308119148e-05,1.6068146578618325e-05,0.00010499899508431554,3.7204299587756395e-05
-5.464286005008034e-06,6.315671635093167e-05,1.63413515110733e-05,0.0001418974279658869,5.09645942656789e-05
-1.7262535038753413e-05,5.4650503443554044e-05,1.647474527999293e-05,0.00015755771892145276,6.258954090299085e-05
-2.8560303690028377e-05,4.1948878788389266e-05,1.3538944585889112e-05,0.0001308229984715581,7.491617725463584e-05
-3.2427033147541806e-05,3.1573043088428676e-05,8.974467164080124e-06,7.137443753890693e-05,7.732948142802343e-05
-3.146627568639815e-05,2.3499982489738613e-05,9.564088031766005e-06,1.3986700651003048e-05,6.307312287390232e-05
-3.225858017685823e-05,2.349480928387493e-05,1.5190519661700819e-05,-2.259801658510696e-05,3.945552816730924e-05
-3.569020191207528e-05,3.192545045749284e-05,1.8855422240449116e-05,-4.796151552000083e-05,2.485095501469914e-05
-3.777709571295418e-05,3.7527486711042e-05,1.3783355825580657e-05,-6.724434933857992e-05,3.411025681998581e-05
-4.091533264727332e-05,4.260468267602846e-05,7.846186235838104e-06,-8.463258564006537e-05,5.052522465121001e-05
-4.6809578634565696e-05,5.2009025239385664e-05,6.6257639446121175e-06,-0.00011691472172969952,4.270852878107689e-05
-4.5624852646142244e-05,6.074882549000904e-05,3.831435606116429e-06,-0.00016603927360847592,2.1993428163114004e-05
-3.4388034691801295e-05,6.147033127490431e-05,-9.139934604718292e-07,-0.00021703240054193884,8.545997843611985e-06
-2.6576666641631164e-05,5.645221972372383e-05,-6.379636033670977e-06,-0.00024087716883514076,-2.833356802511844e-07
-2.8653619665419683e-05,4.862115019932389e-05,-1.0772224413813092e-05,-0.0002266176015837118,-1.0707070032367483e-05
-3.238702265662141e-05,2.9585316951852292e-05,-1.1962295502598863e-05,-0.00019389923545531929,-1.5019050806586165e-05
-2.9914503102190793e-05,3.697831516547012e-06,-8.987476576294284e-06,-0.00015505246119573712,-1.54072477016598e-05
-2.52170557359932e-05,-4.392439223011024e-06,-3.7072009035910014e-06,-0.00010464980732649565,-8.78458649822278e-06
-2.2673499188385904e-05,1.2594507097674068e-05,4.677925971918739e-06,-4.7727855417178944e-05,1.465825243940344e-05
-1.3478036635206081e-05,3.505650602164678e-05,1.6545196558581665e-05,-5.959532245469745e-07,4.481466021388769e-05
6.974898042244604e-06,4.436920789885335e-05,2.4815772121655755e-05,3.319807365187444e-05,4.836392690776847e-05
2.679138742678333e-05,3.938459121854976e-05,2.4173872589017265e-05,5.70316260564141e-05,2.4663379008416086e-05
3.2357194868382066e-05,3.120104884146713e-05,1.5413172150147147e-05,6.174563168315217e-05,3.531782567733899e-05
1.9357961718924344e-05,2.6856758267967962e-05,2.933027190010762e-06,3.832535003311932e-05,0.00011442750837886706
-3.454887064435752e-06,2.417320865788497e-05,-4.025355337944347e-06,-1.8906663399320678e-06,0.0002127082843799144
-2.0396368199726567e-05,2.054825017694384e-05,-2.683166712813545e-06,-3.3362233807565644e-05,0.00027002691058441997
-2.513494109734893e-05,2.0171135474811308e-05,1.7613958789297612e-06,-3.943108094972558e-05,0.0002883488195948303
-2.3215803594212048e-05,2.7338523068465292e-05,6.371931704052258e-06,-2.737249633355532e-05,0.00029861193615943193
-2.403259713901207e-05,3.7312078347895294e-05,6.410396053979639e-06,-9.311895155406091e-06,0.0003159460611641407
-3.280524833826348e-05,4.134246410103515e-05,-6.414989002223592e-07,5.354453151085181e-06,0.00032735560671426356
-4.614876161213033e-05,3.841375291813165e-05,-7.603453468618682e-06,1.1205563168914523e-05,0.0003111625264864415
-5.8201596402795985e-05,2.785003925964702e-05,-1.0901887435466051e-05,1.766862260410562e-05,0.00022542693477589637
-6.578079046448693e-05,8.462280675303191e-06,-1.1293455827399157e-05,2.9593407816719264e-05,5.073631837149151e-05
-6.268604192882776e-05,-5.387433702708222e-06,-1.1830230505438522e-05,3.916319110430777e-05,-0.0001111797901103273
-4.5775799662806094e-05,3.34290604087073e-07,-1.6033231077017263e-05,3.741270847967826e-05,-0.0001612937921890989
-2.8895155992358923e-05,1.830264227464795e-05,-1.680394598224666e-05,2.7047919502365403e-05,-0.00013216286606620997
-2.0320074327173643e-05,3.705847848323174e-05,-7.110594197001774e-06,1.0065752576338127e-05,-7.28345476090908e-05
-1.4153488336887676e-05,4.709338099928573e-05,4.820199592359131e-06,-1.334900389338145e-05,-1.3291300092532765e-05
-1.0163666047446895e-05,4.251779682817869e-05,7.519124665122945e-06,-3.354853834025562e-05,3.494639167911373e-05
-1.0466654202900827e-05,3.1197050702758133e-05,3.8703728932887316e-07,-4.874543446931057e-05,9.463886090088636e-05
-1.2846797289967071e-05,2.0684705305029638e-05,-9.803266038943548e-06,-6.285244307946414e-05,0.00015908812929410487
-1.1920173164980952e-05,8.40478423924651e-06,-1.6375315681216307e-05,-7.762496534269303e-05,0.00017724638746585697
-8.942251952248625e-06,1.5864218312344747e-06,-1.6410127500421368e-05,-8.352063014172018e-05,0.0001552650792291388
-9.017392585519701e-06,1.4919540262781084e-05,-1.2789978427463211e-05,-7.013354479568079e-05,0.0001401982590323314
-8.914556019590236e-06,4.035456004203297e-05,-1.0013422070187517e-05,-4.052358781336807e-05,0.00014386360999196768
-1.6266911870843614e-06,6.027744893799536e-05,-6.421715625037905e-06,-1.1517660823301412e-05,0.00014224788174033165
7.11303937350749e-06,6.69516230118461e-05,-2.460244331814465e-06,3.84794930141652e-06,0.00011216793791390955
9.785930160433054e-06,6.490512168966234e-05,4.2515418385846715e-07,8.356588296010159e-06,6.335906073218212e-05
4.538532721198862e-06,5.413025428424589e-05,2.5729925710038515e-06,9.289200534112751e-06,1.9282235371065326e-05
-1.004285422823159e-05,3.076978100580163e-05,5.339443305274472e-06,1.0925442438747268e-05,-2.921132988831232e-07
-3.1247109291143715e-05,5.73747138332692e-06,8.66695336299017e-06,1.462385625927709e-05,1.3126382327754982e-05
-5.026417420594953e-05,-5.46856995242706e-07,1.2015302672807593e-05,1.975264422071632e-05,4.471455031307414e-05
-5.8789944887394086e-05,1.6389098163926974e-05,1.2410812814778183e-05,2.279864565934986e-05,6.934768316568807e-05
-5.74718760617543e-05,3.858029958792031e-05,9.79595188255189e-06,2.2405483832699247e-05,8.72156597324647e-05
-4.83802032249514e-05,5.034784771851264e-05,7.471464869013289e-06,1.9645138308987953e-05,0.00010414459393359721
-3.4540593333076686e-05,5.0348564400337636e-05,6.632595614064485e-06,1.8833696231013164e-05,0.00011560035636648536
-2.4482404114678502e-05,4.833587445318699e-05,1.002076987788314e-05,2.020702049776446e-05,0.00011157873086631298
-2.2389513105736114e-05,4.195490328129381e-05,1.6483931176480837e-05,1.9927272660424933e-05,9.491806122241542e-05
-2.195332490373403e-05,1.3669172403751872e-05,1.84103446372319e-05,1.893381886475254e-05,7.29800813132897e-05
-1.8816943338606507e-05,-2.9546428777393885e-05,1.5350253306678496e-05,1.852294008131139e-05,3.5478693462209776e-05
-1.0671374184312299e-05,-3.700340312207118e-05,1.6146090274560265e-05,2.0601644791895524e-05,-3.0135850465740077e-05
2.4636659645693726e-07,-2.6723253085947363e-06,1.9577280909288675e-05,2.562777626735624e-05,-7.53437343519181e-05
2.487539859430399e-06,2.226885590062011e-05,1.9725664969882928e-05,2.5768944396986626e-05,-4.177549999440089e-05
-5.867598702025134e-06,3.0673796572955325e-05,1.8203672880190425e-05,2.0515386495389976e-05,1.616650479263626e-05
-1.5386531231342815e-05,3.3105909096775576e-05,1.841446828620974e-05,1.9035742298001423e-05,3.939724410884082e-05
-2.3388987756334245e-05,3.774515425902791e-05,1.9938743207603693e-05,2.276205486850813e-05,4.5131873775972053e-05
-3.370062040630728e-05,4.545653791865334e-05,2.0868468709522858e-05,2.799201502057258e-05,3.785770240938291e-05
-4.085228283656761e-05,4.534497202257626e-05,1.9594210243667476e-05,3.4977616451215e-05,9.064291589311324e-06
-3.79727098334115e-05,3.971783007727936e-05,1.8045127944787964e-05,3.513035335345194e-05,-1.6998299543047324e-05
-3.087680306634866e-05,3.227479101042263e-05,1.9416254872339778e-05,2.655625212355517e-05,-1.1758547771023586e-05
-2.193936234107241e-05,2.82132768916199e-05,2.3299153326661326e-05,1.8257675037602894e-05,2.6769644136948045e-06
-1.3079210475552827e-05,2.4519427824998274e-05,2.5731984351295978e-05,1.775410055415705e-05,4.553566213871818e-06
-1.2601313756022137e-05,1.8458653357811272e-05,2.5710709451232105e-05,1.958467146323528e-05,-6.040028893039562e-06
-2.6890213121077977e-05,8.025214810913894e-06,2.1604550056508742e-05,1.3139358998159878e-05,-1.1498828826006502e-05
-5.1010567403864115e-05,1.3540865495542675e-07,1.3812003999191802e-05,4.787715397469583e-07,-7.0472037805302534e-06
-6.983063940424472e-05,-1.3798689906252548e-06,7.629302672285121e-06,-8.416204764216673e-06,-1.2029784556943923e-05
-6.916181155247614e-05,4.400644229463069e-06,7.48872753320029e-06,-9.718924957269337e-06,-2.9593633371405303e-05
-5.167989729670808e-05,1.4802833902649581e-05,9.365424375573639e-06,-9.058559953700751e-06,-2.8400161681929603e-05
-3.320836185594089e-05,2.1725543774664402e-05,8.461747711407952e-06,-1.1091126907558646e-05,1.0007587661675643e-05
-2.1436797396745533e-05,2.2697200620314106e-05,5.7438969633949455e-06,-1.811178844945971e-05,5.866272113053128e-05
-1.9159870134899393e-05,2.057362871710211e-05,3.039655439351918e-06,-2.790495091176126e-05,7.987723802216351e-05
-3.200241917511448e-05,2.034060344158206e-05,1.3164236634111148e-06,-3.580929842428304e-05,6.544493953697383e-05
-5.190914816921577e-05,2.115873394359369e-05,1.611088350728096e-06,-3.9698432374279946e-05,4.537027052720077e-05
-5.725785013055429e-05,2.524703450035304e-05,2.145444341294933e-06,-4.0923529013525695e-05,3.0023482395336032e-05
-4.873429497820325e-05,2.807933014992159e-05,2.1343643652471656e-07,-3.821564314421266e-05,-1.583383323122689e-06
-4.1694147512316704e-05,2.502999450371135e-05,-1.1130066468467703e-06,-3.428797208471224e-05,-4.308730785851367e-05
-3.624515011324547e-05,2.5806879420997575e-05,-1.3746314664331294e-07,-3.4462987969163805e-05,-5.522354695131071e-05
-2.1598470993922092e-05,3.2758700399426743e-05,1.6769340618338902e-06,-3.8100646634120494e-05,-3.5260061849839985e-05
-4.505919605435338e-06,3.3340518712066114e-05,5.323728373696213e-07,-4.04289057769347e-05,-6.438732270908076e-06
-1.0178676348004956e-05,2.7559332011151128e-05,7.207981411738729e-07,-3.828704939223826e-05,1.2826342754124198e-05
-3.4476812288630754e-05,2.8062744604540057e-05,2.819974952217308e-06,-3.208208363503218e-05,1.729361065372359e-05
-5.5672473536105826e-05,3.0180275643942878e-05,4.577208983391756e-06,-2.686189327505417e-05,1.0607355761749204e-05
-5.782020525657572e-05,2.632801806612406e-05,5.689516001439188e-06,-2.3391008653561585e-05,1.65055607794784e-05
-3.401661888347007e-05,2.1483814634848386e-05,4.924128006678075e-06,-2.3014616090222262e-05,3.572927744244225e-05
7.250762337207561e-06,2.010616117331665e-05,3.574633183234255e-06,-2.5249777536373585e-05,5.270525798550807e-05
4.790463935933076e-05,2.5434854251216166e-05,2.5000326786539517e-06,-2.8000065867672674e-05,6.806480814702809e-05
5.918782335356809e-05,3.0618230084655806e-05,3.6035462471772917e-06,-2.87282691715518e-05,9.297390352003276e-05
3.939127782359719e-05,3.616392859839834e-05,5.377462002797984e-06,-2.8456679501687177e-05,0.00011947270104428753
8.588435775891412e-06,3.760694380616769e-05,5.867984782526037e-06,-2.6803239961736836e-05,0.00013538164785131812
-1.417085968569154e-05,3.577742972993292e-05,1.272554868592124e-06,-2.3321970729739405e-05,0.00015071031521074474
-1.8593525965115987e-05,3.343890784890391e-05,-8.877028449205682e-06,-2.2868240193929523e-05,0.00016990282165352255
-1.0809093510033563e-05,2.946803579106927e-05,-1.788862209650688e-05,-2.480045259289909e-05,0.00018924675532616675
-7.883979378675576e-06,2.917421625170391e-05,-2.1626565285259858e-05,-1.9743985831155442e-05,0.00019576656632125378
-1.5518804502789862e-05,3.5129316529491916e-05,-2.0792509531020187e-05,6.238398327695904e-06,0.00018334458582103252
-2.4509548893547617e-05,4.441407509148121e-05,-1.7805121387937106e-05,4.67349927930627e-05,0.00015465295291505754
-3.0211607736418955e-05,4.822735354537144e-05,-1.2423270163708366e-05,7.677201210753992e-05,0.00012171272828709334
-3.449646465014666e-05,4.364211781648919e-05,-3.0679827887070132e-06,8.506749145453796e-05,9.631503053242341e-05
-3.908245707862079e-05,3.540223406162113e-05,9.775360013009049e-06,8.31316428957507e-05,8.694489952176809e-05
-4.24139725510031e-05,3.279751763329841e-05,2.4737983039813116e-05,7.96819367678836e-05,8.925981092033908e-05
-4.4319913286017254e-05,3.347145684529096e-05,4.012815043097362e-05,7.395304419333115e-05,8.650842210045084e-05
-4.262520087650046e-05,3.1578925700159743e-05,4.961665399605408e-05,5.6418037274852395e-05,7.203954737633467e-05
-3.9156391721917316e-05,2.9004666430409998e-05,5.226011489867233e-05,3.058111178688705e-05,5.7827062846627086e-05
-4.5662502088816836e-05,3.14030003210064e-05,5.236661672824994e-05,1.04162136267405e-05,4.851503763347864e-05
-6.564207433257252e-05,3.696118437801488e-05,5.1249513489892706e-05,-1.6678959582350217e-05,4.240493944962509e-05
-8.276863809442148e-05,3.84585109713953e-05,4.927374902763404e-05,-5.491769115906209e-05,4.284040187485516e-05
-8.084463479463011e-05,3.092936094617471e-05,4.678069308283739e-05,-8.455794886685908e-05,5.4601026931777596e-05
-6.299052620306611e-05,2.4009807020775042e-05,4.490010178415105e-05,-8.71769298100844e-05,8.026016439544037e-05
-5.104436058900319e-05,2.2569238353753462e-05,4.0521852497477084e-05,-7.473783625755459e-05,8.414235344389454e-05
-4.253723091096617e-05,2.2449832613347098e-05,2.874470919778105e-05,-7.206922600744292e-05,6.607079558307305e-05
-3.0397126465686597e-05,2.1838142856722698e-05,1.2681830412475392e-05,-7.160945096984506e-05,7.525629916926846e-05
-1.9578106730477884e-05,1.7083231796277687e-05,2.840391971403733e-06,-6.371839117491618e-05,0.0001113439429900609
-1.0538288734096568e-05,1.7204116375069134e-05,-1.0756068604678148e-06,-5.4112577345222235e-05,0.0001535670307930559
-7.2759148679324426e-06,2.2873016860103235e-05,-2.146474344044691e-06,-5.03855844726786e-05,0.000147530110552907
-8.495871952618472e-06,2.449773637636099e-05,-2.849774034530128e-07,-4.898919723927975e-05,8.182437159121037e-05
-1.0271338396705687e-05,2.0619050701498054e-05,-6.473010216723196e-07,-5.4264011851046234e-05,1.9116878320346586e-05
-1.2299438822083175e-05,1.6408645024057478e-05,-4.485840236156946e-06,-6.213881715666503e-05,-1.717592567729298e-05
-1.782879189704545e-05,1.5772831829963252e-05,-8.966691893874668e-06,-6.503952317871153e-05,-3.416058825678192e-05
-2.2563684979104437e-05,2.0483466869336553e-05,-1.2219831660331693e-05,-6.522680632770061e-05,-3.381353599252179e-05
-2.389084875176195e-05,2.824663170031272e-05,-1.475817771279253e-05,-6.843764276709408e-05,-1.6124266039696522e-05
-2.322361797268968e-05,3.406654286663979e-05,-1.7681833924143575e-05,-8.218109724111855e-05,2.840979323082138e-05
-2.2058849936001934e-05,3.5438704799162224e-05,-2.122179648722522e-05,-0.00010332227975595742,0.00010020325862569734
-2.0879790099570528e-05,3.3406940929125994e-05,-2.5714740331750363e-05,-0.00011720263137249276,0.00016217217489611357
-2.14892079384299e-05,3.060433664359152e-05,-2.846567986125592e-05,-0.00010667338210623711,0.00016618866357021034
-2.2454745703726076e-05,2.933778887381777e-05,-2.644914093252737e-05,-7.122613169485703e-05,8.806530968286097e-05
-1.9181277821189724e-05,3.081091563217342e-05,-2.073524592560716e-05,-2.8286454835324548e-05,-2.0946035874658264e-05
-1.3208797099650837e-05,3.231132359360345e-05,-1.4432968782784883e-05,-2.2771223484596703e-06,-6.99585652910173e-05
-1.0252188076265156e-05,3.448334246058948e-05,-1.2333568520261906e-05,-1.477605223954015e-06,-4.838801396545023e-05
-1.3468265933624934e-05,3.743781053344719e-05,-1.5500507288379595e-05,-1.683216578385327e-05,-3.222495251975488e-06
-2.0793020667042583e-05,3.7832614907529205e-05,-1.9983390302513726e-05,-3.095245119766332e-05,6.01649699092377e-05
-2.7793857952929102e-05,3.5743483749683946e-05,-2.7191366825718433e-05,-3.260497760493308e-05,0.00014397523773368448
-3.2635471143294126e-05,3.3497406548121944e-05,-3.453885074122809e-05,-2.061370287265163e-05,0.00022045600053388625
-3.530653702910058e-05,3.332260166644119e-05,-3.773034768528305e-05,2.3346807154212001e-07,0.00024183938512578607
-3.060625749640167e-05,3.607402686611749e-05,-3.954101703129709e-05,1.3902554201195017e-05,0.00019111316942144185
-2.04097232199274e-05,3.7243316910462454e-05,-3.801662751357071e-05,5.925058758293744e-06,0.00013295731332618743
-1.0204409591096919e-05,3.590888809412718e-05,-3.332785126985982e-05,-2.483774551365059e-06,9.763216803548858e-05
-4.409707344166236e-06,3.237331111449748e-05,-2.4116505301208235e-05,1.1617629525062512e-06,7.34866043785587e-05
-5.840179255756084e-06,3.1545998353976756e-05,-1.1518032806634437e-05,1.0578808542049956e-05,6.813649815740064e-05
-1.1454929335741326e-05,3.822012149612419e-05,-7.950124540911929e-07,1.7169550119433552e-05,6.758748349966481e-05
-1.688511656539049e-05,4.752466338686645e-05,6.887311883474467e-06,1.778172008926049e-05,6.503436452476308e-05
-2.3082369807525538e-05,5.188972863834351e-05,1.2217607945785858e-05,1.5332041584770195e-05,5.903063356527127e-05
-2.9400320272543468e-05,5.2861727454001084e-05,1.855148730101064e-05,1.1441826245572884e-05,6.51127629680559e-05
-3.792365896515548e-05,5.045397483627312e-05,2.4348140868823975e-05,1.0903064321610145e-05,8.797322516329587e-05
-4.802492549060844e-05,4.0837167034624144e-05,2.7484897145768628e-05,1.4616030057368334e-05,0.00011404191900510341
-5.113166116643697e-05,3.076977009186521e-05,2.7852918719872832e-05,2.2443204215960577e-05,0.00012699310900643468
-4.415177318151109e-05,2.2458218154497445e-05,2.6241054001729935e-05,2.7566338758333586e-05,0.00011816320329671726
-2.7223841243539937e-05,9.667556696513202e-06,2.3951763068907894e-05,2.8195621780469082e-05,9.382188000017777e-05
-8.869725206750445e-06,-1.1695387911458965e-05,2.1586258299066685e-05,2.797323395498097e-05,6.693805335089564e-05
-2.7587293516262434e-06,-2.890604082494974e-05,1.9219018213334493e-05,3.0231842174544e-05,5.1578976126620546e-05
-1.4397431186807808e-05,-2.650523674674332e-05,1.8940494555863552e-05,3.0418366804951802e-05,4.909435301669873e-05
-3.182356886100024e-05,-1.0397211553936359e-05,1.880817762867082e-05,2.76370865321951e-05,5.0682181608863175e-05
-3.7523615901591256e-05,3.000002152475645e-06,1.4870561244606506e-05,3.043486867682077e-05,4.9272315663984045e-05
-2.9587914468720555e-05,1.327631343883695e-05,1.3876364391762763e-05,4.46838021161966e-05,4.9054095143219456e-05
-2.2175505364430137e-05,2.648303961905185e-05,1.7903303159982897e-05,5.983340088278055e-05,5.1087125029880553e-05
-2.2713735233992338e-05,3.495696364552714e-05,1.6676507584634237e-05,6.302046676864848e-05,5.4372278100345284e-05
-2.546753967180848e-05,3.3169431844726205e-05,1.13997693915735e-05,5.730035627493635e-05,5.706752563128248e-05
-2.9267166610225104e-05,3.0492625228362158e-05,1.0582944923953619e-05,5.365553079172969e-05,5.862416583113372e-05
-3.5224362363805994e-05,3.040674164367374e-05,1.3595175914815627e-05,5.03522896906361e-05,5.4225522035267204e-05
-4.0840681322151795e-05,2.842458889062982e-05,1.027519738272531e-05,3.7174479075474665e-05,4.564946357277222e-05
-3.792324059759267e-05,2.4263117666123435e-05,2.3448389185887208e-07,1.644738222239539e-05,3.475674384390004e-05
-2.0872674213023856e-05,2.059782673313748e-05,-5.422984941105824e-06,-5.325864549377002e-06,3.1777366530150175e-05
-9.90605985862203e-06,2.0374591258587316e-05,-7.047613962640753e-06,-2.5376710254931822e-05,3.9191381802083924e-05
-1.2062428140779957e-05,2.4287262931466103e-05,-8.073828212218359e-06,-4.7486370021943e-05,4.707614061771892e-05
-1.2529068953881506e-05,3.222226587240584e-05,-9.320509889221285e-06,-6.718379881931469e-05,5.150818105903454e-05
-1.3062277503195219e-05,3.730870230356231e-05,-8.632502613181714e-06,-7.381074829027057e-05,5.313639485393651e-05
-2.0374540326884016e-05,3.8341582694556564e-05,-4.816719410882797e-06,-6.301261601038277e-05,4.909667404717766e-05
-3.13315395032987e-05,4.495693792705424e-05,-1.5250044782533223e-07,-3.950927930418402e-05,4.56728957942687e-05
-3.928411388187669e-05,5.638685615849681e-05,4.4452885958889965e-06,-1.7568858311278746e-05,4.349154551164247e-05
-4.8868863814277574e-05,6.34875541436486e-05,1.1672913387883455e-05,-1.3909402696299367e-06,4.372924013296142e-05
-5.2789273468079045e-05,6.455885886680335e-05,1.7434116671211086e-05,6.5613626247795764e-06,4.425647057360038e-05
-3.74106784875039e-05,6.172894791234285e-05,1.532449277874548e-05,7.287544121936662e-06,4.273132799426094e-05
-8.697543307789601e-06,5.287677777232602e-05,8.030853678064886e-06,7.217941856652033e-06,4.3444168113637716e-05
1.3331529771676287e-05,4.0140952478395775e-05,5.316663191479165e-06,9.823851542023476e-06,4.869842086918652e-05
1.0572059181868099e-05,3.0491890356643125e-05,7.89170189818833e-06,1.1773164260375779e-05,5.649977902066894e-05
-1.4086100236454513e-05,2.1684028979507275e-05,9.26780830923235e-06,7.841311344236601e-06,5.6860393669921905e-05
-4.1029903513845056e-05,9.336580660601612e-06,7.3977807915071025e-06,-5.145882369106403e-07,4.764771438203752e-05
-5.158509156899527e-05,-2.8132269562775036e-06,4.940102371620014e-06,-7.323894351429772e-06,3.447684139246121e-05
-4.7387147787958384e-05,-7.446904419339262e-06,5.233905540080741e-06,-1.3007714187551755e-05,2.647227120178286e-05
-3.961556649301201e-05,2.5409420345567924e-07,6.099683105276199e-06,-2.2717606043443084e-05,2.5473451387370005e-05
-3.0295588658191264e-05,1.7826656403485686e-05,5.656313078361563e-06,-3.49933652614709e-05,3.090286918450147e-05
-2.1322186512406915e-05,3.220116559532471e-05,5.492084255820373e-06,-4.439265831024386e-05,4.336715574027039e-05
-1.9592225726228207e-05,3.7496509321499616e-05,7.714640560152475e-06,-4.636167795979418e-05,5.5164433433674276e-05
-2.743184450082481e-05,4.008367977803573e-05,9.41821144806454e-06,-4.7287398047046736e-05,5.4106996685732156e-05
-4.149247979512438e-05,4.425880251801573e-05,8.315162631333806e-06,-4.700824138126336e-05,4.797665314981714e-05
-5.840091762365773e-05,4.4056236220058054e-05,6.163682883197907e-06,-3.649175414466299e-05,4.381609323900193e-05
-7.114406616892666e-05,2.8697450034087524e-05,6.609576757909963e-06,-1.8081382222590037e-05,4.544526746030897e-05
-7.306970655918121e-05,6.5633412305032834e-06,7.114159416232724e-06,-6.634617420786526e-06,5.021024844609201e-05
-6.173654401209205e-05,-4.8802580749907065e-06,4.124296538066119e-06,-8.450135283055715e-06,5.25249561178498e-05
-4.709122367785312e-05,-1.9511236359903705e-07,5.617461624751741e-07,-1.3459385627356824e-05,5.363229138310999e-05
-5.246723230811767e-05,8.18740954855457e-06,-5.337225275070523e-07,-1.6242676792899147e-05,5.7512665080139413e-05
-7.948150596348569e-05,1.3813437362841796e-05,-4.555591317512153e-07,-1.47241507875151e-05,5.776492616860196e-05
-0.00010425905202282593,2.2870872271596454e-05,2.138593799827504e-07,-1.2798653187928721e-05,5.617830902338028e-05
-9.680529910838231e-05,3.501743049127981e-05,1.2812598697564681e-06,-1.2726647582894657e-05,5.406859054346569e-05
-4.194390930933878e-05,4.7216872189892456e-05,1.3163703442842234e-06,-1.2858527043135837e-05,5.405104093370028e-05
3.6864181311102584e-05,5.097921166452579e-05,4.7460321184189525e-07,-1.669301127549261e-05,5.929807957727462e-05
8.573070226702839e-05,4.559366425382905e-05,-2.1864391186454668e-08,-2.094447336276062e-05,6.227529229363427e-05
7.97995162429288e-05,3.943179399357177e-05,-3.9537906104669673e-07,-2.4205564841395244e-05,6.131952977739275e-05
4.304946196498349e-05,3.7195582990534604e-05,9.705133834359003e-07,-2.3080707251210697e-05,5.8992180129280314e-05
1.129443171521416e-05,3.6299923522165045e-05,1.3646492789121112e-06,-2.220548049081117e-05,5.959003829048015e-05
-2.275060978718102e-06,2.8949303668923676e-05,-3.369816340637044e-06,-2.3420137949869968e-05,6.188675615703687e-05
-8.4888579294784e-06,1.4578715308743995e-05,-1.1273373274889309e-05,-2.4087947167572565e-05,7.122854003682733e-05
-1.3284040505823214e-05,5.120470177644165e-06,-1.7832177036325447e-05,-2.0447301722015254e-05,8.73135359142907e-05
-1.8629332771524787e-05,9.553114068694413e-06,-2.010410935326945e-05,-1.3421614312392194e-05,0.00010256337554892525
-2.9954206183901988e-05,1.9215283828089014e-05,-1.7259591913898475e-05,-6.374576969392365e-06,0.00011159027053508908
-4.575596904032864e-05,2.2954134692554362e-05,-1.2356977094896138e-05,-1.8274954527441878e-06,0.00011765227100113407
-4.986013664165512e-05,2.1012097931816243e-05,-8.294337931147311e-06,-2.044407892753952e-06,0.00012054332910338417
-3.9510960050392896e-05,2.1683927116100676e-05,-2.281633442180464e-06,-4.789097602042602e-06,0.00010972713789669797
-2.749789200606756e-05,2.5720190024003386e-05,5.4746074056311045e-06,-9.986484656110406e-06,8.06287134764716e-05
-2.2809081201558e-05,2.1385059881140478e-05,8.751030691200867e-06,-1.576162685523741e-05,4.353591430117376e-05
-2.268606112920679e-05,6.131353984528687e-06,2.6875791263591964e-06,-1.970988705579657e-05,4.608156359608984e-06
-2.1600611944450065e-05,2.1903219931118656e-06,-4.870552857028088e-06,-1.5908653949736618e-05,-3.1074796424945816e-05
-1.9430521206231788e-05,1.7240632587345317e-05,-7.640492185601033e-06,-9.354858775623143e-06,-4.876300590694882e-05
-1.712560151645448e-05,3.109292811132036e-05,-4.934330263495212e-06,-1.3406680409389082e-05,-4.0918774175224826e-05
-1.5559353414573707e-05,3.382143404451199e-05,2.9800312404404394e-06,-2.3742350094835274e-05,-2.0086941731278785e-05
-1.849837826739531e-05,3.278475924162194e-05,1.4355262464960106e-05,-2.6255293050780892e-05,1.5075114788487554e-05
-3.0182602131390013e-05,3.658487185020931e-05,2.3271666577784345e-05,-1.9214596250094473e-05,4.469968189368956e-05
-4.7229743358911946e-05,4.1137394873658195e-05,3.092787301284261e-05,-8.91809213499073e-06,3.33638527081348e-05
-5.820307706017047e-05,3.9933129301061854e-05,3.942160401493311e-05,-4.375321623228956e-06,1.0473195288795978e-05
-5.5748994782334194e-05,3.555757939466275e-05,4.3210311559960246e-05,-3.075341510339058e-06,1.6842177501530387e-06
-4.694364542956464e-05,3.560134791769087e-05,4.130967136006802e-05,1.8482180621504085e-06,-9.511009011475835e-07
-3.8571761251660064e-05,3.806700260611251e-05,3.28519381582737e-05,8.589338904130273e-06,-7.879351869632956e-06
-3.266098792664707e-05,3.769313480006531e-05,2.4663813746883534e-05,1.0225799996987917e-05,-1.3950007087260019e-05
-3.1367209885502234e-05,3.683856994030066e-05,2.1021394786657766e-05,1.005121612251969e-05,-8.086210073088296e-06
-3.4332380892010406e-05,3.677002678159624e-05,2.2406446078093722e-05,9.110037353821099e-06,1.1406461453589145e-05
-3.629997081588954e-05,3.712917896336876e-05,2.43127051362535e-05,6.728355401719455e-06,4.0629667637404054e-05
-3.148275936837308e-05,3.589165862649679e-05,2.270845834573265e-05,4.6380528146983124e-06,7.491551514249295e-05
-1.9849934687954374e-05,3.295264468761161e-05,1.9441604308667593e-05,2.625358774821507e-06,0.00011243034532526508
-1.0868071512959432e-05,3.0188637538230978e-05,1.411433913744986e-05,-2.6084057935804594e-06,0.00014863551768939942
-1.1423836440371815e-05,2.7906618925044313e-05,8.107779649435543e-06,-1.028473889164161e-05,0.00017626849876251072
-1.7958855096367188e-05,2.68088642769726e-05,3.989538981841179e-06,-1.772671748767607e-05,0.00018848957552108914
-2.3176167815108784e-05,2.831475285347551e-05,1.2781820259988308e-06,-2.2500504201161675e-05,0.0001870413834694773
-2.5526504032313824e-05,3.259567529312335e-05,-2.0410050183272688e-06,-2.1953401301288977e-05,0.00016843272896949202
-2.4064727767836303e-05,3.731126707862131e-05,-3.944149284507148e-06,-1.646084820094984e-05,0.00012394071382004768
-2.0171801224933006e-05,3.83331353077665e-05,-2.7650633001030656e-06,-1.1413857464503963e-05,6.590520933968946e-05
-1.669762423262e-05,3.9244394429260865e-05,-1.127213522522652e-06,-1.278400122828316e-05,3.208110501873307e-05
-1.2227738807268906e-05,4.436454037204385e-05,-5.1228735173936e-06,-1.5842548236832954e-05,4.0940754843177274e-05
-1.0762192687252536e-05,4.722503581433557e-05,-1.3082735677016899e-05,-1.792671173461713e-05,7.7394513937179e-05
-1.7110844055423513e-05,4.829501995118335e-05,-1.7766231394489296e-05,-2.2329923012875952e-05,0.0001118056898121722
-2.598981882329099e-05,4.367456494946964e-05,-1.5315970813389868e-05,-2.9857490517315455e-05,0.00012599978072103113
-2.6628566047293134e-05,3.188199843862094e-05,-8.025369425013196e-06,-3.3395968785043806e-05,0.00012563326163217425
-2.144472091458738e-05,2.5966297471313737e-05,-2.1632458810927346e-06,-2.873219273169525e-05,0.00011112686479464173
-1.859264557424467e-05,2.345825487282127e-05,-4.4538523980008904e-07,-2.2240243197302334e-05,8.039614476729184e-05
