-5.698567838408053e-05,7.539182843174785e-05,7.3513792813173495e-06,-4.6603540795331355e-06,5.394369509303942e-05
-4.967024869984016e-05,5.381320443120785e-05,7.204302619356895e-06,-4.455726866581244e-06,5.52443198102992e-05
-3.762647611438297e-05,-1.1569674825295806e-05,1.288643488805974e-06,-4.300186446926091e-06,5.812094241264276e-05
-3.26242225128226e-05,-3.329498940729536e-05,-2.5637305043346714e-06,-6.202677013789071e-06,6.235203909454867e-05
-3.029436629731208e-05,4.258825811120914e-06,-1.8109344637196045e-06,-1.0070446478493977e-05,6.400730489986017e-05
-2.9339795219129883e-05,4.524535688688047e-05,4.385286160868418e-07,-1.5500949302804656e-05,6.079153172322549e-05
-2.0292733097448945e-05,5.04164127050899e-05,3.74556407223281e-06,-1.9396195057197474e-05,5.6659788242541254e-05
6.226493951544398e-07,1.9000834072357975e-05,6.295796538324794e-06,-1.6917992979870178e-05,5.659792077494785e-05
1.4751904018339701e-05,-1.069076097337529e-05,6.041977030690759e-06,-1.2442324987205211e-05,5.9749560023192316e-05
1.0440376172482502e-05,-1.9164401237503625e-05,4.367190740595106e-06,-1.2633031474251766e-05,6.349083560053259e-05
-7.625888429174665e-06,-1.8594226276036352e-05,2.566655894042924e-06,-1.636750494071748e-05,6.297518848441541e-05
-2.567804949649144e-05,-1.2634794984478503e-05,1.5154121228988515e-06,-1.953223727468867e-05,5.880617754883133e-05
-3.5474004107527435e-05,2.9117893518559868e-06,-1.5558722452624352e-06,-1.9352008166606538e-05,5.5592416174476966e-05
-3.663089592009783e-05,2.365552427363582e-05,-9.153095561487135e-06,-1.9314697055961005e-05,5.4717311286367476e-05
-3.0457616958301514e-05,3.666883276309818e-05,-1.9295413949294016e-05,-2.8681875846814364e-05,5.5273427278734744e-05
-2.2723028450855054e-05,3.6281799111748114e-05,-2.8634656700887717e-05,-4.654249278246425e-05,5.744235750171356e-05
-2.2180320229381323e-05,3.335144720040262e-05,-3.4088330721715465e-05,-5.587940540863201e-05,6.07317742833402e-05
-3.0085555408732034e-05,4.103601895621978e-05,-3.311827458674088e-05,-4.6157660108292475e-05,6.44341780571267e-05
-3.792107236222364e-05,5.6490291171940044e-05,-2.635392957017757e-05,-2.605556437629275e-05,6.832108920207247e-05
-4.088404602953233e-05,6.4525542256888e-05,-1.6883655916899443e-05,-5.366435289033689e-06,6.891303928568959e-05
-4.247754259267822e-05,5.787824193248525e-05,-5.3196458793536294e-06,1.7398213458363898e-05,6.584986840607598e-05
-4.155289207119495e-05,3.5969274904346094e-05,7.367360922216903e-06,4.809188612853177e-05,6.142485653981566e-05
-3.578600080800243e-05,8.820858056424186e-06,2.276559462188743e-05,7.736759289400652e-05,5.710343612008728e-05
-3.071967148571275e-05,-7.458904747181805e-06,4.0384617022937164e-05,8.327614341396838e-05,5.649997910950333e-05
-3.081735849264078e-05,-4.5761303226754535e-06,5.237411824055016e-05,6.236871558940038e-05,5.9729311033152044e-05
-3.5151035262970254e-05,1.4031871614861302e-05,5.245496140560135e-05,3.231256050639786e-05,6.026753180776723e-05
-4.375437492853962e-05,3.318577728350647e-05,4.512169834924862e-05,8.449150300293695e-06,5.807256093248725e-05
-4.59808979940135e-05,5.064286960987374e-05,4.0465660276822746e-05,-1.2805258847947698e-05,6.0082275012973696e-05
-3.2045634725363925e-05,6.489580846391618e-05,3.853275120491162e-05,-3.883672252413817e-05,6.569964898517355e-05
-4.403595539770322e-06,6.900139851495624e-05,2.7961203159065917e-05,-6.701787788188085e-05,6.92868052283302e-05
2.6464005713933147e-05,6.732762267347425e-05,1.191970022773603e-05,-7.237277168314904e-05,7.021300552878529e-05
4.945697946823202e-05,5.6054388551274315e-05,-1.6262250710497028e-06,-3.9926850149640813e-05,6.988412496866658e-05
5.82877364649903e-05,3.1755287636769935e-05,-9.451117875869386e-06,-1.3686748445707053e-07,6.510148523375392e-05
5.120690184412524e-05,2.109224078594707e-05,-8.090463779808488e-06,2.55501927313162e-05,5.8231216826243326e-05
3.572876812540926e-05,3.795494558289647e-05,3.810366706602508e-06,4.1713647078722715e-05,5.288032116368413e-05
1.3980013136460911e-05,4.4064378016628325e-05,1.7640353689785115e-05,6.163521902635694e-05,5.0061247748089954e-05
-1.7861884771264158e-05,2.664338353497442e-05,2.647933433763683e-05,7.915884634712711e-05,4.781135794473812e-05
-6.187515100464225e-05,1.0115279110323172e-05,2.8222528271726333e-05,7.423006900353357e-05,4.530276783043519e-05
-8.728267857804894e-05,4.603725301421946e-06,2.2626982172369026e-05,4.125262057641521e-05,4.45121040684171e-05
-6.139300967333838e-05,-4.407233518577414e-06,1.6872980268090032e-05,7.373180892500386e-07,4.685428211814724e-05
-5.187137958273524e-06,-2.0175064491922967e-05,1.686661380517762e-05,-2.528043114580214e-05,5.1775994506897405e-05
3.107630254817195e-05,-3.692809332278557e-05,1.941598929988686e-05,-3.903586548403837e-05,5.40917826583609e-05
3.731952529051341e-05,-4.809422171092592e-05,1.8000902855419554e-05,-4.6135519369272515e-05,5.4868858569534495e-05
4.202222407911904e-05,-3.766764348256402e-05,1.4780371202505194e-05,-4.6713186748092994e-05,5.864773993380368e-05
4.8319016059394926e-05,1.529352857687627e-06,1.3898064025852364e-05,-4.423420250532217e-05,6.186519749462605e-05
3.30410803144332e-05,5.443361078505404e-05,1.3996003872307483e-05,-4.515424006967805e-05,6.071931784390472e-05
-5.893626166653121e-06,9.455691906623542e-05,1.2728740330203436e-05,-4.601148611982353e-05,5.953347135800868e-05
-4.091823939234018e-05,9.869840869214386e-05,1.2842288924730383e-05,-4.3546529923332855e-05,6.22080042376183e-05
-5.387975033954717e-05,6.548422243213281e-05,1.3919995581090916e-05,-3.9530463254777715e-05,6.562269118148834e-05
-5.012124529457651e-05,3.64473853551317e-05,1.1962318239966407e-05,-3.742198532563634e-05,6.333718920359388e-05
-5.076923480373807e-05,3.161310087307356e-05,7.499855200876482e-06,-3.9459799154428765e-05,5.750439231633209e-05
-5.5108470405684784e-05,1.932257328007836e-05,4.6051486606302205e-06,-4.315752812544815e-05,5.5633558076806366e-05
-4.665539745474234e-05,-6.47325305180857e-06,4.808764970221091e-06,-4.292487210477702e-05,6.19632555753924e-05
-2.982128717121668e-05,-2.230606241937494e-06,5.225049335422227e-06,-3.613989247241989e-05,7.095821638358757e-05
-2.7443011276773177e-05,4.1556922951713204e-05,1.7210865053129965e-06,-3.018944335053675e-05,7.225508306873962e-05
-4.3827294575748965e-05,7.243927393574268e-05,-1.1957639571846812e-06,-2.9668684874195606e-05,6.73428803565912e-05
-5.597238487098366e-05,6.59944344079122e-05,-1.0997136996593326e-06,-3.3457839890616015e-05,6.386754830600694e-05
-5.641433745040558e-05,3.7678881199099123e-05,-2.9988727874297183e-06,-4.0501898183720186e-05,6.43618986941874e-05
-5.074267028248869e-05,4.982332939107437e-06,-6.914954610692803e-06,-4.231053753755987e-05,6.817882967879996e-05
-4.413028000271879e-05,-8.136908945743926e-06,-5.948118541709846e-06,-3.819559788098559e-05,7.332336099352688e-05
-4.253746374160983e-05,-2.7103199045086512e-06,-7.300130278053985e-07,-3.383860894246027e-05,7.488662959076464e-05
-4.5265380322234705e-05,1.1893986084032804e-05,1.3569965631177183e-06,-3.353471038280986e-05,7.238771650008857e-05
-4.5397111534839496e-05,1.9666947991936468e-05,-2.386774440310546e-06,-3.4786735341185704e-05,6.788334576413035e-05
-3.661977098090574e-05,1.4926074982213322e-05,-7.1867166298034135e-06,-3.178263796144165e-05,6.366462912410498e-05
-2.753450462478213e-05,7.1238373493542895e-06,-7.97716074885102e-06,-2.270979712193366e-05,6.47022679913789e-05
-2.7452289941720665e-05,8.756116585573182e-06,-6.019522515998688e-06,-1.4068704331293702e-05,6.78282740409486e-05
-3.1332408980233595e-05,1.9651937691378407e-05,-4.0249306039186195e-06,-1.1772330253734253e-05,7.032419671304524e-05
-3.423651651246473e-05,2.877586848626379e-05,-1.7472393665229902e-06,-1.2065484952472616e-05,7.130778976716101e-05
-3.7560057535301894e-05,3.0476679967250675e-05,1.5832215467526112e-06,-1.1264066415606067e-05,6.942114850971848e-05
-4.1434610466239974e-05,2.520677662687376e-05,3.6891030958940974e-06,-1.0357108294556383e-05,6.440154538722709e-05
-4.297258419683203e-05,2.0045907149324194e-05,3.095220336035709e-06,-9.290355592384003e-06,6.010390643496066e-05
-4.123653707210906e-05,2.0834835595451295e-05,-1.5510074717894895e-06,-5.51917901248089e-06,5.921920092077926e-05
-4.165945574641228e-05,2.9865728720324114e-05,-7.817653568054084e-06,-1.6227078276642715e-06,6.102929182816297e-05
-4.502980300458148e-05,4.0359824197366834e-05,-1.1269384231127333e-05,-2.670434241736075e-06,6.402596045518294e-05
-4.701019133790396e-05,4.923553569824435e-05,-1.15245802589925e-05,-1.7979638869292103e-05,6.451520312111825e-05
-4.8364949179813266e-05,5.9393780247773975e-05,-1.3267143003758974e-05,-5.146949115442112e-05,6.177121395012364e-05
-4.930579962092452e-05,6.859489076305181e-05,-1.6085181414382532e-05,-8.384384273085743e-05,5.7622306485427544e-05
-5.012745168642141e-05,7.202065899036825e-05,-1.4512489542539697e-05,-8.510027691954747e-05,5.5114836868597195e-05
-4.73703294119332e-05,7.795179408276454e-05,-8.370433533855248e-06,-5.056254303781316e-05,5.039206371293403e-05
-3.99564414692577e-05,8.546383469365537e-05,-3.5619427762867417e-06,-3.903626293322304e-06,4.239911868353374e-05
-3.650586950243451e-05,8.446609717793763e-05,-7.550974714831682e-06,2.7678825063048862e-05,3.565478982636705e-05
-4.011303826700896e-05,6.792222120566294e-05,-1.4272838598117232e-05,3.62472164852079e-05,3.4046937798848376e-05
-4.436296148924157e-05,4.5247328671393916e-05,-1.3474182196659967e-05,4.1733735997695476e-05,3.771670162677765e-05
-5.219321610638872e-05,1.4165708307700697e-05,-6.431044766941341e-06,7.599087984999642e-05,3.620490315370262e-05
-6.308779848041013e-05,-4.300130240153521e-05,3.207779172953451e-06,0.00011328933032928035,2.8531381758511998e-05
-6.946681969566271e-05,-8.228774095186964e-05,1.135430284193717e-05,8.82276872289367e-05,2.767500700429082e-05
-6.82816025801003e-05,-6.593918078579009e-05,2.2032940250937827e-05,1.842258825490717e-05,3.855458999169059e-05
-5.603531826636754e-05,-3.160013147862628e-05,3.713082696776837e-05,-1.6506701285834424e-05,5.505262379301712e-05
-4.14269306929782e-05,4.881799213762861e-06,4.6684766857651994e-05,-1.1586598702706397e-05,7.051629654597491e-05
-2.377568671363406e-05,5.4898668167879805e-05,4.2381365346955135e-05,-7.280942554643843e-06,8.200042793760076e-05
-5.536322760235635e-07,0.00012413423974066973,2.8842561732744798e-05,-1.4357389773067553e-05,8.471043111057952e-05
1.706472539808601e-05,0.000185979442903772,1.8167154848924838e-05,-2.2345164325088263e-05,7.841853221179917e-05
2.0363942894618958e-05,0.00021689037384930998,1.2511928616731893e-05,-2.109903289237991e-05,6.413230585167184e-05
8.228657861764077e-06,0.00022699334658682346,9.430850695935078e-06,-1.5664440070395358e-05,5.050902473158203e-05
-4.04118736696546e-06,0.00022555024770554155,8.396869816351682e-06,-1.3675580703420565e-05,4.804627678822726e-05
3.758486855076626e-06,0.00019820909074041992,9.08239780983422e-06,-1.8948143406305462e-05,5.486920053954236e-05
2.8893751732539386e-05,0.00012086121569154784,1.0170468158321455e-05,-2.4940554794739e-05,6.310010940069333e-05
4.160289972787723e-05,-7.542010393990495e-07,1.0658814971975517e-05,-2.8416337954695337e-05,6.937881698831916e-05
1.810747926356271e-05,-0.00012440270802471787,1.0717070836108178e-05,-3.293968256912194e-05,7.208199531305581e-05
-2.7664307708619162e-05,-0.00018599347095005214,7.857831405999605e-06,-4.03787889808882e-05,7.135687337722629e-05
-5.564446473727003e-05,-0.00016212172340601683,7.725398631919234e-07,-4.513245585258119e-05,6.975499127293006e-05
-5.075145236332901e-05,-9.895534458337352e-05,-4.116597665415611e-06,-4.3284264393150806e-05,6.81078527122736e-05
-3.1375202524941415e-05,-5.2452869567787275e-05,-2.6817858724825783e-06,-3.7628029531333596e-05,6.768472667317837e-05
-2.1732410459662788e-05,-2.4227625544881448e-05,2.8044039481756045e-06,-3.0914034141460434e-05,6.671128357993439e-05
-2.8868456865893677e-05,5.799005066364771e-06,7.4604563451430295e-06,-2.0491122995736077e-05,6.402875442290679e-05
-4.1435447201365605e-05,2.940077865787316e-05,7.336849648709176e-06,-5.382249582908116e-06,6.124144420027733e-05
-4.496708061196841e-05,1.5170675396802835e-05,7.813856427674182e-06,8.681431609147694e-06,5.896247603232041e-05
-3.970122634200379e-05,-1.956582855200395e-05,1.2943201909365598e-05,1.5324496416724287e-05,5.793796663056128e-05
-3.8048958231229335e-05,-2.0295667127356865e-05,1.9009354218724184e-05,1.2377925486362074e-05,5.704467184841633e-05
-3.8735652196919546e-05,7.267908131325385e-06,1.9585744666983373e-05,3.481612338873674e-06,5.4811269365018234e-05
-3.5823653888655826e-05,2.341638901270926e-05,1.5046281077957246e-05,-6.516341272799764e-06,5.4710420954506844e-05
-3.296476643299684e-05,2.732933899096679e-05,8.895794053387363e-06,-9.868458619166631e-06,5.319885167409666e-05
-2.884780042222701e-05,3.186115645803511e-05,1.2622989515875815e-06,-4.312085366109386e-06,5.2014602260896936e-05
-2.130010943801608e-05,4.229447222314775e-05,-3.841415491478983e-06,1.880749550764449e-06,5.378754576668143e-05
-1.816736039472744e-05,5.200665327720344e-05,-7.85630072641652e-06,1.926321601786185e-06,5.467798109748401e-05
-1.8740531231742352e-05,5.641059760819189e-05,-1.1123004696855787e-05,-1.1569052276172442e-06,5.319363481248729e-05
-1.928513120219577e-05,6.109116657171398e-05,-1.1914028618775774e-05,-1.7753035308487597e-06,5.307961328071542e-05
-1.4970343727327418e-05,6.846486940048635e-05,-1.0568753168627154e-05,-2.44814532379678e-06,5.557683471124619e-05
-1.2723243116852245e-06,6.432634108932689e-05,-6.612773177039344e-06,-5.425242761702975e-06,5.743717701989226e-05
7.141952664824203e-06,3.930976163246669e-05,3.1083467888493033e-07,-5.560235877055675e-06,5.659306043526158e-05
1.283720848732628e-06,1.0186443432758097e-05,5.853040420333855e-06,-2.180461478928919e-06,5.273924398352392e-05
-9.27739074541023e-06,3.006582346642972e-06,6.750778993591666e-06,-1.9002159206138458e-06,5.159486681804992e-05
-1.2624271221284289e-05,1.9915920347557403e-05,7.887815627327655e-06,-2.7690682600223226e-06,5.699177199858241e-05
-1.1396298759791534e-05,4.020563210360706e-05,1.4117598766461015e-05,-1.4158001704345224e-06,6.67532003717497e-05
-1.5662924852222204e-05,5.414566112449393e-05,2.149426654796116e-05,-1.4087358977121767e-06,7.40361720090732e-05
-2.7480562494019978e-05,6.0655413108179346e-05,2.299162770214025e-05,-4.390543381305179e-06,7.412852573907003e-05
-4.073635136592202e-05,5.118416083860211e-05,2.0120984117966145e-05,-8.347613402293064e-06,6.982740887906402e-05
-4.8609450459480286e-05,1.7773285435396247e-05,1.6131407392094843e-05,-1.1515763617353514e-05,6.605208909604698e-05
-4.659500336856581e-05,-1.7293245036853477e-05,1.3020180631428957e-05,-1.1510024705785327e-05,6.31372386123985e-05
-3.45899497915525e-05,-2.4847584427334368e-05,1.3412822227110155e-05,-9.960427632904612e-06,6.197663606144488e-05
-1.6453099306090735e-05,-1.3241104170447215e-05,1.5233311387419235e-05,-1.1949379768338986e-05,6.428719643736258e-05
-3.0859093840263085e-06,-5.081130439066328e-06,1.2249584870005492e-05,-1.7764579752110876e-05,6.642496737185866e-05
-1.7902985973705654e-06,2.4759260668361094e-06,5.4354195526684634e-06,-2.614109507703688e-05,6.405367457773536e-05
-6.088003374316031e-06,9.071457498066593e-06,-4.1371431507286616e-06,-3.100097455899231e-05,6.0344627854647115e-05
-6.30717795502278e-06,1.4044676390767563e-05,-9.85480255621951e-06,-3.0159722882672213e-05,6.080955790821463e-05
1.1116435416624881e-06,1.9939472622354515e-05,-5.045912075729575e-06,-2.5905310394591652e-05,6.334918725769967e-05
1.8938023913506186e-06,3.0331322705023922e-05,9.071258233461776e-08,-2.0754023353219964e-05,6.353358912747353e-05
-8.423660801781807e-06,3.811827991739847e-05,-4.273054798886733e-07,-1.689643795543816e-05,6.47003180347383e-05
-1.5048430213937536e-05,3.776050652959384e-05,-2.8452873266360257e-06,-1.0722513252403587e-05,6.817156099714339e-05
-9.118559319176711e-06,3.536933218128979e-05,-4.23000892624259e-06,-5.296570179780247e-06,6.993817078182474e-05
1.6719753830329864e-06,3.5987810406368226e-05,-5.967774995951913e-06,-6.130407541604654e-07,7.108941645128652e-05
7.556043783552013e-06,4.1977349610533565e-05,-6.91349123371765e-06,1.14806171040982e-05,7.205380825325847e-05
-2.0643969378397742e-07,4.242129216436297e-05,-2.933082214440219e-06,2.1785088392789476e-05,7.128155266400427e-05
-2.063868669210933e-05,3.839501732727513e-05,1.991221552088973e-06,2.4758965082583018e-05,6.675352778984234e-05
-3.958862362196669e-05,3.868664498440921e-05,4.708032065536827e-06,2.5783765522646718e-05,6.0032689361833036e-05
-4.682756116380915e-05,4.074145181220956e-05,5.201845851843245e-06,2.639462945808191e-05,5.5582710047019646e-05
-4.2325715185143054e-05,3.9052454667398706e-05,2.6318909931433154e-06,2.4953693355200812e-05,5.3643587307306007e-05
-3.147429015371017e-05,3.194401870132424e-05,-1.301857423641195e-06,2.110891364281997e-05,5.341454016161151e-05
-2.5576475309208035e-05,1.9066272216150537e-05,-2.7071159820479807e-06,1.649407931836322e-05,5.409399454947561e-05
-3.2053667382569984e-05,5.003985279472545e-06,-2.639578951857402e-06,1.5404895748361014e-05,5.3263065638020635e-05
-4.0235896449303254e-05,-3.327527565488708e-06,-3.259039203840075e-06,1.841856646933593e-05,4.999747034162283e-05
-3.981883855885826e-05,-2.763951442830148e-06,-1.8142326325687463e-06,2.0343135474831797e-05,4.935888864565641e-05
-3.8737667637178674e-05,1.1938335774175357e-05,3.815335730905645e-06,1.6544317986699753e-05,5.1493279897840694e-05
-4.767554491991177e-05,3.8300975575111806e-05,9.670562576502562e-06,8.92155549081508e-06,5.3287421906134114e-05
-6.123584898887202e-05,5.208477159612812e-05,1.2243471246620174e-05,2.9749573968729237e-06,5.354396489565261e-05
-6.659002974629402e-05,4.0722119592828676e-05,1.417074690834852e-05,-2.1588443814835045e-06,5.4134103265823796e-05
-5.798553684144281e-05,3.027157436008565e-05,1.4817434021097142e-05,-5.253898962109815e-06,5.673939813277684e-05
-4.1446113755228e-05,3.696393468999304e-05,9.238175152859185e-06,-7.793743861839175e-06,6.024254616932012e-05
-3.1955092708813027e-05,4.513758540269919e-05,2.9545963116106577e-06,-1.6297837646561675e-05,6.275613122852519e-05
-3.6661622289102525e-05,3.8013495213817805e-05,3.6564606489264406e-06,-2.6560517653706484e-05,6.234367174329236e-05
-4.0319791878573596e-05,2.269525248266291e-05,5.754228368459735e-06,-3.095939609920606e-05,5.828632492921315e-05
-3.494766860967502e-05,1.8256781913805753e-05,6.914892765053082e-06,-3.0509037969750352e-05,5.321898788679391e-05
-2.5604011170798913e-05,1.2614297702384647e-05,6.301951088971691e-06,-2.680216493899934e-05,4.915281169814989e-05
-1.5064851140778046e-05,-2.6017785330623155e-06,4.99501584272366e-06,-2.4897290131775662e-05,5.0487364205764607e-05
-6.954498530831188e-06,-9.80309778242372e-06,5.634761691908352e-06,-2.7514681278262287e-05,5.890897591598332e-05
-7.6155583883519284e-06,-9.372111890115775e-06,8.019919732760172e-06,-2.6744126444100402e-05,6.403626321116462e-05
-1.1242781511100475e-05,-2.2699970941175707e-05,1.0214016583631746e-05,-2.0707297153421678e-05,6.294386548688635e-05
-1.1684443961712532e-05,-3.667773125926033e-05,9.160482477454934e-06,-2.028506060014479e-05,5.8991914556827396e-05
-8.678909580339678e-06,-2.236111686215736e-05,6.2063672885415144e-06,-2.950917223643046e-05,5.579096614383161e-05
-3.514927357173292e-06,8.751952009333763e-06,2.311386879227939e-06,-4.801589602720924e-05,5.265044092084281e-05
-3.245381321903551e-06,3.408094562473707e-05,1.3334854429558618e-06,-6.109427340561524e-05,4.922596053802408e-05
-7.356808509939583e-06,5.0242928409716114e-05,3.693778808155912e-06,-5.363745367503725e-05,4.544371404335834e-05
-1.4381588698597625e-05,6.232552550500259e-05,4.153524059802294e-06,-3.018062488990836e-05,4.5021493860986084e-05
-2.162639793823473e-05,6.696151103824377e-05,2.28432463700301e-06,-6.900490006955806e-06,4.7958608774933964e-05
-2.8202559406054206e-05,6.491090607596561e-05,1.511084292360465e-06,9.339518328488339e-06,4.820376125280745e-05
-3.280546661699191e-05,6.34717580396682e-05,2.8695665150735294e-06,2.673815470188856e-05,4.580898894346319e-05
-3.4153315937146544e-05,6.214316817931831e-05,5.586126917478396e-06,4.227054523653351e-05,4.378127778181806e-05
-3.5100783861707896e-05,4.999585507903248e-05,7.490354619221762e-06,4.012743738712743e-05,4.245538730174303e-05
-3.8682050217175856e-05,3.4382268495392054e-05,9.94956644717604e-06,1.3894877156417351e-05,4.1901221266016364e-05
-4.62780189991463e-05,3.69520639651455e-05,1.6103665984701365e-05,-1.803241866582539e-05,4.277007974451408e-05
-5.1211998652433977e-05,6.035973638063297e-05,2.1306499547790736e-05,-3.140698390780017e-05,4.5576442062156275e-05
-4.7901467041810974e-05,8.79833969520405e-05,2.1960673620924354e-05,-2.6682881070883013e-05,5.075422814115882e-05
-4.089149661012925e-05,9.883809980237857e-05,1.996915125346277e-05,-2.583150489954278e-05,5.5540931498399004e-05
-3.5931981983594596e-05,8.085103763733059e-05,1.4134336197457742e-05,-3.550475958036259e-05,5.776670150225982e-05
-2.92912754957797e-05,4.972548777004704e-05,4.015136255475227e-06,-4.23870405938942e-05,5.896318543818779e-05
-1.537797652417794e-05,2.6623440135153942e-05,-4.5233559831103776e-06,-3.723850750247948e-05,6.101710823713802e-05
1.0789248250375749e-07,5.904270892642671e-06,-4.626642294169869e-06,-2.5269249817938544e-05,5.864679042133503e-05
6.21036633674521e-06,-2.439380477881059e-05,1.9003076090484683e-07,-1.4973262295825407e-05,5.4145377362146974e-05
-4.086931767233182e-06,-5.765859532402828e-05,-2.345914708712371e-06,-1.7406840925104916e-05,5.17794796905946e-05
-2.4307671992573887e-05,-7.360277959378436e-05,-9.62588001129916e-06,-3.141841443721205e-05,4.990503657609224e-05
-2.2188667571754195e-05,-5.66496019018814e-05,-1.1556356184883043e-05,-3.796351302298717e-05,5.253754716250114e-05
5.383066763897659e-06,-1.2388656614348292e-05,-1.4169931091601029e-05,-3.186493631801568e-05,5.766949470853433e-05
2.6074629204231314e-05,3.31943083438091e-05,-1.7921403923537582e-05,-2.5378072677995078e-05,5.680815957020968e-05
2.3106087610358372e-05,6.173105066409335e-05,-1.749026523611974e-05,-2.2473937860922888e-05,5.353454253054224e-05
4.936641744279768e-06,7.317151903407648e-05,-1.634528598515317e-05,-1.7918770026881248e-05,5.372190571506508e-05
1.9501137558108894e-06,5.575216346187517e-05,-1.606395744602196e-05,-1.752845673763659e-05,6.065424531698227e-05
1.0748629392764997e-05,2.0619101633201353e-05,-1.8740409359452315e-05,-2.306327769474592e-05,6.93582187523134e-05
-6.079213562770747e-06,2.0724854039144702e-05,-2.1074027245049365e-05,-2.322718864888884e-05,7.311837543966249e-05
-4.425199585966766e-05,5.613267785520293e-05,-1.8783874111250043e-05,-1.4529981854138896e-05,7.136784552130848e-05
-6.174473674036562e-05,8.009050361579284e-05,-8.669467206345871e-06,-4.639945473172702e-06,6.990889232838526e-05
-5.441492612590082e-05,6.701202801195905e-05,5.50016738998238e-06,2.0581510398187675e-06,7.196116348495707e-05
-5.2739764214493334e-05,4.9096150178229436e-05,1.8053764506476e-05,5.112209237267962e-06,7.299446588149294e-05
-7.158726657507941e-05,5.5234559113159776e-05,2.624871558509767e-05,-9.768689324118895e-07,7.419159373966977e-05
-9.075582784134895e-05,6.625985406571999e-05,3.176201062160544e-05,-1.0205494618276134e-05,8.00067136879079e-05
-8.94343393156305e-05,5.840275116497651e-05,3.7979119952069595e-05,-8.271077604149468e-06,9.036951814778149e-05
-7.649695908185095e-05,3.8304704503389075e-05,4.1930929000955075e-05,5.670252448908286e-06,9.90309999906458e-05
-7.137373177101836e-05,2.492590283509344e-06,4.0614864701638e-05,2.220245914941188e-05,9.607955871615559e-05
-7.369012018898502e-05,-6.31953589618206e-05,3.501471292111091e-05,3.520623067743145e-05,7.99926565377973e-05
-6.986106018302962e-05,-0.0001330114173470065,2.753234002739191e-05,4.0227590943686664e-05,6.457762356149033e-05
-5.880486060050316e-05,-0.00016468920512124896,1.38955692818854e-05,2.8863214538432658e-05,6.142730126157403e-05
-4.988780710846186e-05,-0.0001334630505880341,-5.5787618293834385e-06,-3.355108049163391e-07,6.838797708041966e-05
-4.7319597797468305e-05,-6.123955245129764e-05,-2.365685395488981e-05,-3.1933130230754614e-05,7.335515692830086e-05
-4.172135959379375e-05,1.1009600484612747e-06,-3.160311098326929e-05,-4.739270298159681e-05,7.309120701393113e-05
-3.582486169761978e-05,3.0062554287724197e-05,-3.0108758437563665e-05,-4.9869609938468784e-05,7.364427438005805e-05
-3.834168455796316e-05,4.7367870138259605e-05,-2.6517627702560276e-05,-5.1597955462057143e-05,7.38213857403025e-05
-3.5711123928194866e-05,6.724605918861926e-05,-2.3406762920785695e-05,-4.9601090722717345e-05,7.076231122482568e-05
-1.868414801720064e-05,8.998556586448103e-05,-1.577466719027143e-05,-3.960891626775265e-05,6.36662298347801e-05
-4.175219601165736e-06,0.00011495278886286542,-5.627353402815061e-06,-2.531104109948501e-05,5.787390182376839e-05
3.823103270406136e-06,0.0001352932013105601,2.9039849778200733e-06,-8.688075467944145e-06,5.966486787656322e-05
4.96144048156566e-06,0.00013671332271769643,1.2331754987826571e-05,6.915944140928332e-06,6.513547123176977e-05
-9.272704119211994e-06,0.00011188616190338507,2.309537012479268e-05,1.7484313502791338e-05,6.737647345289588e-05
-3.573306094040163e-05,8.573444210924208e-05,3.2298728910973296e-05,2.2766667825635523e-05,6.334383942885324e-05
-4.9549576942808926e-05,7.419889880111441e-05,3.3241522032767534e-05,2.550263343437109e-05,5.816695556859486e-05
-3.5652119549922645e-05,6.837736145826057e-05,2.852045145118609e-05,2.284162474097684e-05,5.489317118190229e-05
-1.5805468137841672e-05,6.53892129776068e-05,2.598139144538436e-05,1.3203143680584617e-05,5.505784065462649e-05
-5.8129003264184576e-06,6.661605584667996e-05,2.6115945729543455e-05,2.549058308431995e-06,5.558454358833842e-05
-2.7608921300270595e-06,7.128822471713647e-05,2.5417668439331464e-05,-1.9367465142750007e-07,5.662202602252364e-05
8.901270120986737e-07,6.930115341674536e-05,2.1775160348624922e-05,3.7414988582895603e-06,5.746709575760178e-05
2.648668669280596e-06,6.199657218530774e-05,1.4420822481042705e-05,2.745217898336705e-06,5.478439561557025e-05
-5.576283456321107e-06,5.2165436500217766e-05,9.154362487606704e-06,-3.2658570034982404e-06,5.0893169827759266e-05
-2.0583182049449533e-05,3.8126188883325085e-05,8.946735761128366e-06,-8.704910214873962e-06,4.8198642616625875e-05
-3.111060505034402e-05,2.105764542648103e-05,9.834335287450813e-06,-1.1151505532325245e-05,4.5479020627681166e-05
-3.0130477171042003e-05,1.0490158274478745e-05,8.922746019379701e-06,-1.0861424925678875e-05,4.154449197812937e-05
-2.4349988962057978e-05,1.3224319445725996e-05,4.4711869122693315e-06,-1.0942676453851163e-05,3.729604941327125e-05
-2.429786036373116e-05,2.0298164599807933e-05,-1.8485438886273187e-06,-1.360411897621816e-05,3.5141376429237425e-05
-3.130410550511442e-05,2.1022466171416454e-05,-6.673134066659259e-06,-1.4707867194374558e-05,3.717639992828481e-05
-4.076669938513078e-05,2.0798186596948653e-05,-1.070706821337808e-05,-1.5313775293179788e-05,3.902585740434006e-05
-4.947125489707105e-05,2.716897870413959e-05,-1.6230103938141838e-05,-2.2229431124287657e-05,3.894159090123139e-05
-4.8362911911681294e-05,3.255113915656693e-05,-2.243008930236101e-05,-3.587534592952579e-05,4.0248254663310945e-05
-3.597995237214491e-05,2.9811977583449334e-05,-2.6120058464584872e-05,-4.89835802000016e-05,4.5467138988897204e-05
-2.48818178079091e-05,1.866216007329058e-05,-2.3308715753955767e-05,-5.543636143556796e-05,5.1667451771209016e-05
-2.0584275262081064e-05,1.2089199117326643e-05,-1.5036760487419087e-05,-5.863111437065527e-05,5.8578105381457135e-05
-2.444427809678018e-05,1.9559209249564447e-05,-7.373667813226348e-06,-6.35274191154167e-05,6.387972825905308e-05
-3.900545198121108e-05,3.3085081668104976e-05,-4.758669547300087e-06,-6.863860471639782e-05,6.547260272782296e-05
-5.222323670750484e-05,3.847089101327583e-05,-5.064377432972833e-07,-7.118763460312039e-05,6.379160186043009e-05
-6.072794349165633e-05,3.961692709708586e-05,7.514969183830544e-06,-7.06052960595116e-05,6.429316999856383e-05
-7.008561806287616e-05,4.318613719078712e-05,1.3989375474920962e-05,-6.40192229184322e-05,6.40881626168266e-05
-7.905763777671382e-05,5.570594294113107e-05,1.5843030269024894e-05,-4.898048791801557e-05,5.718750981031917e-05
-9.344680438516662e-05,7.37278678570874e-05,1.7963106074603274e-05,-2.5346880647703074e-05,5.293683352647349e-05
-9.789299656404182e-05,7.150162855396047e-05,1.9956123651354574e-05,3.344658352943952e-06,5.490300463861786e-05
-7.663536234758794e-05,5.579073331318796e-05,1.7835835024015978e-05,3.0649927794001997e-05,6.0692414990626276e-05
-3.9994545659283176e-05,5.391201193560846e-05,1.739883555273991e-05,5.635508932755329e-05,6.719218072248623e-05
-4.683900442614686e-06,6.932196265552193e-05,1.798892844817601e-05,7.521527004428208e-05,6.956107245059684e-05
2.3603028239449486e-05,8.306420932058245e-05,1.997014624066651e-05,7.717606058577076e-05,6.346630834741518e-05
4.844472277909517e-05,8.019838423933834e-05,2.083023719023913e-05,6.923617183929309e-05,5.394220715970732e-05
7.173079939093441e-05,7.595273928018287e-05,1.948544741026126e-05,5.93508557358291e-05,5.119833804201335e-05
9.371335909236223e-05,7.062179793138057e-05,1.7450096493121237e-05,4.925596294924617e-05,5.4856962378835306e-05
0.00011042031110264361,3.3909112971741706e-05,1.595771755091846e-05,3.3784097468014807e-05,5.752368087996729e-05
0.00011199820437468588,-4.079455538885668e-05,1.2995972610951867e-05,1.2681476619036403e-05,5.509977199835703e-05
9.546001092530787e-05,-0.00010902649228228256,5.04769468534505e-06,-1.0358400686527602e-05,5.023186531616375e-05
6.814963126089424e-05,-0.00013073904847260565,-2.4134824343491346e-06,-2.8053656933479942e-05,4.4555017666425556e-05
3.5717977880267426e-05,-9.350883192382753e-05,-4.8523893383389805e-06,-3.377344910404645e-05,3.960726462537423e-05
-2.017412271015928e-06,-1.0769328582682647e-05,-5.645967576128896e-06,-3.7912348489044234e-05,3.6639819882111624e-05
-3.575938899302855e-05,7.717445259913802e-05,-8.053767487581354e-06,-4.643349893740378e-05,4.104225445189513e-05
-5.0256250688107684e-05,0.00012674342724494636,-9.67906180449063e-06,-5.015287752030417e-05,5.5802531278459355e-05
-4.70160084660165e-05,0.00011468529555713758,-9.891366062220186e-06,-4.396866279421374e-05,7.105743861757219e-05
-4.170189640717581e-05,5.942999996477738e-05,-1.0214102985628415e-05,-3.488951188046485e-05,7.624912541359663e-05
-4.467079997994006e-05,3.915129127562977e-06,-9.259571015718393e-06,-2.8582977392943576e-05,7.122199167497456e-05
-5.078006142866798e-05,-7.906330210971646e-06,-3.1029821911943145e-06,-2.5852139515336603e-05,6.336390651995316e-05
-4.717471529147588e-05,2.5159306460409425e-05,5.156858151167398e-06,-2.0841478544753045e-05,5.883804624318145e-05
-3.724007183336653e-05,4.406549851410091e-05,5.027374754718039e-06,-1.0658759492798708e-05,5.867137952009216e-05
-3.802913488470949e-05,2.3850210709497333e-05,-2.8316628686297918e-06,-2.3022764708002796e-06,5.770372081315145e-05
-3.930958337150514e-05,-8.124038686219137e-06,-9.982563824451063e-06,1.2064778047715663e-06,5.560749559663236e-05
-3.374723746674135e-05,-4.24214122176636e-05,-1.4267766346165445e-05,3.3707856346154585e-06,5.330800559022464e-05
-2.5418172299396247e-05,-8.25258539407514e-05,-1.3330080946616363e-05,3.7384832012321567e-06,5.078116009826772e-05
-2.2626198187936097e-05,-0.00010929400013992563,-9.752274308993947e-06,4.360635557532078e-06,5.009877713746391e-05
-2.8084888981538825e-05,-0.00010966095578623936,-5.478598268382484e-06,6.807601948821684e-06,5.359175702324137e-05
-3.523706618580036e-05,-0.00010364911577198654,2.1214633250110637e-07,7.6209371400182135e-06,5.95527671976015e-05
-3.847623884212226e-05,-9.173111902782694e-05,7.972794264787808e-06,4.239536337991012e-06,6.229017162695527e-05
-2.7054516976932064e-05,-5.954770676908083e-05,1.626616904104594e-05,5.061118031335354e-07,6.125345680629835e-05
-1.208701178256888e-05,-1.685284405539278e-05,2.1870828277315013e-05,-8.533744448868674e-07,5.927718666498549e-05
-7.032877874735277e-06,1.8941300368169323e-05,2.424016383884009e-05,-1.8643276007423992e-06,6.048322393326089e-05
-1.0624855349306017e-05,4.214108412270434e-05,2.3979613615665585e-05,-3.5006598864129046e-06,6.356566154863685e-05
-2.0318722818046808e-05,4.9308204324916005e-05,2.338822559977416e-05,-6.441679033741821e-06,6.70439621899277e-05
-3.43797255482059e-05,4.7113349864957854e-05,2.4513814423698932e-05,-8.76290232554311e-06,7.03146361047402e-05
-4.4112439354648814e-05,4.642823842004873e-05,2.6749334210762754e-05,-7.152680609578965e-06,7.351259409915656e-05
-4.7166486183414236e-05,5.2141607739031315e-05,2.5794126486289315e-05,-4.03352350986097e-06,7.653487409697846e-05
-4.900673229712993e-05,5.91618700127583e-05,2.1705845938413404e-05,-1.3384826615947532e-06,7.54651555325836e-05
-4.792632898897864e-05,6.459518044721335e-05,1.6421949112555012e-05,-1.2392473536237958e-06,7.383459160337225e-05
-4.099898796994239e-05,7.040244963718578e-05,1.1495445505715907e-05,-6.91606646796572e-06,7.384484342765063e-05
-3.385672971489839e-05,7.32867483748123e-05,1.0244993973174132e-05,-1.4437523532251362e-05,7.121318049030378e-05
-3.172990182065405e-05,7.015954906819388e-05,1.2862705261795782e-05,-1.805625288398005e-05,6.688436405966058e-05
-3.702166213770397e-05,6.482731987489387e-05,1.4715792531205807e-05,-1.850241460488178e-05,6.569377728737891e-05
-4.66627643618267e-05,5.303181751514785e-05,1.1665407328109723e-05,-2.020633291976992e-05,6.373013457050547e-05
-5.0382426707074046e-05,3.456271588220261e-05,7.35414960217895e-06,-2.202206633228343e-05,5.874631824553944e-05
-4.752096356241964e-05,2.6401497962069698e-05,6.516675512102665e-06,-1.8088448996422812e-05,5.518351827049628e-05
-4.436633753357455e-05,2.910995863203425e-05,7.515398465329781e-06,-9.423216397408396e-06,5.0889266276499256e-05
-4.196772715658881e-05,2.991503606608603e-05,6.739081982232165e-06,-3.260451421738253e-06,4.731629087473266e-05
-3.857423871522769e-05,3.309250678285025e-05,3.3171868381032255e-06,-4.587283797263808e-08,4.789783270098269e-05
-3.786455272347666e-05,4.275097671779804e-05,4.211041868984466e-06,-1.9563584086057517e-09,5.1264862122479826e-05
-3.8020414649508893e-05,5.017882358515635e-05,8.318788786709774e-06,-5.665813660016283e-06,5.672375482390635e-05
-3.810293128481135e-05,5.4818061471451074e-05,9.940645213646349e-06,-9.93746562016895e-06,5.969157791696489e-05
-4.140470628044568e-05,5.978934859740548e-05,7.468907824659254e-06,-1.1009032277797814e-05,5.6334716646233574e-05
-4.421206540428102e-05,6.561117334058508e-05,2.3273514671018347e-06,-8.0012614489533e-06,4.965179687133059e-05
-4.074943717569113e-05,6.799998664064333e-05,-2.0206719000270823e-06,-4.6238108097895747e-07,4.710803477792069e-05
-3.449921132414602e-05,6.937864236533642e-05,-3.865197413688293e-06,9.927158316713758e-06,4.9104059144156054e-05
-2.739088267844636e-05,6.366481829900295e-05,-5.185604550206335e-07,2.4447639589197934e-05,5.176168997422792e-05
-1.8531914975028485e-05,5.0090369768440723e-05,6.315369773801649e-06,3.0083920137258247e-05,5.219217200647108e-05
-1.339298250968568e-05,3.569092586985789e-05,9.804459295992274e-06,2.2468786482932046e-05,4.977043136022985e-05
-1.4961828128434718e-05,2.8476042643887922e-05,4.887763225269737e-06,6.584745733562158e-06,4.673056537285447e-05
-1.8417516912450083e-05,3.5692475648829713e-05,-2.700618097151164e-06,-1.839607830333989e-05,4.5002605475019664e-05
-1.8690076103666797e-05,4.8302692448487505e-05,-4.452786924957763e-06,-5.128939665155485e-05,4.522622111835517e-05
-1.7272956029046327e-05,5.017245712224394e-05,-1.5894082707745838e-06,-7.110666774678975e-05,4.709104905487038e-05
-1.4638985703641083e-05,4.1584593418519944e-05,1.0012134907810832e-06,-6.507034413516521e-05,4.886289025307633e-05
-1.1978944712609518e-05,3.2736083085183054e-05,3.5887808280676836e-06,-4.969280416844413e-05,4.807434379472397e-05
-1.1989548511337489e-05,2.986087929457426e-05,6.988900167925749e-06,-3.858707714243792e-05,4.605653521139175e-05
-1.6558964489377104e-05,3.2655738323228434e-05,9.900743862090167e-06,-3.185733294230886e-05,4.387400986161083e-05
-2.263896749354899e-05,3.075737186009064e-05,1.2211320608912501e-05,-3.0319595680339262e-05,4.207307210890576e-05
-2.7502977900439873e-05,2.532007056288421e-05,1.1643396646832116e-05,-3.551130794221535e-05,4.124690167373046e-05
-3.3574211556697264e-05,2.467721060384065e-05,6.758806193829514e-06,-3.797010867856443e-05,4.2845651478273794e-05
-4.102845923625864e-05,3.425999966566451e-05,1.8135937125407509e-06,-2.9922726753284223e-05,4.755781628773548e-05
-4.286766852601431e-05,5.0271672080270946e-05,2.1814749118220789e-07,-1.8846079910872504e-05,5.628448707284406e-05
-3.6761983210453764e-05,5.802220766781829e-05,4.7473409381382226e-07,-7.744813046883792e-06,6.610767741221935e-05
-3.426559123909101e-05,5.562186925089918e-05,8.458792422061379e-07,5.715143288398394e-06,7.364308112300932e-05
-3.598555122152902e-05,5.46229857718572e-05,8.510913858117419e-07,1.5599807738908567e-05,7.522509258706123e-05
-3.504068808979355e-05,5.341307041817345e-05,-2.2388128400052665e-06,9.366992344439495e-06,7.262254075612873e-05
-3.1112449505599216e-05,5.225937638897449e-05,-2.1513988031074405e-06,-7.5330885920266155e-06,7.222807471407577e-05
-3.107846714556217e-05,5.6332839449169114e-05,4.779001756105572e-06,-1.4183601706463378e-05,7.267364708241075e-05
-3.8743408367736265e-05,6.069938535802066e-05,1.222375976794865e-05,-9.08265974430833e-06,7.24216879461892e-05
-3.883618410327472e-05,5.514306394616142e-05,1.773441363184247e-05,1.486741098233324e-06,7.043601362966001e-05
-2.1238211047602817e-05,5.191073432797566e-05,2.066996785288211e-05,6.951491741347127e-06,7.084672688506544e-05
2.836248143012199e-07,7.030608685454354e-05,2.069337097054813e-05,5.073978172731586e-06,7.254852971527725e-05
8.130785317916889e-06,7.869189721532166e-05,2.0055917048011906e-05,2.7575736112339655e-06,7.072864536894485e-05
4.035274741909234e-06,3.3303378586424515e-05,1.52046686707763e-05,-2.205420969403349e-06,6.751612818334252e-05
-6.9141588028287515e-06,-4.726461702375673e-05,5.694258106814232e-06,-1.0879851288336795e-05,6.371474592015147e-05
-2.0263549231458455e-05,-9.631631837692112e-05,-3.783193562867382e-07,-1.4924726201570593e-05,6.087519068387337e-05
-3.373004437889904e-05,-8.573602099204436e-05,-1.860223051153298e-06,-1.447399608878186e-05,5.94596604059916e-05
-4.909014023724012e-05,-3.717873551067896e-05,-4.3748709686042275e-06,-1.763775981089566e-05,5.7250988902524114e-05
-6.024511094437912e-05,2.5387598725501448e-05,-7.788850780343637e-06,-2.5186684069922194e-05,5.3062121878610924e-05
-6.19697239017114e-05,7.539649959653616e-05,-7.620538326591486e-06,-2.879360363294836e-05,4.975858246325515e-05
-5.88809052715078e-05,9.229825809597969e-05,-4.681166501541156e-06,-2.507722456357442e-05,5.1602721214294434e-05
-5.36943189217709e-05,7.382062176475301e-05,-7.291639576578746e-07,-1.731453085085377e-05,5.7056895457208157e-05
-4.648437607102096e-05,4.014364458271302e-05,5.342158146959264e-07,-1.2929269360029139e-05,6.057216160115786e-05
-4.0684291889192536e-05,1.4389458556252066e-05,-4.980745416105492e-07,-1.4332048522192053e-05,5.833714749314822e-05
-3.610751809901558e-05,-1.3477155107466388e-06,1.4031364514721645e-08,-1.5584089851472527e-05,5.295207665767521e-05
-3.6494628147920594e-05,-1.8312688553123735e-05,2.118475777024287e-06,-1.5888210327830166e-05,5.056452937424183e-05
-4.541825910564512e-05,-3.236686825403012e-05,4.622367214324186e-06,-1.361585054837633e-05,5.1684179197764024e-05
-5.146180774318054e-05,-2.167320781154558e-05,7.18957744538784e-06,-4.426081886776956e-06,5.464622881845571e-05
-3.993857899331488e-05,7.759678624097432e-07,9.016962394525763e-06,6.713964467053302e-06,5.95966303080786e-05
-1.6981693988782354e-05,2.479626573403948e-06,9.707166100270115e-06,1.1446888493082952e-05,6.008419950376265e-05
1.1593011777222273e-06,-3.079466523558949e-06,9.138695531873964e-06,1.0140184713236522e-05,5.386212797020562e-05
1.0785193808260374e-05,2.0135901479534368e-07,1.0145628039026633e-05,5.656499524775427e-06,5.209598020883277e-05
1.9410950699239038e-05,-3.09226084027614e-06,1.0353794095863122e-05,-2.889939196393243e-06,6.089813177823089e-05
2.716895869525615e-05,-1.3745742762694135e-05,5.855511517438572e-06,-1.6953414160525426e-05,7.108444697223604e-05
2.5440431272727437e-05,-1.957989479706157e-05,1.148769470660227e-07,-2.8839542210334912e-05,7.213988283183426e-05
1.2536595932033379e-05,-1.4999322957010008e-05,-4.228486886859173e-06,-3.376666427357122e-05,6.99019365129061e-05
-7.111257673386717e-06,-2.4222581487265415e-06,-8.63858440425247e-06,-3.298771116533317e-05,6.832142389612272e-05
-2.123315971402917e-05,1.7495121937827207e-05,-1.2368835086817853e-05,-2.1113188267918304e-05,6.790443148929626e-05
-2.2625719793722965e-05,3.973304410465062e-05,-1.1767712749133352e-05,1.0039539120043628e-05,7.019642362138256e-05
-2.4800076062092558e-05,5.197120117372833e-05,-8.178792086255271e-06,4.498587077250704e-05,7.24239507690072e-05
-3.53248615283519e-05,5.980246714898385e-05,-6.620009571634e-06,6.111832772148773e-05,6.806822784710675e-05
-5.461298496811651e-05,6.975894939387217e-05,-7.546673259639647e-06,5.3348026995081455e-05,5.87051545153372e-05
-7.477949111489579e-05,7.808765076333657e-05,-6.6095021793444175e-06,3.0405150027945638e-05,5.24067145306617e-05
-8.757166506256908e-05,7.763543544569984e-05,-4.1521952880430035e-06,-1.8885386907641077e-06,4.925950270262547e-05
-9.039713040692732e-05,7.409900717902929e-05,-6.732183237545541e-07,-4.255164822097868e-05,5.174569014343433e-05
-8.134244853863493e-05,7.475752499885857e-05,3.924337306671077e-06,-7.411259866785258e-05,5.8595556765794754e-05
-6.734310591127723e-05,7.329512300202623e-05,7.903970072220545e-06,-6.957937875995412e-05,6.366555317072198e-05
-6.223959644557908e-05,6.128668610472232e-05,5.6409680837532505e-06,-3.3192634873557836e-05,6.098229641793296e-05
-6.940560706425458e-05,5.293762296787463e-05,-8.163387974491343e-07,4.175723006483167e-06,5.3650968766305596e-05
-7.357270806096494e-05,7.06784485373646e-05,-3.0609173791162902e-06,2.6000652724178508e-05,5.025408972869627e-05
-6.591527198906988e-05,0.00010107031994266436,1.9310366496938514e-06,3.2718242437113076e-05,5.226094799581915e-05
-5.503385546035133e-05,0.00012945986236445606,1.1874956726387609e-05,3.0040875572012737e-05,5.4315387387759984e-05
-4.950823858962394e-05,0.00015657862240914255,2.0389830751810223e-05,2.3091140974429436e-05,5.398712164605968e-05
-4.429569162311964e-05,0.00017292545817326754,2.562868394306861e-05,1.6959558706730604e-05,5.2623450756073e-05
-3.05991452478338e-05,0.0001567911822348833,2.8495531296357512e-05,1.1052081390516832e-05,5.5251508456422016e-05
-7.0915821197559126e-06,0.00010600127279758453,3.0408555176109076e-05,5.0152293624705635e-06,6.186769314808771e-05
1.5550625903415494e-05,3.5935023333877325e-05,3.186377216479741e-05,1.5877822079346515e-06,6.411970389308408e-05
3.218867277610116e-05,-3.8934460462769493e-05,3.47358436556533e-05,-1.3552039490605239e-06,6.225227116374299e-05
4.762257594848052e-05,-0.00011297890887362882,3.279939483036287e-05,-5.4058841669757385e-06,6.254651088966057e-05
5.074152068118565e-05,-0.00015394830552395433,2.007821422012057e-05,-8.445493222097866e-06,6.463355384767056e-05
4.106547203264199e-05,-0.0001415503502357751,7.99543340690434e-06,-5.672785846400075e-06,6.564304931089282e-05
2.9230006475700065e-05,-0.0001101566813304089,1.569988057781302e-06,-5.443780537461862e-06,6.304868293227628e-05
1.8048376659862697e-05,-8.055072976276278e-05,2.233492978120921e-06,-1.7010546798701398e-05,5.681751645170152e-05
2.093750299536623e-05,-6.234560714801773e-05,8.972943760454655e-06,-2.7565803975448944e-05,5.563293234445155e-05
2.9317572625586763e-05,-6.90476008458063e-05,1.516760494268965e-05,-3.116335210506804e-05,6.143715290818363e-05
3.226181797799654e-05,-7.07730941940099e-05,1.882604556158185e-05,-3.0034230803721584e-05,6.598485197173432e-05
1.900643292174209e-05,-4.52602980658412e-05,2.2273346985457465e-05,-2.809287434502039e-05,6.389500777004287e-05
-5.233466708887136e-06,-2.271384983032476e-05,2.551629404479172e-05,-2.850207602023147e-05,5.6988887081388384e-05
-1.896907269838266e-05,-2.2430063836509362e-05,2.2859136151964776e-05,-3.0327215426950715e-05,5.1573810196714476e-05
-1.6470505215693265e-05,-3.9217051380546764e-05,1.6291547581204213e-05,-3.1242125260178e-05,5.2297833462944254e-05
-8.281449481728487e-06,-4.25134421675466e-05,1.3561554624175187e-05,-3.135602310067043e-05,5.803042586194351e-05
-8.581097972637508e-06,-2.2393254766939208e-05,1.2480364603106864e-05,-2.9645816539414227e-05,6.559904431924224e-05
-1.7898952137329616e-05,5.371608040150022e-06,9.716721251606941e-06,-2.4151060642907396e-05,6.928946095285937e-05
-3.6319514038041234e-05,2.1799338355776854e-05,8.628539035271388e-06,-1.91593608178664e-05,6.818605470471084e-05
-5.4180753068067133e-05,2.316149948455859e-05,7.2051252573146485e-06,-1.984365917451214e-05,6.497729918919504e-05
-5.730983684770763e-05,2.7855141524923965e-05,2.832408881658921e-06,-2.3773469365551136e-05,6.222850061021745e-05
-4.5865475840400904e-05,4.329903094912879e-05,-3.5657435546454508e-06,-2.2861280740471557e-05,6.372618372552097e-05
-3.802449646173045e-05,5.444923954200931e-05,-7.209193427115679e-06,-1.947928285517264e-05,6.806078454246745e-05
-4.0643964894115925e-05,5.795611650682986e-05,-7.000552614044864e-06,-1.9982251615147106e-05,6.76597555866465e-05
-4.8172973038163036e-05,6.466128252213821e-05,-6.8554727477021515e-06,-2.1144491256563924e-05,6.23060404905118e-05
-5.617711940431036e-05,7.315986294997856e-05,-9.233012860931922e-06,-1.9126942788716406e-05,5.900187534280121e-05
-6.65800180286169e-05,7.861467747716233e-05,-1.1110221748822369e-05,-1.543118014524225e-05,6.038046922185458e-05
-7.277941040229052e-05,7.916218601167202e-05,-9.427265467820689e-06,-7.123759132809937e-06,6.590843986487016e-05
-6.654720345977694e-05,7.903463119873777e-05,-6.896606919326587e-06,3.2533199600948137e-07,6.90884844516404e-05
-5.486843656399287e-05,7.565498526673764e-05,-4.056617399328388e-06,-5.26828580404981e-06,6.703348481096327e-05
-3.9845101127866656e-05,7.4555013270583e-05,-2.814611207213602e-06,-1.1917080882994924e-05,6.200816278578714e-05
-1.2885388059657998e-05,5.9303827583789825e-05,-4.294509835744975e-06,-8.294556209875736e-06,5.846253043273464e-05
2.5287543394370005e-05,3.111787373200059e-05,-7.83966424933169e-06,-8.97225436347071e-06,5.900092946831137e-05
5.27713455085177e-05,2.3171316570369527e-05,-9.405328455613926e-06,-2.580517320893705e-05,5.962380237178877e-05
5.797797712148167e-05,3.6159861338092014e-05,-1.02203539427137e-05,-4.2697731259977445e-05,5.733522993978113e-05
5.4152642405824736e-05,4.6135883167153224e-05,-1.4999453014752362e-05,-3.714831473189406e-05,4.768348662764765e-05
5.024626443628222e-05,3.7942831113468856e-05,-1.7941993064596318e-05,-2.308120565430727e-05,3.4507120290072635e-05
4.037469989270903e-05,2.2436923245550133e-05,-1.7848526113084517e-05,-2.641861829033587e-05,3.023196040885523e-05
4.0079288510241895e-07,2.2124761017039418e-05,-1.2715588127321098e-05,-4.557975262287073e-05,3.707002542796545e-05
-6.54913455946371e-05,4.210637052892707e-05,-4.517713932727929e-06,-5.500665429281071e-05,4.5603097532875836e-05
-9.856960241449997e-05,6.940232560737059e-05,2.8944589303137036e-06,-4.228281613904983e-05,5.414557017502375e-05
-7.254544470924884e-05,8.540227281628177e-05,8.834038453642279e-06,-1.4244900739868172e-05,6.559026223840192e-05
-3.0036835596547462e-05,8.432389586232603e-05,1.5425930541823618e-05,1.6626265278318897e-05,7.519200880778953e-05
-1.2215404240123462e-05,7.794176053721458e-05,1.981409513973631e-05,3.656951230368577e-05,7.996363274287432e-05
-2.061586747004185e-05,7.13486660970375e-05,1.911432627821341e-05,3.864430982503109e-05,8.133282244671136e-05
-3.683559407363646e-05,6.359394319588318e-05,1.8789702153299004e-05,2.677998782019131e-05,8.212091051973403e-05
-5.163287642062642e-05,5.342004442354664e-05,2.0795559976249933e-05,1.2432010407792404e-05,8.355196041520685e-05
-6.704567203996703e-05,3.8509890146087855e-05,2.1924543034401722e-05,3.0318469725898467e-06,8.545073069399223e-05
-7.902990182628855e-05,2.369754292885773e-05,1.9636978322523646e-05,1.4096972336119507e-06,8.395964687224478e-05
-8.335852908203378e-05,1.710584547254257e-05,1.676475949352607e-05,4.4836674533144105e-06,7.368346996372566e-05
-8.036830695345998e-05,1.2468967724998947e-05,1.2909824363305233e-05,6.210686933627585e-06,5.7703011407284066e-05
-7.259369158418849e-05,8.76760714163538e-06,7.232516509247944e-06,4.016045750177e-06,4.609112875186838e-05
-6.206043326528743e-05,9.80536060524173e-06,-7.340873935390846e-07,1.7686295450403122e-06,4.32431188528426e-05
-5.036730726715177e-05,1.6846957805682905e-05,-8.642515240353532e-06,1.3464601806845167e-06,4.720095239463262e-05
-3.7907295336481184e-05,2.9667000490007922e-05,-1.2250959116499871e-05,-6.019723741701455e-07,5.1396378694335e-05
-2.957257856905926e-05,4.239574263920076e-05,-9.548117304802872e-06,-5.959261216048617e-06,5.319038245943375e-05
-2.9510987587855197e-05,4.34508292528335e-05,-3.654408828879241e-06,-1.1106128113169689e-05,5.2289728046162054e-05
-3.191408177372068e-05,2.7592963306233287e-05,2.3942627649375936e-06,-1.4832221495453268e-05,4.980330413673073e-05
-3.463704706518911e-05,1.1639167496468872e-05,3.2165858101507183e-06,-1.7000789739540778e-05,4.875309969065711e-05
-3.6439210816752166e-05,1.2055435945512727e-05,2.5720096346049104e-06,-1.7147211110568605e-05,4.758285285788588e-05
-3.271386231062934e-05,1.9128647181787528e-05,3.065959390369244e-06,-1.7099537217291072e-05,4.569122756947763e-05
-2.8242639018571936e-05,1.950031946762465e-05,4.4106027417001314e-06,-1.860433621914126e-05,4.5467924792319536e-05
-2.8168064091005363e-05,1.0308323908247985e-05,6.675476470263675e-06,-1.601445001142565e-05,4.857323438045569e-05
-2.7582938855630346e-05,-5.879064701730385e-06,7.666281817364506e-06,-7.261194696184248e-06,5.278649041429162e-05
-1.9983883248642087e-05,-7.3229575718869455e-06,4.975690444553038e-06,1.4066381481825374e-06,5.883659468963742e-05
-1.4337343600345775e-05,1.2584854630404152e-05,1.045194608195743e-06,6.2404360505752265e-06,6.314587517408654e-05
-1.6198291632463224e-05,3.505694621708244e-05,7.088110578479245e-07,6.569999641214963e-06,6.440471770474687e-05
-1.9857552615576424e-05,4.77266003144905e-05,1.98215275304392e-06,4.804011496162275e-06,6.727287109242752e-05
-1.9927283574361354e-05,4.653144787880592e-05,5.738731488236226e-06,-1.0058186035166727e-06,6.810016930103302e-05
-1.7369689885526896e-05,3.652499071904458e-05,7.648125574633013e-06,-8.736139534448739e-06,6.556622975040227e-05
-1.277333103644196e-05,2.6292029360774904e-05,8.66697337187361e-06,-1.3796713574265596e-05,6.403068255167454e-05
-7.750118129479233e-06,2.60226552200038e-05,1.2176356904092245e-05,-1.4134968296275474e-05,6.450489308917895e-05
-6.0794986893597525e-06,4.6486922656185925e-05,1.8392529455013573e-05,-1.1131177416245919e-05,6.312627374427393e-05
-1.0323415153834503e-05,8.380682993447408e-05,2.306287206010893e-05,-8.950755727710202e-06,5.901063559576869e-05
-2.2188307411852293e-05,0.00011357459152350202,2.293203942826949e-05,-1.258023712580325e-05,5.280753975966945e-05
-3.586596722016111e-05,0.0001181747647933662,1.9477987734717317e-05,-1.9590614101616666e-05,4.891981006949209e-05
-3.891282540280372e-05,0.00010008284880314022,1.5112311302800663e-05,-2.0910649254801683e-05,5.012402107240632e-05
-3.008538988069631e-05,7.260745042003691e-05,1.2564897588163149e-05,-1.7222862879862078e-05,5.3285370086086914e-05
-2.4415492589469068e-05,5.338276969268918e-05,1.2471871741581708e-05,-1.3957916962681338e-05,5.640195740852505e-05
-2.5648221708252095e-05,4.715380055131391e-05,1.139058167609619e-05,-1.1540705600054935e-05,5.8774483477463946e-05
-2.4698507331777364e-05,4.3337611714378e-05,7.835531505406834e-06,-1.0355981430620886e-05,6.158969335956499e-05
-2.0106061128899455e-05,3.567442763596773e-05,2.8298240977164824e-06,-6.44080137135461e-06,6.443399615818635e-05
-1.6015113942557946e-05,2.161429074476473e-05,-8.114523666336027e-07,-7.911100965429796e-07,6.839453999418765e-05
-1.6203892300836742e-05,4.218738013150869e-06,-2.4223309083026834e-06,-2.54954954925779e-07,6.917317659826949e-05
-1.5836341844988056e-05,-9.769899406819604e-06,-4.344939952716231e-06,-5.287715794111136e-06,6.364338332787156e-05
-2.8860381462436635e-06,-1.7377473341184668e-05,-3.829147772194119e-06,-9.997467714129016e-06,5.850384332006797e-05
8.324826922034845e-06,-1.5494586477871053e-05,-2.0046068129886407e-06,-1.3450694495986681e-05,5.338297341950238e-05
4.69033557237708e-06,-2.4077065972960554e-05,-2.5726310468598967e-06,-1.7745269360602833e-05,4.860574335907586e-05
-8.442718353762757e-06,-4.591693505062722e-05,-4.717464435088914e-06,-1.6104107999126427e-05,4.6753990318393335e-05
-1.7076095900847577e-05,-4.994706978322938e-05,-3.6113108308200026e-06,-1.2686257832683623e-05,4.7848014219198376e-05
-1.3708149708691053e-05,-3.2328727684216574e-05,-2.0546447387914668e-07,-1.254143899132032e-05,5.207121284911409e-05
-8.693634299561381e-06,-1.8983162590302527e-05,-1.343629350003539e-07,-1.9627568690339103e-05,5.515227894647978e-05
-1.1872454706463031e-05,-1.888135557237547e-05,-8.417499586244048e-09,-3.0455961677944288e-05,5.5733857152517885e-05
-2.0390320059959777e-05,-6.12780559094972e-06,1.455816459383641e-06,-3.508682129904628e-05,5.72164062759839e-05
-3.079950693063438e-05,1.0190431567025371e-05,-1.199506414195639e-06,-3.2467050914419815e-05,5.8565146900946274e-05
-4.1695460822666064e-05,6.739095624652691e-06,-4.679325684264768e-06,-2.4522347302990966e-05,5.553706796490587e-05
-5.306642924551852e-05,8.925019756134134e-06,-6.127356755314395e-06,-1.3316884178493638e-05,5.040034739067778e-05
-6.859512359369546e-05,3.6835495848208666e-05,-3.7283314213709673e-06,-6.90031765770982e-06,4.5896336814621463e-05
-8.408571011386812e-05,7.722874579485506e-05,1.7915305079441168e-06,-5.759033683716552e-06,4.6078803279669955e-05
-8.878763037500903e-05,0.00011374496534699574,6.405393833119888e-06,5.960956741546397e-07,5.124309245729819e-05
-8.156123658409342e-05,0.00014143191219773144,4.470367457543034e-06,6.055076028133044e-06,5.702878115698695e-05
-6.82925820001401e-05,0.0001582523836987093,-1.8791807860907284e-06,-9.252578820451163e-06,5.70222910027951e-05
-4.656263263314031e-05,0.00015903584426268935,-6.0975703490839805e-06,-4.18621493736282e-05,5.4916254157433286e-05
-1.853647336247377e-05,0.0001306662888964638,-5.894120931770885e-06,-6.187254621181637e-05,5.780651918030344e-05
2.0552213300106814e-06,7.530584116466343e-05,-4.9832788135972805e-06,-5.6041852076305076e-05,6.558954191859812e-05
5.377784873417113e-06,1.2884764146292582e-05,-6.7209184635430574e-06,-3.225768159609288e-05,7.562040264019743e-05
3.1569294378641644e-07,-3.14843091473449e-05,-8.670891475048847e-06,-7.949295650178101e-06,8.100623381324112e-05
4.82854261463217e-07,-3.549120083334856e-05,-1.099863129638834e-05,4.902517957816599e-06,7.787566573824733e-05
8.93412834557239e-06,-1.1804493624367751e-05,-1.1251752766838763e-05,1.0225109690509271e-05,6.745228165527806e-05
2.0740546460729092e-05,7.96290987636894e-06,-8.778690244071186e-06,1.9668512322823517e-05,5.58950450795237e-05
2.867146577045787e-05,7.815525350451935e-06,-1.8153197061110404e-06,3.3326821721857414e-05,5.151901495992206e-05
2.35859533859184e-05,-1.6321784642059356e-05,7.1388008109352086e-06,3.301775723230094e-05,5.558814518735744e-05
1.1056783478124999e-05,-5.277620948618278e-05,1.3477643733494915e-05,1.8768383597489446e-05,5.396932829171419e-05
6.6847419475379866e-06,-6.623103399761021e-05,1.5450557839358225e-05,3.0895040481482283e-07,4.625834844773635e-05
4.15216800320195e-06,-4.2600524466251954e-05,1.815116047509946e-05,-1.9677314412547275e-05,4.303452078602277e-05
-8.532716492481995e-06,5.276621664052072e-07,2.0776134988409467e-05,-3.12483825837262e-05,4.847153104492463e-05
-2.2944403099245392e-05,4.386146611068398e-05,1.8972696125274524e-05,-3.343226489960216e-05,5.79252555326093e-05
-2.823878821800463e-05,6.644498353125528e-05,1.4207044841896277e-05,-2.950195084849838e-05,6.0663605836452916e-05
-3.196387115167454e-05,7.686494791414589e-05,8.090175469988026e-06,-1.446081205358496e-05,5.7065404689637944e-05
-4.1765797504922375e-05,8.775832975516096e-05,6.782141554140253e-06,1.973181133507751e-05,5.261021215119399e-05
-4.804657874046825e-05,8.692616393091157e-05,9.773653800948523e-06,5.291629713610746e-05,4.9457474233349785e-05
-4.8607551434542984e-05,7.331578672165051e-05,1.402523776050657e-05,5.11260841449257e-05,4.790010643773712e-05
-4.272361911716871e-05,6.484125333372504e-05,1.4948005627957173e-05,1.779086778697092e-05,5.1478891691658646e-05
-3.665293479571119e-05,6.419810961233452e-05,1.356718348688446e-05,-1.6578473150730133e-05,6.0510785260703415e-05
-4.021059794467874e-05,5.421097012003884e-05,1.2548965969472192e-05,-3.268190266680904e-05,7.304827886400744e-05
-4.639917824533768e-05,2.199479604314547e-05,1.1150425962114241e-05,-3.0034199880901724e-05,8.499105024384335e-05
-5.111929203849286e-05,-1.9360670194146223e-05,1.1751205420296174e-05,-1.9434361092862673e-05,9.264079562854022e-05
-6.061735257389955e-05,-4.068994167027995e-05,1.4079048014536966e-05,-1.2240297110110987e-05,9.005343599710613e-05
-7.413601269945502e-05,-3.8002424844307825e-05,1.4131916941551026e-05,-1.2886361218988895e-05,7.300754805328324e-05
-7.870075933169574e-05,-2.9919556254753843e-05,1.0961171028611716e-05,-1.6621692338958383e-05,5.522100400412455e-05
-6.827215111115947e-05,-3.091887629125267e-05,8.92139087227406e-06,-1.7744721844792366e-05,4.866607196163386e-05
-5.151761797606014e-05,-3.3260083000641316e-05,9.765958566276822e-06,-1.942041672009509e-05,4.921224535792135e-05
-3.7117013562237844e-05,-2.0398214473971166e-05,1.2259564755368046e-05,-2.2170726879267022e-05,5.14054081577342e-05
-1.8260117940371856e-05,-2.4409314391959924e-06,1.126664301409619e-05,-1.748908107401803e-05,5.4863779951119795e-05
1.1198916581633966e-05,-1.923588797581033e-06,1.0390591342002153e-05,-2.3581292225571815e-06,6.000678695272654e-05
4.2070965719176456e-05,-4.459851425053785e-06,1.1859795449709054e-05,1.261762372450903e-05,6.580515764653683e-05
5.66332892049104e-05,1.45641488416004e-05,1.2652955774683505e-05,1.9775505279540084e-05,7.068294507917017e-05
4.3085412471555173e-05,4.643895590561442e-05,1.3153109648555983e-05,2.1078038116684183e-05,7.157742220442742e-05
7.809276212356053e-06,6.95420749252662e-05,1.5915762560325675e-05,2.5518100301269442e-05,6.451083754654974e-05
-2.4222099455073476e-05,7.524092507082969e-05,1.8279311916558072e-05,3.614869274315424e-05,5.956166933174245e-05
-5.2468003559624776e-05,6.908738578204066e-05,1.5287494534277357e-05,4.186859223409556e-05,6.212051812326536e-05
-7.315720722544938e-05,6.246517295949161e-05,1.1251911928411573e-05,3.3557349524926394e-05,6.639734783675522e-05
-7.335899863392115e-05,5.6327411584788933e-05,9.44509247347014e-06,1.672112375672441e-05,7.023088255664334e-05
-6.520681927213445e-05,3.7998961488483474e-05,9.732893886393867e-06,-4.8400570449302904e-06,7.370330422418192e-05
-5.346712714526802e-05,1.0555704648140818e-05,9.686105840955861e-06,-1.7861426385934465e-05,7.506050314987078e-05
-3.353563079144806e-05,1.2191342648293357e-05,1.0617088264552876e-05,-1.2305319614824839e-05,7.451797864632681e-05
-1.013284781947732e-05,4.439414260559715e-05,9.517176295048557e-06,-6.390524958987953e-06,6.730740278726444e-05
-5.073417014500592e-06,6.584648508578539e-05,2.8602778456843225e-06,-3.539400495355949e-05,5.1181039452785626e-05
-1.6045434676925652e-05,6.602257053600624e-05,-4.0622639971843455e-06,-9.547802619636059e-05,3.891057349392213e-05
-1.8435430320096202e-05,6.107555964263156e-05,-4.8472902562934905e-06,-0.00012723512190859765,3.882554665324278e-05
-3.7893169064773247e-06,3.923591066268273e-05,-2.988261940117809e-06,-0.00010825243953149766,4.587594958138652e-05
1.4723235835845117e-05,-1.3312598639458884e-05,-3.921576535503846e-06,-7.319840369746089e-05,5.146531111677177e-05
1.827644337026868e-05,-6.794280488975346e-05,-6.279449280555127e-06,-5.8804042055271566e-05,5.2152576245134696e-05
3.344538299643318e-06,-7.907803956186399e-05,-6.718545591866132e-06,-6.328862946247682e-05,5.140415669302456e-05
-8.750648703426123e-06,-3.798534089582972e-05,-3.916469722753391e-06,-5.851421519764699e-05,5.446752402349375e-05
-2.3795382730895653e-06,1.9738114133360796e-05,-6.934985208317812e-07,-3.2437728805234656e-05,5.8604688092600554e-05
4.161771357757971e-06,6.890507211210206e-05,3.3171716040669708e-06,-1.6395134707636316e-06,6.284589471761137e-05
-1.548073851154186e-05,8.98682264960371e-05,9.412678082298953e-06,1.6860029063536786e-05,6.71169618726708e-05
-5.6961129303090274e-05,6.434502574848011e-05,1.6429416064056568e-05,2.4182623747037724e-05,6.706875137751922e-05
-9.478130232309923e-05,1.6365635019610636e-05,2.1722304154536687e-05,2.659751771716401e-05,5.980688729323447e-05
-0.00010926491813734174,-1.2432212770363549e-06,2.4785509594948962e-05,2.820769077516161e-05,5.3006191592430696e-05
-9.45645006140694e-05,1.6616819266346283e-05,2.3137206881074235e-05,2.661255894054193e-05,5.344123928807676e-05
-6.886249320814386e-05,2.8753223887179047e-05,1.5346646250691265e-05,1.7978158211917616e-05,5.5741311371093616e-05
-4.158787487540394e-05,1.6802103345980868e-05,2.6152988539251965e-06,5.779720140708378e-06,5.648984370054677e-05
-1.4845177247480024e-05,4.608043582265964e-06,-6.29303485766286e-06,-1.5232109262797167e-06,5.818905265186913e-05
-2.4043977191468002e-06,3.293167310403078e-06,-9.615843737265095e-06,-4.113844170205994e-06,6.204681267263368e-05
-4.238700512360083e-06,3.687671096486156e-06,-9.620578566682525e-06,-5.676778982888209e-06,6.387910252669826e-05
9.086921636480838e-06,4.483200882532401e-06,-9.17145280254772e-06,-7.285285391844809e-06,6.09963753959164e-05
3.661268056021072e-05,9.146557204076089e-06,-1.5763722331030294e-05,-5.382776635087794e-06,5.9418936871225014e-05
5.5869440984679386e-05,1.182630057883216e-05,-2.138817944796756e-05,-4.564136304452404e-07,6.246615521376953e-05
6.463324825745076e-05,1.38290852191858e-05,-2.0751936972374097e-05,3.3074746852435055e-07,6.415282405214384e-05
6.252093589864671e-05,1.9140305084874853e-05,-1.2814782166969962e-05,-1.6834104599183775e-06,5.950382546870969e-05
5.435463026515208e-05,1.8096818166668527e-05,-2.521077703931951e-06,-6.471310371125583e-06,5.603707904811017e-05
2.8420354283298366e-05,6.714216851833044e-06,4.8588135541649535e-06,-1.0588079021545127e-05,5.5893971875775605e-05
-3.364718577358872e-05,-5.970626716589322e-06,6.764248610124923e-06,-1.0587309589027427e-05,5.271340342005715e-05
-0.0001151484320871532,-7.80473965278361e-06,5.175420938030584e-06,-8.968076144810766e-06,4.883134533884004e-05
-0.00015547420480288565,1.9483948108245386e-06,6.810028935433365e-06,-8.04505543783307e-06,4.8828784201759845e-05
-0.0001336453715339303,1.9863535271724686e-05,1.3848396520188544e-05,-5.6555918490630575e-06,5.409365621744655e-05
-8.823769894661382e-05,3.950450991396792e-05,2.21643549593864e-05,-2.1314219793566735e-06,6.043198663974181e-05
-5.7208682846976444e-05,5.8760535466717556e-05,2.6034575057565235e-05,-2.3835057163523743e-06,6.053314791643061e-05
-5.020065509597771e-05,6.92804969730787e-05,2.6722627808339894e-05,-9.048528227140196e-06,5.422583126346581e-05
-6.02242216700688e-05,6.251782178878784e-05,2.80637414107332e-05,-2.1868709154659882e-05,5.0280690629733726e-05
-8.050689939409494e-05,4.441022974788211e-05,2.8574435418704525e-05,-3.3638458262430504e-05,5.116753891343251e-05
-0.00010078514605993405,3.507095971144736e-05,2.195929118897766e-05,-3.558949174475856e-05,5.374892134568654e-05
-0.00011242504115216434,4.2556304833851755e-05,1.3699033843295183e-05,-2.8134109015809372e-05,5.354578752303496e-05
-0.00010369368828833103,4.935136894346215e-05,1.0348820069339126e-05,-1.7329339243588038e-05,4.995228664483875e-05
-7.642967830179259e-05,4.28045641456265e-05,1.0275116437696852e-05,-6.156715244287625e-06,4.709087806986645e-05
-4.442507997737266e-05,2.9992865165695548e-05,1.1246016583754681e-05,6.714219580317149e-06,4.880326014244929e-05
-2.2529673515236937e-05,3.065670534851961e-05,1.2723030522465706e-05,2.188802682212554e-05,5.456160943140276e-05
-1.9778943169512786e-05,5.10970494360663e-05,1.2835041161451954e-05,3.2772273698356e-05,5.664888885803521e-05
-2.253592356282752e-05,7.29195453459397e-05,1.011597578326473e-05,3.438886415096931e-05,5.481435437104665e-05
-1.559396150696557e-05,8.150334906531498e-05,5.979957222734811e-06,2.6948366212309338e-05,5.806765329907648e-05
-4.018270374217536e-06,7.906464452389628e-05,3.7490469821932493e-06,1.6338732166332193e-05,6.334478530334309e-05
-1.0709203479564167e-06,7.064305827952921e-05,6.4117598412849475e-06,6.668939022347331e-06,6.298430525930598e-05
-6.486628990387544e-06,6.433307135012001e-05,1.1185889889020473e-05,2.578920884843683e-06,5.810091897728853e-05
-9.189509910356719e-06,6.959297024877742e-05,1.8014508896158077e-05,-6.534154977089202e-07,5.3297539125196636e-05
-9.88672036328353e-06,7.472776633221656e-05,2.0918751033605076e-05,-6.756517905159853e-06,5.316558599588461e-05
-1.2899889043183066e-05,5.389088255469687e-05,1.3468864381138701e-05,-1.0091048352478538e-05,5.439752203528769e-05
-1.7979415133595467e-05,2.9637041734531522e-05,6.070713880035328e-06,-1.5048629393277224e-05,5.406934360507876e-05
-1.5699557479820214e-05,4.280166103853844e-05,4.92891695103026e-06,-2.2145608454593457e-05,5.555087773245759e-05
-1.1056693438149523e-05,7.783201726851985e-05,6.320871762000024e-06,-2.2594562324229628e-05,6.0789534472860396e-05
-1.2689765753748361e-05,8.334135782206431e-05,4.909876679448644e-06,-1.7078058590414003e-05,6.26395340077579e-05
-1.9730372514459305e-05,3.96270006604027e-05,2.2296226234175265e-06,-1.6224448700086214e-05,5.998891720082611e-05
-2.5705558073241264e-05,-1.2110067473258823e-05,-4.164381266491546e-07,-2.1455762180266902e-05,5.775554382125847e-05
-2.644050255184993e-05,-2.6155645173275843e-05,-2.6118202640645904e-06,-2.5505918529233895e-05,5.686411896022037e-05
-2.4317443603649735e-05,-6.763279543520184e-06,-6.257243967411341e-06,-2.5123274099314585e-05,5.692334889317863e-05
-2.359460631851107e-05,1.2990713003091514e-05,-1.0993803698511329e-05,-2.1379035388235934e-05,5.7718774769455194e-05
-2.931552990048658e-05,1.9559542124625295e-05,-1.3675330592377577e-05,-1.1987218385911547e-05,5.9524572861846536e-05
-4.0150709537556395e-05,1.878751936601475e-05,-1.1518412975419778e-05,2.218749614257831e-06,5.987835902487859e-05
-5.3759358706884086e-05,1.7599903003429063e-05,-5.171893008082407e-06,1.1969599654548801e-05,5.6957775086630136e-05
-5.9405989304650575e-05,2.4142354959622025e-05,-8.548764753868454e-07,1.3206888070271816e-05,5.1377694035181776e-05
-5.26152434758842e-05,4.395718497107737e-05,-7.553096565970918e-07,1.3335480616660789e-05,4.358756632427685e-05
-4.137862197239883e-05,7.256354729179293e-05,-1.4730738939761068e-06,1.1897309377673082e-05,3.374313746462576e-05
-3.219980135327205e-05,9.731851605465636e-05,-6.03644878083287e-07,-7.045654228932108e-07,2.719312578847166e-05
-2.5015937353600748e-05,0.00010336704144719988,-1.7208328699780395e-06,-2.1209978513070382e-05,2.85397454717895e-05
-2.3114856958272867e-05,9.125843644142151e-05,-2.6394316137157148e-06,-2.596277408883907e-05,3.119249231531285e-05
-2.6261959646944888e-05,7.825301145203412e-05,-2.0764684904861497e-06,4.801267095899675e-06,3.0302067898446694e-05
-2.263538772240281e-05,6.549208774231374e-05,9.000864338304382e-07,4.868434916716069e-05,3.101398760918528e-05
-6.472718723671278e-06,4.2975007090717554e-05,4.5225751819089055e-06,3.9917755202623084e-05,3.420955908950418e-05
5.960928319836967e-06,8.183083082258236e-06,-2.3215704914036905e-06,-3.6466179153649136e-05,4.1200615669367835e-05
-2.1214298158156453e-06,-2.225214302598033e-05,-2.310684612893965e-05,-0.00010954718891298398,5.312166103976779e-05
-2.6064744815812446e-05,-2.8342497898847796e-05,-4.172141780145466e-05,-0.00013525932445190847,6.676804332528263e-05
-4.503917080000974e-05,-2.876777398341801e-05,-4.864628499490209e-05,-0.00011567908950382844,8.356708713108674e-05
-5.217939178692177e-05,-3.3521635486977175e-05,-4.348019137978554e-05,-7.626789010828361e-05,0.000103310878330376
-5.187691203900613e-05,-1.6809535736683756e-05,-3.196398029103875e-05,-4.646647721529007e-05,0.00010993801697622985
-3.871164517477155e-05,-6.826427124906331e-06,-2.5173039830406196e-05,-3.65826090273913e-05,9.921101445797831e-05
-9.392478204972576e-06,-1.4658033251180314e-05,-1.9344390238984488e-05,-4.269936471246183e-05,9.010555368149653e-05
2.86067916022148e-05,7.1642948569206055e-06,-4.102652383153327e-06,-3.5216795367887244e-05,9.141131886281073e-05
6.001568544888869e-05,5.348363993107341e-05,1.615093970031012e-05,-2.1999704813424614e-07,9.404638694832101e-05
6.662872328888625e-05,8.043528214329854e-05,3.158173421979882e-05,4.753692337544635e-05,8.808924758341163e-05
5.2477334975264966e-05,8.646718197269365e-05,4.385759530123323e-05,8.757098839851096e-05,7.830873073544353e-05
3.473859396763146e-05,0.00011008315050275996,5.918098031543195e-05,0.00011331617861287668,7.453470607288182e-05
1.3979512004880235e-05,0.00014015544729772955,7.363720214925706e-05,0.00011718976747943088,7.603791891597211e-05
-1.3901892089052126e-05,0.00012775616778526455,7.404199277516454e-05,9.276456694351509e-05,7.615373033331707e-05
-3.29016984323971e-05,5.624291952699423e-05,5.8891517255688086e-05,5.222952313488349e-05,7.272740913322195e-05
-2.975911229441408e-05,-3.349468170199543e-05,4.062521111336537e-05,1.7529357137391344e-05,7.031513814581558e-05
-1.1538811122591142e-05,-8.020186214707792e-05,3.0151310056680813e-05,-5.8751840725790316e-08,7.269177149282768e-05
9.283931831305381e-06,-6.46008484181948e-05,2.7330661396263167e-05,-7.281102625711355e-06,7.84953881520778e-05
1.6145375411724672e-05,-3.0148956284392625e-05,2.4025132006499916e-05,-1.4232630746846553e-05,8.141547004925087e-05
4.5481733650376555e-06,-2.1218849724391475e-05,1.5216420251817908e-05,-2.0394178136484697e-05,7.755499973427504e-05
-1.1562606232473627e-05,-3.225524051231332e-05,6.0130059864604846e-06,-2.0477094949455932e-05,6.687817221973091e-05
-2.080966078210622e-05,-3.181509600835852e-05,2.5643928438512376e-06,-2.0709034288302064e-05,5.433179103420116e-05
-2.844481605279725e-05,-4.96931988891447e-06,3.816835942416219e-06,-2.4044244128162973e-05,4.884950612904504e-05
-3.681285306811333e-05,8.961155799624976e-06,5.352765128918691e-06,-2.7750460503739305e-05,4.9647511332295835e-05
-4.4247499317862093e-05,-3.1286399462260306e-05,2.9669147352251457e-06,-2.510592639737297e-05,5.373834937927313e-05
-5.4030453611630946e-05,-8.136554242810234e-05,-3.4794616112776566e-06,-1.7133981600636616e-05,5.586951374425553e-05
-6.626752292504534e-05,-6.391339411493391e-05,-4.210415227134945e-06,-9.833094736677594e-06,5.1299462938914075e-05
-6.17954574408941e-05,-8.745601007831283e-06,6.159557983664854e-07,-7.096919944160618e-06,4.5471490011550486e-05
-4.315001569921151e-05,1.6491228961967863e-05,-9.560390026308596e-07,-1.187859925266821e-05,4.397983502713032e-05
-3.118303357041441e-05,1.0610214303596877e-05,-7.200743766588857e-06,-2.3122007405618206e-05,4.711084329755977e-05
-2.904434768424835e-05,-1.5450643331860192e-05,-1.0619914974085987e-05,-4.451901259017177e-05,4.9785485316533595e-05
-3.153443685732782e-05,-4.093634561286308e-05,-1.0606287105474621e-05,-6.391853821696714e-05,4.922348671243526e-05
-3.133485733997077e-05,-3.585945887607522e-05,-1.2592077837325633e-05,-6.318151281448081e-05,4.789609010913409e-05
-3.2102299883263186e-05,-1.5501927919103764e-06,-1.614420034456998e-05,-4.668411929742433e-05,4.59557595604565e-05
-3.707114592543803e-05,3.0748149583814666e-05,-1.6682879504514858e-05,-2.0511137336143292e-05,4.3270792957628146e-05
-4.2303672671550885e-05,4.956719567417167e-05,-1.357568908133544e-05,9.40559766604565e-06,3.533784911269322e-05
-3.905448829755187e-05,7.258777623064816e-05,-7.813672709744424e-06,4.2223364289384335e-05,2.5737394025782123e-05
-2.8621978344745003e-05,9.237446647603065e-05,-9.358597594655294e-07,7.187317532952875e-05,2.2885558792040683e-05
-1.576620343257673e-05,9.987969679059461e-05,4.710799203166971e-06,8.276317385025322e-05,2.5705421649035998e-05
-5.662386229232652e-06,0.00011191514204256237,6.914509413036285e-06,6.053308243281208e-05,2.77963190455921e-05
-6.447267423936864e-06,0.00013789351214654744,8.862634786055423e-06,4.542514034255873e-06,2.7436433811089955e-05
-1.4523126083076932e-05,0.00015313722542487085,1.0341103006794583e-05,-6.956643483135849e-05,3.094098428846337e-05
-1.8002061551669613e-05,0.00012480154691729695,1.0104993634740822e-05,-0.00012075011909473687,3.897481656167656e-05
-1.7028754882630892e-05,6.831806240370497e-05,9.932339708029758e-06,-0.00011098443064838648,4.9851045332616195e-05
-2.1151990949874744e-05,3.669951547635719e-05,1.0801492862810846e-05,-5.8190300478599966e-05,6.22234438196756e-05
-2.932320421678014e-05,4.408568565850146e-05,1.0098718121298589e-05,-1.2996750228921883e-05,6.841239519417286e-05
-4.423532300279476e-05,5.580297147389501e-05,8.50809010444209e-06,-1.2468033673940226e-05,6.414006929844618e-05
-6.594637670787051e-05,6.280732486629859e-05,6.906271210027626e-06,-4.87518118461594e-05,6.0145408497191966e-05
-7.524726970586926e-05,8.683826308697462e-05,1.8614344980960595e-06,-7.842417107895017e-05,6.93063047947362e-05
-6.13166848779656e-05,0.0001317839924013242,-6.439395292545669e-06,-7.325505430344492e-05,8.650122617837042e-05
-5.071226769359782e-05,0.00018253980670124292,-1.139825599238975e-05,-4.912390431854874e-05,9.874659008346498e-05
-5.570783105213195e-05,0.00020135274098720402,-8.251578037743457e-06,-3.0508224881486967e-05,0.00010013643623096868
-5.4496777011081576e-05,0.00014594972890336066,-4.060570972796995e-07,-2.217360815848224e-05,8.998516568681225e-05
-4.2705425585154444e-05,2.8402400857885368e-05,5.2753598538402e-06,-1.5191872080322355e-05,7.48680395190604e-05
-3.3798496588133276e-05,-4.43242970504798e-05,4.071884177392349e-06,-8.825968507153448e-06,6.46401967969723e-05
-3.651418228400871e-05,-6.227564153959975e-05,-8.220038125728024e-07,-1.913371670525521e-05,6.453466630773619e-05
-4.253803854226135e-05,-9.412174404133111e-05,-6.6044153754774015e-06,-3.775257573579438e-05,7.00780947227031e-05
-3.6969868233427405e-05,-9.354061330668628e-05,-5.3132930588617455e-06,-3.5884135286323726e-05,7.14670168235898e-05
-3.1257066439138725e-05,-4.2355597543064505e-05,4.470891781238606e-06,-1.0652356650098227e-05,6.24596796114929e-05
-2.654921445355285e-05,1.8590211766422726e-05,1.2454493116820231e-05,2.2964328309171833e-05,5.355481698643416e-05
-7.147295946197119e-06,4.511396400630474e-05,1.4558931070496328e-05,4.8005178541643545e-05,5.469914322020486e-05
2.8953241780982353e-05,3.999212276539765e-05,1.2717101526504848e-05,4.107267886865884e-05,6.453173409681767e-05
5.878361844224855e-05,1.1351857210684102e-05,7.694776286371052e-06,3.089330675720703e-06,7.039959746180102e-05
4.223188807372935e-05,-2.049023714789655e-05,1.06139066247124e-06,-3.288809602963738e-05,6.64715698803775e-05
-5.166540404388797e-07,-3.259768709540367e-05,-2.345191887798137e-06,-5.616632188321091e-05,6.549609679495916e-05
-1.0153120456379838e-05,-4.679464109358378e-05,-3.0467226679320447e-06,-6.766790465917438e-05,7.439694309141487e-05
2.176525777031202e-05,-6.901469896547496e-05,-3.451994871284114e-06,-6.44308966002427e-05,8.517963578924537e-05
4.612518023350276e-05,-8.377725316677243e-05,-3.89183560400852e-06,-4.807309233001433e-05,8.567549230065197e-05
2.9852759325876832e-05,-7.564054249087349e-05,-3.5751711493503535e-06,-3.1787334592081606e-05,7.523532258346677e-05
-1.7524906070320867e-05,-5.6880297051975504e-05,-5.924674496782245e-06,-2.3005521143204533e-05,6.087701694923453e-05
-6.138902972452343e-05,-3.833326991298236e-05,-1.016902933770325e-05,-1.91964500118047e-05,4.879389234702103e-05
-7.040025957394391e-05,-2.2830070520285517e-05,-6.358182872645557e-06,-1.5295594494091347e-05,4.677257311413996e-05
-4.945925320498645e-05,-1.7643144474277506e-06,4.996056304662488e-06,-5.139106633578194e-06,5.4281099437503144e-05
-3.4833028621505946e-05,3.2514173653908074e-05,1.2769235581799876e-05,1.1260861356277019e-05,5.948271427769214e-05
-4.493180676945485e-05,7.958038622746244e-05,1.3417383343039546e-05,3.18538659485057e-05,5.6764751207083464e-05
-6.20652936049737e-05,0.0001236112875631079,1.0629173630150035e-05,4.608901508618146e-05,4.6269316953839734e-05
-6.783634307794273e-05,0.00014297150482889265,5.676000455423491e-06,3.4735810913844034e-05,3.399800698389299e-05
-6.289620068855584e-05,0.00012937706196680665,1.93915911950171e-06,2.66048482444603e-06,3.320080213597976e-05
-5.4812393500469625e-05,9.221021900884807e-05,1.3537218137571472e-06,-2.4548233341192827e-05,4.954429459758103e-05
-4.060190622112714e-05,3.566986561054364e-05,4.461400749278255e-06,-3.538770761224441e-05,7.288967753993347e-05
-2.2644591808784753e-05,-3.700445085996762e-05,6.663338353973813e-06,-3.11102339765057e-05,9.835294622462243e-05
-8.264225471066311e-06,-8.623889880254865e-05,5.595480615738779e-06,-2.2605790945817716e-05,0.00011703182099154219
-3.3405708563805092e-06,-9.975038119591773e-05,6.87557076162193e-06,-1.9005194189958274e-05,0.00011961318523390219
-3.04935952044616e-06,-9.397120447829366e-05,7.623395958944457e-06,-2.1453235603985377e-05,0.00010854797437787056
-3.4834054076782195e-06,-7.148600707296282e-05,7.227252353914082e-06,-1.8909269783762284e-05,9.016465628519654e-05
-9.389972547069192e-06,-4.8847687139641494e-05,7.478947736672126e-06,-1.4153476513456553e-05,7.276671385625377e-05
-2.320782186870929e-05,-2.0483661501202732e-05,7.5661564551410265e-06,-1.1051319233956747e-05,5.793513992102817e-05
-3.923335680156015e-05,2.1565558199654333e-05,4.767720383824781e-06,-1.1175933650520165e-05,4.540367081062868e-05
-4.601493492373265e-05,7.011074194451794e-05,-2.5108909085247433e-07,-1.0522911907173693e-05,3.799916885327548e-05
-3.4621803933987394e-05,0.00010295846004737541,-3.588827667044825e-06,-1.6323119780281559e-06,3.6226232623448595e-05
-1.2668452654907014e-05,0.00011535086377989501,-9.330380521532788e-07,5.288053216645494e-06,3.576294693630189e-05
1.027631810757157e-06,0.00012023664748994634,6.092585863370914e-06,-9.640164080337854e-07,2.9886894481023774e-05
-8.104678954623523e-07,0.00011947651364607736,1.0652401215338614e-05,-2.0387758922879584e-05,2.287472307216376e-05
-9.292994036513846e-06,0.0001049419806804508,1.0609101082081906e-05,-3.778890095418319e-05,2.365249201830011e-05
-1.5083256585057825e-05,8.04657829576172e-05,7.2333268690272234e-06,-3.243770697736181e-05,3.088967059738934e-05
-1.8658911358215846e-05,7.160144014051184e-05,3.9086799006327055e-06,-7.1906620178197045e-06,3.8940637750783935e-05
-2.5947139874915592e-05,8.123263978632167e-05,1.6167116427823203e-06,-2.9077841645630542e-06,4.6837525587761775e-05
-3.910103623638861e-05,8.533279469702393e-05,1.1816711094070342e-06,-3.4660017263377085e-05,5.553370647248812e-05
-4.964775507687591e-05,5.809496360598132e-05,3.7333907130232546e-06,-5.769140989286825e-05,6.514542474178597e-05
-5.150511788087897e-05,8.82639051269507e-06,8.8475408119848e-06,-4.0763163269730285e-05,7.815063872840255e-05
-4.605352660291828e-05,-2.6760026230476797e-05,1.5206258467515e-05,-2.1158505205676192e-06,9.544919157633558e-05
-4.2799852963071316e-05,-3.4079024771926925e-05,1.918362977448851e-05,2.7355659767636098e-05,0.00010945780377369374
-5.3922078222967684e-05,-3.8830698031233624e-05,1.6077892723842524e-05,3.5738357837544754e-05,0.00010507557453820482
-8.125813474180177e-05,-2.966528154502157e-05,9.688272257335484e-06,3.700400338857435e-05,8.221469761338085e-05
-0.00010350067896069959,5.747639988840092e-06,2.414169557596324e-06,4.060406718053855e-05,6.289923476288095e-05
-9.643025987315923e-05,2.6634692403604276e-05,2.563768646268727e-07,4.3550095142563805e-05,5.8555953728500754e-05
-6.507898069685325e-05,1.3339958968572319e-05,7.578525583085138e-06,3.966841904912144e-05,5.985120151308365e-05
-3.430966171436012e-05,1.152609820564976e-05,2.05688520509284e-05,3.14271601382643e-05,6.315994687611237e-05
-2.913130992965307e-05,3.572137211449444e-05,2.6755957151181065e-05,2.60009564954089e-05,6.867310003144667e-05
-4.663595973397605e-05,5.6402790505671874e-05,2.3761294869473204e-05,2.343135747651104e-05,6.676444172626361e-05
-6.130731344455853e-05,6.465976184699684e-05,2.0936746295774356e-05,2.1579395252047107e-05,5.547524051507935e-05
-5.2495361160254106e-05,6.645668327109888e-05,1.9114093447569758e-05,2.0514671632554382e-05,4.704090679297224e-05
-2.7288106139167212e-05,8.067127782851458e-05,1.4140269740892109e-05,1.7269845557166263e-05,4.8332789447158575e-05
-1.0140685844817199e-05,0.00010857624147320166,3.756309752134257e-07,8.67797734827036e-06,5.570320354308933e-05
-1.1076793271058705e-05,0.00012993703421670943,-1.399567372573074e-05,-2.2528606677951757e-06,5.587377745541744e-05
-2.035987017734442e-05,0.00014642818132415414,-2.1164190911804326e-05,-9.39189521886874e-06,5.166772461961955e-05
-1.3044033039477654e-05,0.0001418648025719449,-1.705408976704348e-05,-6.401246537279803e-06,5.193543984205462e-05
6.6915272327605635e-06,8.347853145096451e-05,-7.617014489369467e-06,8.539514055883046e-06,5.473251439980231e-05
2.1330697563826106e-05,-7.66264656704152e-06,-2.425527441118902e-07,3.450467556831427e-05,5.317366594681516e-05
3.0686103855259717e-05,-7.348699000431225e-05,7.999033755368146e-07,6.078624210203998e-05,4.916619218420237e-05
4.289489515940659e-05,-9.213551675202325e-05,-2.264258910145145e-06,7.496310718124732e-05,4.9088346713688225e-05
4.7355846618302166e-05,-6.739345553796738e-05,-3.1936722280079266e-06,6.808144098613411e-05,4.934436219627969e-05
2.694611430342775e-05,2.7167591269972036e-06,-2.2748733954358613e-06,3.625947283580899e-05,4.501308285398409e-05
-4.4587986849364825e-06,8.91062300070189e-05,-2.2899760665495705e-07,-1.967411117220763e-05,4.044746674480848e-05
-1.8133205230697058e-05,0.000133791210828349,2.785821607176331e-06,-8.269260433735326e-05,4.376874858280644e-05
-9.30202986637596e-06,0.00011236753198318183,7.493290468119085e-06,-0.00011835025361506268,5.2934879931854084e-05
1.4860651162962313e-06,5.873874033568427e-05,1.4049600395082962e-05,-0.00010919306805590168,5.926916855969466e-05
7.497969249925518e-07,2.1324693079805e-05,2.1960602680337615e-05,-7.116077904356644e-05,5.516286182682961e-05
-1.5274048564606346e-05,2.0583189325407147e-05,2.5616112907300703e-05,-3.378929977770895e-05,4.5207263610791415e-05
-3.238027056795545e-05,3.4304623113712296e-05,2.361025872232858e-05,-1.3696389032702427e-05,3.901920354110189e-05
-2.955707532237284e-05,3.5228127671871334e-05,2.0534198483801447e-05,-9.3734070105711e-06,4.102971070096828e-05
-1.0916259270743467e-05,2.413491347397212e-05,2.0587873223121278e-05,-9.480579137743916e-06,4.5845325075788423e-05
1.4431478803089703e-06,2.0682353351730853e-05,2.2176336642587557e-05,-3.889372692356119e-06,4.8062232963275164e-05
2.5105923668888863e-06,1.7182243027491495e-05,2.463200144120492e-05,4.277190328139113e-06,4.795651329914108e-05
-2.0993086309317732e-06,7.498626018787036e-06,2.588380448287353e-05,4.1948878788389266e-06,4.5460197725333273e-05
-9.537248843116686e-06,9.089334525924642e-06,2.1393310817074962e-05,-2.5343460947624408e-06,4.154120688326657e-05
-2.2034309949958697e-05,-3.186860624282417e-07,1.458433507650625e-05,-1.0981511877616867e-05,3.828269836958498e-05
-3.679007204482332e-05,-2.5572257072781213e-05,1.1000867743859999e-05,-1.909610364236869e-05,3.49997790181078e-05
-5.077712921774946e-05,-2.1519563233596273e-05,1.2236252587172203e-05,-2.4927456252044067e-05,3.258399010519497e-05
-6.690824375255033e-05,-5.8493046708463226e-06,1.8093380276695825e-05,-2.7341577151673846e-05,3.217791527276859e-05
-8.176163100870326e-05,-9.229325769410934e-06,2.2269494365900755e-05,-2.6106072255061008e-05,3.409173950785771e-05
-8.207989594666287e-05,-2.9586981327156536e-05,2.019423664023634e-05,-2.5234006898244843e-05,3.753772398340516e-05
-6.375782686518505e-05,-4.2738498450489715e-05,1.2760126082866918e-05,-1.916010478453245e-05,4.073762829648331e-05
-4.432169589563273e-05,-2.5090761482715607e-05,5.756987320637563e-06,-4.099074885743903e-06,3.850815846817568e-05
-3.070334059884772e-05,7.898241165094078e-06,4.776106379722478e-06,5.923166099819355e-06,3.830862624454312e-05
-2.425054117338732e-05,2.5814731998252682e-05,8.329464435519185e-06,4.925142548017902e-06,4.7947687562555075e-05
-3.0995190172689036e-05,2.5128609195235185e-05,9.778042112884577e-06,2.9724483283644076e-06,6.373654468916357e-05
-6.349121395032853e-05,2.3388860427075997e-05,7.253831427078694e-06,3.860301148961298e-06,7.571996684418991e-05
-0.00012060026347171515,2.9679145882255398e-05,5.918642727920087e-06,-4.560331490210956e-06,7.457524043275043e-05
-0.00017619229038245976,4.501303192228079e-05,7.981707312865183e-06,-3.085788193857297e-05,6.585996015928686e-05
-0.00019509761477820575,6.354740617098287e-05,8.816347872198094e-06,-6.129279063316062e-05,6.417083204723895e-05
-0.00015792153135407716,8.18688131403178e-05,4.783386430062819e-06,-7.27160440874286e-05,7.41637049941346e-05
-8.634438563603908e-05,8.543278090655804e-05,-2.0634486190829193e-06,-5.818418139824644e-05,8.689179958309978e-05
-1.961284942808561e-05,6.045441477908753e-05,-7.667598765692674e-06,-2.799237881845329e-05,9.321131801698357e-05
2.2814570911577903e-05,2.764071905403398e-05,-9.21990522328997e-06,-2.8964232114958577e-06,9.10629823920317e-05
4.5102300646249205e-05,3.0002194762346335e-05,-1.0385915629740339e-05,6.905832833581371e-06,8.613208774477243e-05
5.555998723139055e-05,7.35815629013814e-05,-1.3311039765540045e-05,3.917184585588984e-06,7.902830111561343e-05
5.54373582417611e-05,0.00012041708396282047,-1.4238516996556427e-05,-8.724983672436792e-06,7.170942262746394e-05
4.5533372031059116e-05,0.00013706967001780868,-1.1716123481164686e-05,-2.580582076916471e-05,6.769731407985091e-05
3.98933443648275e-05,0.0001304849429288879,-9.769364623934962e-06,-3.561773701221682e-05,6.886151822982356e-05
4.748386345454492e-05,0.0001225794549100101,-8.769675332587212e-06,-2.370875154156238e-05,7.283357990672812e-05
7.294456008821726e-05,0.0001236205716850236,-2.95014979201369e-06,-3.268390400990029e-06,7.405457290587947e-05
0.00010185463906964287,0.00011553039075806737,4.30767067882698e-06,1.0388374903413933e-05,6.870739161968231e-05
0.00011057830124627799,0.00010437726450618356,6.389590907929232e-06,1.7188369383802637e-05,6.248562567634508e-05
9.542278712615371e-05,0.00010695972014218569,9.64004357228987e-06,2.092353861371521e-05,6.262363604037091e-05
6.444034079322591e-05,0.00011313071445329115,1.2615580089914147e-05,2.3114014766179025e-05,6.533248233608902e-05
3.720320819411427e-05,0.0001229164918186143,1.5668127161916345e-05,1.9736677131731994e-05,6.743741687387228e-05
2.1788093363284133e-05,0.00012503177276812494,1.9070015696343035e-05,1.377578064420959e-05,7.143874245230108e-05
5.707402124244254e-06,9.86673403531313e-05,1.3804633454128634e-05,3.6457338410400553e-06,7.088260463206097e-05
-2.5414345145691186e-05,3.116930020041764e-05,4.943986198213679e-08,-1.2860597053077072e-05,6.169349217088893e-05
-5.647353464155458e-05,-7.087628910085186e-05,-1.1741519301722292e-05,-3.092674523941241e-05,5.1632305257953703e-05
-5.450683238450438e-05,-0.00019145921396557242,-1.2212763067509513e-05,-2.9286551580298692e-05,4.8102061555255204e-05
-8.04967748990748e-06,-0.0003048402722924948,-3.62859213964839e-06,1.1782844012486748e-05,4.893199002253823e-05
4.438997711986303e-05,-0.00035858521005138755,2.9858081234124256e-06,7.618946256116033e-05,4.610106043401174e-05
4.8631303798174486e-05,-0.00031989472336135805,3.747319624380907e-06,0.00012746540596708655,3.7893485568929464e-05
9.48079650697764e-06,-0.00021806480071973056,4.159890067967353e-06,0.00013638616655953228,2.930452137661632e-05
-2.6816156605491415e-05,-0.00010081181244459003,5.629295628750697e-06,8.732046990189701e-05,2.787732591968961e-05
-3.468411887297407e-05,4.120263838558458e-06,3.7917898225714453e-06,-2.2360867660609074e-05,3.636933979578316e-05
-3.55580668838229e-05,7.065969839459285e-05,-1.3535045582102612e-06,-0.00014319627371151,5.0022455980069935e-05
-6.265880801947787e-05,9.382890129927546e-05,-3.9264477891265415e-06,-0.00018549553351476789,6.285239214776084e-05
-0.00010852833656826988,9.470338409300894e-05,-1.2129399920013384e-06,-0.00013890482659917325,7.427455420838669e-05
-0.00012028303171973675,6.9508416345343e-05,2.9394286684691906e-06,-7.230945629999042e-05,8.310524572152644e-05
-8.863791299518198e-05,1.0310118341294583e-05,2.5692559120216174e-06,-1.977380452444777e-05,8.498478564433753e-05
-6.140225741546601e-05,-3.290102176833898e-05,-1.7199073454321478e-06,2.4466622562613338e-05,8.019839879125357e-05
-6.615475285798311e-05,-6.015295184624847e-06,-5.051344032835914e-06,5.016059731133282e-05,7.019030454102904e-05
-8.748844993533567e-05,8.015750063350424e-05,-1.4904760519129923e-06,3.698245564009994e-05,5.568235064856708e-05
-0.00010059861961053684,0.00016534086898900568,5.743692327087047e-06,-3.4281583793926984e-07,5.0849550461862236e-05
-0.00010422834748169407,0.00019370298832654953,8.172511115844827e-06,-3.1822335586184636e-05,6.271692109294236e-05
-0.000109105407318566,0.00016690179472789168,1.9269486983830575e-06,-4.109576912014745e-05,7.679660484427586e-05
-0.00010624869173625484,0.00011544850713107735,-6.130215297162067e-06,-2.611374293337576e-05,8.067547605605796e-05
-8.312755380757153e-05,6.953102274565026e-05,-7.199222181952791e-06,-2.2708925826009363e-05,7.717576954746619e-05
-5.706283263862133e-05,4.3259035010123625e-05,-1.5328413383031148e-06,-4.68670878035482e-05,7.093373278621584e-05
-3.6354264011606574e-05,-1.011897165881237e-05,1.4954880498407874e-06,-6.856970867374912e-05,6.58634162391536e-05
-2.295242484251503e-05,-0.00010638462845236063,-1.7806717096391367e-06,-6.87204155838117e-05,6.232857413124293e-05
-1.2298044566705357e-05,-0.0001321110175922513,-1.1620919622146175e-06,-4.9339563702233136e-05,6.102224870119244e-05
-5.047774266131455e-06,-4.7878598707029596e-05,1.3463819641401642e-06,-2.6878617063630372e-05,6.127188680693507e-05
-8.46434249979211e-06,4.438527685124427e-05,-3.48816115547379e-06,-1.3093162124278024e-05,5.5664455430814996e-05
-1.7786258467822336e-05,6.83660909999162e-05,-1.56254227476893e-05,-1.3205752111389302e-05,4.910497955279425e-05
-1.597009031684138e-05,3.929322338080965e-05,-2.3318025341723114e-05,-1.9746434190892614e-05,5.202375541557558e-05
-1.3445240938381176e-06,2.308881994395051e-05,-2.0313078493927605e-05,-2.030552968790289e-05,6.568714888999239e-05
7.279385954461759e-06,4.5098960981704295e-05,-1.2609293662535492e-05,-1.3866540029994212e-05,7.562915561720729e-05
4.990083198208595e-06,7.756325067020953e-05,-4.490531409828691e-06,-8.443094884569291e-06,7.395903958240524e-05
-2.1744065179518657e-06,9.012553346110508e-05,4.398921646497911e-06,-7.5235357144265436e-06,6.126833613961935e-05
-1.3615772331831977e-05,9.034057438839227e-05,1.2367509043542668e-05,-1.3810748896503355e-05,4.410424662637524e-05
-3.1697934900876135e-05,8.409561269218102e-05,1.7108994143200107e-05,-2.2070156774134375e-05,3.379703775863163e-05
-4.9712034524418414e-05,5.533993316930719e-05,2.270614822919015e-05,-1.9454671928542666e-05,3.1300605769502e-05
-6.106616638135165e-05,1.7628268324187957e-05,3.0562605388695374e-05,-1.0015844054578338e-05,3.338967144372873e-05
-6.11887953709811e-05,1.1965077646891586e-05,3.548379027051851e-05,-7.116514552762965e-06,4.045058085466735e-05
-5.5812699429225177e-05,3.0160390451783314e-05,3.605710662668571e-05,-1.3705330275115557e-05,5.1980267016915604e-05
-5.366161713027395e-05,2.6863752282224596e-05,3.542161357472651e-05,-2.409257649560459e-05,6.312864570645615e-05
-5.498327664099634e-05,-1.4669378288090229e-05,3.363945143064484e-05,-3.728830415639095e-05,6.495083653135225e-05
-5.3132433095015585e-05,-4.68016296508722e-05,2.9202490622992627e-05,-4.474006709642708e-05,5.2294155466370285e-05
-4.858698230236769e-05,-2.4402739654760808e-05,1.934627834998537e-05,-3.5989000025438145e-05,3.6604604247258976e-05
-3.9373648178298026e-05,1.6882057025213726e-05,9.654837413108908e-06,-5.615087047772249e-06,2.777894951577764e-05
-2.6097648515133187e-05,4.4767359213437885e-05,6.37514904155978e-06,4.4111638999311253e-05,2.6688534489949234e-05
-1.462848831579322e-05,5.655973654938862e-05,1.21214952741866e-05,7.697039109189063e-05,2.958163349831011e-05
-8.640653277325328e-07,5.328646147972904e-05,2.2487660316983238e-05,4.674003503168933e-05,3.621154974098317e-05
1.7208754798048176e-05,4.5638225856237113e-05,2.6903571779257618e-05,-1.0177590411331039e-05,4.931510557071306e-05
2.4544247935409658e-05,5.4323314543580636e-05,2.359056452405639e-05,-4.0703613194637e-05,6.771778862457722e-05
1.225914093083702e-05,7.729399658273906e-05,1.79216694959905e-05,-4.536631968221627e-05,8.085073932306841e-05
-1.9665258150780573e-05,8.74014149303548e-05,1.314571636612527e-05,-3.9655413274886087e-05,7.972222374519333e-05
-6.0754922742489725e-05,7.012653804849833e-05,8.814667125989217e-06,-2.373401184740942e-05,6.909416697453707e-05
-8.294122380902991e-05,4.4035383325535804e-05,6.825073342042742e-06,6.165860668261303e-06,6.0393049352569506e-05
-7.956269837450236e-05,4.116865966352634e-05,9.582945494912565e-06,3.0734241590835154e-05,5.7038672821363434e-05
-6.42549421172589e-05,5.6241711718030274e-05,1.42973431138671e-05,4.277279003872536e-05,5.650303137372248e-05
-5.7241028116550297e-05,6.290484452620149e-05,1.3179667803342454e-05,4.6548928366973996e-05,6.263228715397418e-05
-7.133557664928958e-05,5.1658171287272125e-05,5.059791874373332e-06,3.95643146475777e-05,7.662469579372555e-05
-9.934852278092876e-05,3.8420374039560556e-05,-6.834319265180966e-06,1.0250747436657548e-05,9.372265049023554e-05
-0.00012074342521373183,3.125408329651691e-05,-1.3850307368556969e-05,-2.391366069787182e-05,0.00010234268847852945
-0.00011970864579780027,2.6621240976965055e-05,-9.328899068350438e-06,-3.059259324800223e-05,9.440538269700482e-05
-8.893307676771656e-05,3.089203528361395e-05,1.9995748061774066e-06,-5.210883045947412e-06,7.848076347727329e-05
-4.287532647140324e-05,5.653575499309227e-05,1.0360663509345613e-05,3.0897044780431315e-05,6.857418338768184e-05
-8.819431968731806e-06,0.00010611913603497669,1.3352700079849456e-05,5.1164664910174906e-05,6.36669501545839e-05
6.8282647589512635e-06,0.00016227141895797104,1.439745301468065e-05,4.7288762289099395e-05,5.784077075077221e-05
1.403237365593668e-05,0.00019862502813339233,1.4439508959185332e-05,3.281698445789516e-05,4.843150600208901e-05
2.0166187823633663e-05,0.00019183468248229474,1.253025584446732e-05,2.4240491256932728e-05,4.235146479913965e-05
2.981901889143046e-05,0.0001370157697238028,1.000002976070391e-05,1.2147903362347279e-05,4.9164111260324717e-05
3.788069079746492e-05,4.6187356929294765e-05,6.657176072621951e-06,-2.407286228844896e-05,5.9319503634469584e-05
3.5944078263128176e-05,-4.5902816054876894e-05,1.9859880922012962e-06,-6.776102964067832e-05,6.252244202187285e-05
1.6933283404796384e-05,-9.08008441911079e-05,-1.6042254173953552e-06,-8.503887511324137e-05,5.837190110469237e-05
-2.605847294034902e-05,-7.419356552418321e-05,-3.7761160456284415e-06,-8.104251173790544e-05,5.038009112467989e-05
-6.246184057090431e-05,-4.114270632271655e-05,-8.155892601280357e-07,-6.51912487228401e-05,5.002167745260522e-05
-6.692820898024365e-05,-3.1687752198195085e-05,4.668329893320333e-06,-3.812828799709678e-05,5.757485268986784e-05
-6.130676774773747e-05,-3.069207741646096e-05,5.8995660765504e-06,-1.2688288734352682e-05,5.518664329429157e-05
-5.2593833970604464e-05,-1.1249405361013487e-05,3.1295514872908825e-06,4.444116711965762e-06,3.940556416637264e-05
-1.8878674381994642e-05,3.597704562707804e-05,1.7606123492441839e-06,2.123857120750472e-05,3.037796341232024e-05
4.13007837778423e-05,7.333803660003468e-05,1.234122464666143e-06,4.346860805526376e-05,4.0948933019535616e-05
9.154117287835106e-05,5.594205140369013e-05,9.102831768359465e-07,6.377063255058601e-05,6.082581603550352e-05
0.00010511858272366226,1.903228803712409e-05,2.877827910197084e-06,6.731129542458802e-05,7.550755981355906e-05
9.396498353453353e-05,1.2986449291929603e-05,3.151416876789881e-06,5.0578495574882254e-05,8.093952055787668e-05
7.559717778349295e-05,2.693245914997533e-05,-2.4980038233479718e-06,6.428995675378246e-06,8.154780516633764e-05
5.2496186981443316e-05,4.148155858274549e-05,-8.643496585136745e-06,-5.752222932642326e-05,8.309488475788385e-05
1.4586136785510462e-05,6.282496906351298e-05,-7.816680408723187e-06,-9.77052841335535e-05,8.438911027042195e-05
-2.6815392629941925e-05,6.674896576441824e-05,-6.327378741843859e-06,-9.2167807451915e-05,7.511023432016373e-05
-4.254799205227755e-05,1.2806258382624947e-05,-9.667332960816566e-06,-6.778859824407846e-05,5.6305554608115926e-05
-2.6516894649830647e-05,-6.790116458432749e-05,-1.149752006313065e-05,-5.5676930060144514e-05,4.501207877183333e-05
-4.6363943511096295e-06,-0.00010613240010570735,-8.092305506579578e-06,-5.772223084932193e-05,4.8954210797091946e-05
1.028619135468034e-05,-0.00010186451982008293,-3.102778691754793e-06,-5.4160373110789806e-05,5.575775139732286e-05
2.0408064301591367e-05,-0.00011206166527699679,-2.7494141363604285e-07,-3.912631655111909e-05,5.5875560065032914e-05
2.1196232410147786e-05,-0.0001256662217201665,-7.102306653905543e-07,-2.499994843674358e-05,5.2458861318882555e-05
1.5578421880491078e-05,-7.568681758129969e-05,-2.2694082417729078e-06,-1.8503531464375556e-05,5.292309288051911e-05
1.2621125279110856e-05,2.06520089705009e-05,-8.047607593653083e-07,-1.562293982715346e-05,5.524297012016177e-05
3.7766799323435407e-06,7.242527499329299e-05,4.194298981019529e-06,-1.278518629987957e-05,5.241314647719264e-05
-3.9053680666256696e-05,5.459866224555299e-05,5.928215159656247e-06,-1.7289587049162947e-05,4.4497151975519955e-05
-0.00011445724521763623,2.486913035681937e-05,3.087281356783933e-06,-2.7715645046555437e-05,3.6318160709924996e-05
-0.00015548909141216427,1.534417606308125e-05,6.627651600865647e-07,-3.300862590549514e-05,3.857983756461181e-05
-0.00011470237222965807,4.2456881033103855e-07,-3.916673279036331e-07,-3.28446549247019e-05,5.27955598954577e-05
-4.726992119685747e-05,-4.516281478572637e-05,-7.276489100149774e-07,-3.0144517950247973e-05,7.104917312972248e-05
-1.4326596101454925e-05,-9.595727169653401e-05,1.8777030845740228e-06,-2.2781530788051896e-05,8.436026837443933e-05
-2.7638967367238365e-05,-9.444439638173208e-05,5.3300755098462105e-06,-1.3874721844331361e-05,8.514019282301888e-05
-6.563896022271365e-05,-1.8901446310337633e-05,7.349250154220499e-06,-1.0212819688604213e-05,7.445157825713977e-05
-9.568919631419703e-05,6.372947245836258e-05,1.006923685054062e-05,-1.3325016880116891e-05,5.9690504713216797e-05
-0.00010595432104310021,7.620051474077627e-05,8.46267994347727e-06,-1.3129134458722547e-05,4.94457344757393e-05
-0.00010026347445091233,2.7536558263818733e-05,2.7338751351635437e-06,-1.6704940208001062e-05,4.782061660080217e-05
-8.827721467241645e-05,-9.86475970421452e-06,-2.637927536852658e-06,-2.8709922844427638e-05,4.815745705855079e-05
-7.378200825769454e-05,-1.486298151576193e-05,-9.140033398580272e-06,-4.0274997445521876e-05,4.654040094465017e-05
-5.518498073797673e-05,-2.5928125978680328e-05,-1.511126811237773e-05,-4.398112287162803e-05,4.681427526520565e-05
-3.345607910887338e-05,-1.8924600226455368e-05,-1.3597281395050231e-05,-3.4059721656376496e-05,5.0058846682077274e-05
-1.3586504792328924e-05,2.10763537324965e-05,-5.777111255156342e-06,-2.2217091100174002e-05,4.873797661275603e-05
-5.350616902433103e-06,6.467247294494882e-05,1.8619148249854334e-06,-1.9217624867451377e-05,3.612118962337263e-05
-1.0041087989520747e-05,8.773640001891181e-05,5.3095559451321606e-06,-1.7262807887163945e-05,1.8792308765114285e-05
-1.64659068104811e-05,8.412814349867404e-05,4.171093223703792e-06,-4.163057383266278e-06,6.3662755565019324e-06
-1.4763720173505135e-05,6.733863847330213e-05,1.2955784995938302e-06,2.601198139018379e-05,4.4014545892423484e-06
-1.1429832738940604e-05,6.27754779998213e-05,-1.0334763373975875e-06,6.153283175081015e-05,9.00883514987072e-06
-1.6657135347486474e-05,8.382610394619405e-05,5.427629048426752e-07,6.577871681656688e-05,1.3423051314020995e-05
-3.08720045723021e-05,0.00011094953515566885,3.1393726658279775e-06,1.9037050151382573e-05,2.357554876653012e-05
-4.8106190661201254e-05,0.00012753908231388777,2.7008759388991166e-06,-4.291734512662515e-05,4.661326966015622e-05
-6.014979589963332e-05,0.0001314355176873505,-2.3746673605273827e-07,-7.030872802715749e-05,8.05418094387278e-05
-5.457765291794203e-05,0.0001289580832235515,-6.104538670115289e-07,-5.649419472320005e-05,0.00011734748113667592
-2.6430336220073514e-05,0.00012487430649343878,4.387986791698495e-06,-3.112761987722479e-05,0.00014429159637074918
7.258958703459939e-06,0.00010594019840937108,9.001549187814817e-06,-1.2960545973328408e-05,0.00014681354514323175
1.922404408105649e-05,5.3375995776150376e-05,6.423917056963546e-06,1.990443706745282e-06,0.0001280305878026411
9.799170584301464e-06,-1.2777535630448256e-05,2.0776144538103836e-06,2.0819357814616524e-05,0.0001055907632689923
-1.1547067515493836e-06,-6.55043768347241e-05,-2.35577161333822e-07,5.8195753808831796e-05,8.993651135824621e-05
-2.152057277271524e-05,-8.617139246780425e-05,-1.6358662833226845e-06,0.0001053977248375304,7.97054817667231e-05
-6.38720957795158e-05,-2.9250999432406388e-05,-4.657037777633377e-07,0.00012725051783490926,7.164038834162056e-05
-0.0001240411656908691,7.117048517102376e-05,-5.3953704082232434e-06,0.0001165914727607742,6.014033351675607e-05
-0.00016270054038614035,7.825926877558231e-05,-1.4949776414141525e-05,8.03926304797642e-05,4.429580440046266e-05
-0.00015649922715965658,8.159314347722102e-06,-1.773995791154448e-05,-3.873573859891621e-06,3.6488985642790794e-05
-0.00011347932741045952,-3.7446250644279644e-05,-1.3597908036899753e-05,-9.263942047255114e-05,4.2314040911151096e-05
-6.201074575074017e-05,-1.3387379112828057e-05,-4.194445409666514e-06,-8.632345998194069e-05,5.339248673408292e-05
-4.180257747066207e-05,6.175867019919679e-05,1.0582403774606064e-05,-9.765483810042497e-06,5.393190440372564e-05
-4.2749532440211624e-05,0.00011691631516441703,2.4562756152590737e-05,4.9798833060776815e-05,4.2610918171703815e-05
-4.5176115236245096e-05,0.0001337070279987529,3.4149961720686406e-05,6.044396650395356e-05,2.6289078959962353e-05
-3.9115828258218244e-05,0.00012118962331442162,4.503664968069643e-05,2.7772883186116815e-05,1.2110439456591848e-05
-1.9426108337938786e-05,9.351821063319221e-05,5.189723378862254e-05,-2.427460094622802e-05,1.3010196198592894e-05
1.862086537585128e-05,5.311559289111756e-05,4.8916634113993496e-05,-6.209276034496725e-05,2.7072985176346265e-05
5.825082189403474e-05,1.4595534594263881e-05,4.186657315585762e-05,-5.706424417439848e-05,4.404748324304819e-05
7.655919762328267e-05,-1.1355742799423751e-06,3.4210068406537175e-05,-1.357552991976263e-05,6.337615195661783e-05
6.733771442668512e-05,1.0008454410126433e-05,2.5889890821417794e-05,1.8886592442868277e-05,8.585256000515074e-05
3.607528196880594e-05,2.0569517801050097e-05,1.875951602414716e-05,1.4519321211992064e-07,0.00010372055839980021
-6.244234782570857e-07,1.5087545762071386e-05,1.5843252185732126e-05,-4.2991428927052766e-05,0.00011126736353617162
-2.838536056515295e-05,2.201519782829564e-05,1.618600254005287e-05,-6.305046554189175e-05,0.00011512576747918501
-3.8937712815823033e-05,5.220493403612636e-05,1.7551805285620503e-05,-4.7857949539320543e-05,0.0001161673353635706
-2.7126838176627643e-05,6.912858225405216e-05,1.906540092022624e-05,-1.8350521713728085e-05,0.00010781197488540784
1.239543689735001e-05,5.778878403361887e-05,2.244358984171413e-05,6.0913625929970294e-06,9.112547559197992e-05
5.8813500800170004e-05,5.7096036471193656e-05,2.8487766030593775e-05,1.809342393244151e-05,7.73388528614305e-05
7.770945376250893e-05,9.173229045700282e-05,3.2927568099694327e-05,1.8307046047993936e-05,7.116639608284459e-05
5.991776561131701e-05,0.0001214139410876669,2.9898646971560083e-05,1.2507446626841556e-05,6.763022975064814e-05
2.967874752357602e-05,0.00011252559488639235,2.2146155970403925e-05,1.2022925147903152e-05,6.251157901715487e-05
2.1169875253690407e-05,9.591625712346286e-05,1.5766832802910358e-05,2.728756589931436e-05,5.6812321417964995e-05
3.733568883035332e-05,7.772367098368704e-05,1.2674623576458544e-05,4.7189467295538634e-05,5.5388321925420314e-05
4.313557656132616e-05,5.649828017340042e-05,1.0021290108852554e-05,4.8709600378060713e-05,5.570438224822283e-05
2.3245849661179818e-05,3.229043068131432e-05,4.321801043261075e-06,2.237373701063916e-05,5.3733441745862365e-05
1.0003481065723463e-06,-2.2772419470129535e-05,-5.6873500398069154e-06,-1.7893791664391756e-05,4.948034984408878e-05
1.4683626432088204e-05,-0.00010215109796263278,-1.4727116649737582e-05,-3.604935045586899e-05,5.010041786590591e-05
4.7025147068779916e-05,-0.0001465964160161093,-1.8070648366119713e-05,-2.197737921960652e-05,5.311049972078763e-05
4.207164602121338e-05,-0.00013008914538659155,-1.6544643585802987e-05,-8.33661306387512e-06,5.3307157941162586e-05
-1.455930123483995e-05,-8.774754678597674e-05,-1.1077316230512224e-05,-1.0178377124248073e-05,4.8752837756183e-05
-8.484716818202287e-05,-6.054791447240859e-05,-5.79748120799195e-06,-1.344181873719208e-05,3.987435047747567e-05
-0.00012859993148595095,-4.70780287287198e-05,-5.108859568281332e-06,-1.3589609807240777e-05,3.6261033528717235e-05
-0.00013421080075204372,-8.549403901270125e-06,-8.493720088154078e-06,-1.8761724277283065e-05,3.961825495935045e-05
-0.0001177116428152658,6.236109038582072e-05,-9.936199603544082e-06,-2.242663686047308e-05,4.561245805234648e-05
-9.952161053661257e-05,0.0001365268835797906,-8.048386916925665e-06,-2.4319286239915527e-05,4.985136547475122e-05
-8.745086961425841e-05,0.0001934914180310443,-5.672348379448522e-06,-3.235661279177293e-05,5.174225952941924e-05
-7.944060052977875e-05,0.00021228755940683186,-3.5715534068003763e-06,-3.85591592930723e-05,5.265491199679673e-05
-6.15144963376224e-05,0.00017531818593852222,3.0989145471949087e-08,-3.348293830640614e-05,5.413149847299792e-05
-3.7600420910166577e-05,9.570317342877388e-05,4.926549536321545e-06,-2.059004873444792e-05,5.3799300076207146e-05
-2.195599881815724e-05,1.82718358701095e-05,8.438762051810045e-06,-1.0014621693699155e-05,5.374285683501512e-05
-1.611202424101066e-05,-3.7144232919672504e-05,8.204146070056595e-06,-6.4620944613125175e-06,5.89369738008827e-05
-1.8526359781390056e-05,-8.339410123880953e-05,3.197052592440741e-06,-9.723122275318019e-06,6.343488348647952e-05
-3.222117811674252e-05,-0.00013406199286691844,-4.881826498603914e-06,-1.4624165487475693e-05,6.188736006151885e-05
-4.113995237275958e-05,-0.0001795043353922665,-1.3772932106803637e-05,-1.620450711925514e-05,5.95462552155368e-05
-3.5781049518845975e-05,-0.00018226321844849735,-1.8010579879046418e-05,-1.741105006658472e-05,5.7599139836383983e-05
-2.9666052796528675e-05,-0.0001262825244339183,-1.5842897482798435e-05,-1.8982787878485397e-05,5.070797851658426e-05
-2.7465621315059252e-05,-5.270812471280806e-05,-1.3690256309928373e-05,-1.9823954062303528e-05,4.2406634747749195e-05
-2.4723971364437602e-05,-1.3655141628987622e-05,-1.9853043340845034e-05,-2.763266093097627e-05,3.940052192774601e-05
-1.9194007109035738e-05,-5.750879608967807e-06,-3.098846354987472e-05,-4.157111470703967e-05,4.520143920672126e-05
-9.92847799352603e-06,-3.7318279737519333e-06,-3.450200165389106e-05,-4.710046778200194e-05,5.7005709095392376e-05
-3.946319793612929e-06,2.1323377950466238e-05,-2.8084894438507035e-05,-4.192295091343112e-05,6.523200863739476e-05
-7.505946086894255e-06,8.298141619889066e-05,-1.9547167539712973e-05,-3.098748857155442e-05,6.623133231187239e-05
-1.493859599577263e-05,0.00012890557991340756,-1.545692066429183e-05,-1.6218185919569805e-05,6.660200597252697e-05
-1.6160152881639078e-05,0.0001348966616205871,-1.2305964446568396e-05,3.532381924742367e-06,6.694965850329027e-05
-1.2179525583633222e-05,0.00012383110879454762,-8.198230716516264e-06,2.5296347303083166e-05,6.923514592926949e-05
4.9382470024283975e-06,0.00013392549590207636,6.436284820665605e-07,3.204683162039146e-05,6.910398951731622e-05
3.038392424059566e-05,0.00019255757797509432,1.6250625776592642e-05,1.4518321222567465e-05,6.0153714002808556e-05
3.6927725886926055e-05,0.0002499248366802931,2.8619833756238222e-05,-1.1018989425792824e-05,5.212203905102797e-05
3.1474373827222735e-05,0.000269237527390942,3.253520844737068e-05,-2.1992391339153983e-05,4.965961124980822e-05
3.672466482385062e-05,0.00023773880093358457,3.447285052970983e-05,-1.3043577382632066e-05,4.897095641354099e-05
3.536888834787533e-05,0.00017291557742282748,3.7080211768625304e-05,1.1039905075449497e-05,4.5532611693488434e-05
-1.3856054465577472e-05,9.89666732493788e-05,3.6794255720451474e-05,3.619000926846638e-05,4.1409803088754416e-05
-0.00011585639731492847,3.762453343369998e-05,3.302782351966016e-05,4.5357297494774684e-05,3.6516517866402864e-05
-0.000207031233003363,1.887207048412165e-07,2.710119770199526e-05,3.6778266803594306e-05,3.206811743439175e-05
-0.00021317973732948303,-4.485296813072637e-05,2.2983709641266614e-05,1.2096409591322299e-05,3.536458098096773e-05
-0.00014089488831814378,-0.00010857375309569761,2.0274639609851874e-05,-3.298118826933205e-05,4.504372918745503e-05
-5.8517787692835554e-05,-0.0001460740459151566,1.6676331142662093e-05,-7.847334200050682e-05,5.116447573527694e-05
-7.392014595097862e-06,-0.00013290181232150644,1.331588009634288e-05,-8.676267316332087e-05,5.178837454877794e-05
1.569080450281035e-05,-0.00010597931395750493,1.212092047353508e-05,-5.939476250205189e-05,5.1509065087884665e-05
2.218849112978205e-05,-8.41052460600622e-05,1.2762239748553839e-05,-2.5507395548629574e-05,5.355465327738784e-05
2.1452055079862475e-05,-6.288261647569016e-05,1.3659637261298485e-05,2.1881885459151817e-06,6.0049704188713804e-05
2.1298244973877445e-05,-4.067008558195084e-05,1.597018308530096e-05,2.3623504603165202e-05,6.626597314607352e-05
2.799491812766064e-05,-1.9164488548994996e-05,2.0239305740687996e-05,3.4983611840289086e-05,6.808601756347343e-05
3.609006307669915e-05,-1.456140694244823e-06,2.2842472390038893e-05,3.0847495509078726e-05,6.855059473309666e-05
3.1459887395612895e-05,-3.266139401603141e-06,2.1101683159940876e-05,1.2833275832235813e-05,6.830831262050197e-05
3.0743055958737386e-06,-3.1450843380298465e-05,1.3881657650927082e-05,-9.266853339795489e-06,6.748039595549926e-05
-4.2098774429177865e-05,-6.171074346639216e-05,3.0594012514484348e-06,-3.0248987968661822e-05,6.603946530958638e-05
-8.364029054064304e-05,-7.492028089473024e-05,-7.456268349415041e-07,-4.0158116462407634e-05,6.40347134321928e-05
-0.00010201133409282193,-6.025685433996841e-05,1.091507056116825e-05,-3.6329332942841575e-05,6.246068369364366e-05
-9.352670895168558e-05,-1.2902450180263259e-05,2.0895056877634488e-05,-3.6396217183209956e-05,5.959735790384002e-05
-6.756084621883929e-05,2.7286543627269566e-05,2.1046596884843893e-05,-4.877393439528532e-05,5.1379494834691286e-05
-4.399598765303381e-05,4.827073644264601e-05,1.4085310795053374e-05,-4.1263549064751714e-05,3.7147096008993685e-05
-3.920345625374466e-05,6.524387572426349e-05,2.496163233445259e-06,3.881600605382118e-06,2.2265734514803626e-05
-4.422584970598109e-05,9.300861711381003e-05,-5.448905994853703e-06,6.382014544215053e-05,9.435756510356441e-06
-4.6244484110502526e-05,0.00013198047236073762,-1.2396307283779606e-05,0.00011523147986736149,8.997286386147607e-06
-4.302273009670898e-05,0.000161170624778606,-1.3942689292889554e-05,0.0001261785364476964,1.9740155039471574e-05
-3.306618600618094e-05,0.00016564727411605418,-1.1257103324169293e-05,7.573424227302894e-05,3.742959233932197e-05
-1.3016046068514697e-05,0.00013987848069518805,-7.922735676402226e-06,-2.4722432499402203e-05,5.930962652200833e-05
1.7034894881362561e-06,0.00010374815610703081,-4.682210601458792e-06,-0.00010191951878368855,7.813404954504222e-05
-4.805385287909303e-06,6.862723967060447e-05,1.0969789627779392e-06,-0.00010740437573986128,9.055131522472948e-05
-2.715341361181345e-05,4.1233975935028866e-05,8.643337423563935e-06,-8.579600398661569e-05,9.209237032337114e-05
-4.7106306737987325e-05,3.223633757443167e-05,1.3693515938939527e-05,-8.903797424864024e-05,8.466916187899187e-05
-4.710486973635852e-05,4.2427462176419795e-05,1.6187117580557242e-05,-0.00010725748870754614,7.938099588500336e-05
-2.5551124053890817e-05,5.307364699547179e-05,1.780175807652995e-05,-0.00010309798381058499,8.172135858330876e-05
-2.3054778921505203e-06,5.246723230811767e-05,1.553966103529092e-05,-5.603428871836513e-05,8.441363752353936e-05
6.865030627523083e-06,4.690802961704321e-05,3.854313035844825e-06,1.146189788414631e-05,7.942639786051586e-05
7.200208074209513e-06,4.762931348523125e-05,-9.356721420772374e-06,3.486232162686065e-05,6.945063796592876e-05
-3.776159474000451e-07,6.282881804509088e-05,-1.4936532352294307e-05,-7.4677377597254235e-06,6.864804890938103e-05
-1.9765502656809986e-05,8.257286390289664e-05,-1.5218111911963206e-05,-5.361247167456895e-05,8.173019887180999e-05
-4.8981542931869626e-05,7.768863724777475e-05,-1.744656947266776e-05,-5.084012809675187e-05,9.831802162807435e-05
-7.642694981768727e-05,4.2207477235933766e-05,-1.671012978476938e-05,-2.176130328734871e-05,0.0001053663290804252
-8.634068217361346e-05,1.783532752597239e-05,-1.061572038452141e-05,-4.348846232460346e-06,0.00010661880514817312
-7.637080125277862e-05,4.648528192774393e-05,-4.190452727925731e-06,-4.175916728854645e-06,0.00010601512622088194
-5.5172189604490995e-05,0.00010840751929208636,1.400125483996817e-06,4.205563527648337e-06,9.384105942444876e-05
-4.310777148930356e-05,0.0001262086589122191,7.2243469730892684e-06,2.195953857153654e-05,6.355581717798486e-05
-4.748497303808108e-05,3.8638194382656366e-05,1.2733663425024133e-05,2.448008490318898e-05,3.307564475107938e-05
-4.541242742561735e-05,-0.00010155722702620551,1.5060626537888311e-05,2.484676997482893e-06,2.7207475795876235e-05
-2.809162288031075e-05,-0.000192546023754403,1.2410448107402772e-05,-2.4874421796994284e-05,3.653495878097601e-05
-6.4161495174630545e-06,-0.00019470337429083884,6.333198598440504e-06,-4.16191469412297e-05,5.012158362660557e-05
1.1346881365170702e-05,-0.00011888271546922624,3.6934789022780024e-06,-4.290068682166748e-05,7.3511793743819e-05
2.251146906928625e-05,-3.524916974129155e-05,8.099623300950043e-06,-2.901491279772017e-05,9.39487072173506e-05
1.8113560145138763e-05,-2.3820869046176085e-06,1.2246911865076981e-05,-6.847241365903756e-06,9.865067841019481e-05
-7.447986718034372e-06,-1.2223112207720987e-05,1.1155441825394519e-05,1.6500182027812116e-05,8.662885375088081e-05
-3.98784686694853e-05,-2.1705527615267783e-05,5.888122359465342e-06,3.0256791433203034e-05,6.653976743109524e-05
-6.329894677037373e-05,-4.98701820106362e-06,3.119013740615628e-07,3.824335726676509e-05,5.442980182124302e-05
-6.413157097995281e-05,2.5346542315674014e-05,-1.339737309535849e-06,5.662689727614634e-05,5.3338670113589615e-05
-3.484001354081556e-05,1.7372012734995224e-05,1.5789297549417824e-06,7.750830263830721e-05,5.528767724172212e-05
9.823774234973826e-06,-2.6303699996788055e-05,4.070737304573413e-06,7.11155153112486e-05,5.617170609184541e-05
4.645283115678467e-05,-4.749716754304245e-05,2.8025531264574965e-06,4.3292482587276027e-05,5.944220902165398e-05
6.505048804683611e-05,-2.243725066364277e-05,2.8144967245680164e-07,2.003690678975545e-05,6.548164674313739e-05
6.942537584109232e-05,2.8879510864499025e-05,-1.9758867892960552e-06,-3.163773271808168e-06,7.083651144057512e-05
6.208302511367947e-05,6.309915625024587e-05,-4.8552888074482325e-06,-4.767063001054339e-05,7.044737139949575e-05
4.63049509562552e-05,6.956311699468642e-05,-8.337673534697387e-06,-7.330860535148531e-05,6.215915345819667e-05
2.9554050342994742e-05,7.358749280683696e-05,-7.225617991934996e-06,-1.9509747289703228e-05,5.3534949984168634e-05
8.274552783404943e-06,8.147726475726813e-05,-3.231581786167226e-06,5.871766188647598e-05,5.078164758742787e-05
-2.30277673836099e-05,6.305925489868969e-05,-3.734695837920299e-06,7.405523501802236e-05,4.6189896238502115e-05
-5.38616041012574e-05,3.0221581255318597e-05,-6.89819398758118e-06,3.230186484870501e-05,3.3047243050532416e-05
-6.925304478500038e-05,3.0079427233431488e-05,-6.914821369718993e-06,-4.4457348849391565e-05,2.3395276002702303e-05
-6.461041630245745e-05,6.282105459831655e-05,-4.823185918212403e-06,-0.00013939164637122303,2.6449286451679654e-05
-4.053261727676727e-05,0.00010374635166954249,-7.73757790284435e-07,-0.00017747218953445554,3.652724262792617e-05
-6.368187314365059e-06,0.00014647190982941538,2.9173907023505308e-06,-0.00013151003804523498,5.0362887122901157e-05
1.2947519280714914e-05,0.0001581326505402103,2.1777084384666523e-06,-5.7718036259757355e-05,6.532210682053119e-05
5.180465905141318e-06,0.0001205756125273183,-7.120142981875688e-07,-5.829647761856904e-06,7.921300857560709e-05
-2.2179794541443698e-05,5.37233536306303e-05,-1.4863888964100624e-07,-5.142392183188349e-07,8.16553074400872e-05
-5.161589433555491e-05,-2.093143848469481e-05,-1.169724441751896e-06,-1.528235043224413e-05,6.695027695968747e-05
-4.8291185521520674e-05,-7.294002716662362e-05,-7.396869023068575e-06,-1.4285366887634154e-05,4.916287798550911e-05
-2.31762278417591e-05,-5.820756996399723e-05,-7.569202352897264e-06,1.3519775166059844e-05,4.358407386462204e-05
-2.1370911781559698e-05,6.410884338947653e-07,4.5783971813762037e-07,5.427580981631763e-05,4.894215089734644e-05
-3.620574716478586e-05,4.5362827222561464e-05,9.028319254866801e-06,8.432683534920216e-05,5.043824057793245e-05
-3.653229578048922e-05,6.212052539922297e-05,1.4107792594586499e-05,7.275628013303503e-05,3.959829700761475e-05
-2.12420491152443e-05,7.166503928601742e-05,1.9202439943910576e-05,1.06439301816863e-06,1.3023694918956608e-05
-1.7206584743689746e-05,9.45579813560471e-05,1.989721567952074e-05,-8.4602230344899e-05,-1.7215019397553988e-05
-3.4548585972515866e-05,9.687890997156501e-05,1.5377630916191265e-05,-0.00010592627222649753,-3.4700282412813976e-05
-5.3004052460892126e-05,5.897763912798837e-05,1.1235477359150536e-05,-3.29359172610566e-05,-3.389329867786728e-05
-5.2732146286871284e-05,3.389499761397019e-05,1.0628808013279922e-05,7.974867185112089e-05,-1.1106440979347099e-05
-2.6349756808485836e-05,5.504124783328734e-05,1.450135368941119e-05,0.00012951598910149187,2.9134127544239163e-05
5.307774699758738e-06,6.395702075678855e-05,1.8515289411880076e-05,5.9155598137294874e-05,6.921289605088532e-05
1.2426246030372567e-05,4.1405437514185905e-05,1.8343216652283445e-05,-6.725578714394942e-05,0.00010301307338522747
5.9191856962570455e-06,2.8244388886378147e-05,1.6752428564359434e-05,-0.00012843050353694707,0.00013981304073240608
1.7689011656329967e-05,2.248873352073133e-05,2.1954518160782754e-05,-6.661970110144466e-05,0.00016393228725064546
4.6779096010141075e-05,1.1152463230246212e-05,3.137219027848914e-05,4.862030255026184e-05,0.00014766296953894198
5.426994903245941e-05,1.716226506687235e-05,3.402876609470695e-05,0.00010174862836720422,9.322572441305965e-05
7.819726306479424e-06,3.78500553779304e-05,2.361392580496613e-05,6.052126991562545e-05,3.9302187360590324e-05
-5.2121617045486346e-05,4.319606887293048e-05,9.778257663128898e-06,-1.3659567230206449e-05,2.0920257156831212e-05
-5.55566257389728e-05,1.2709127986454405e-05,3.177464577674982e-06,-8.544340380467474e-05,3.6812380130868405e-05
-2.7645688533084467e-05,-4.6059340093052015e-06,5.558335374189483e-07,-0.00013193543418310583,6.933053373359144e-05
-3.189994458807632e-05,7.517336052842438e-05,-2.044403260015315e-07,-0.00010428384848637506,9.878462151391432e-05
-7.510409341193736e-05,0.0001932354789460078,3.2162813567993e-06,-2.572673292888794e-05,0.00010539482900639996
-0.00011424266267567873,0.00022777314006816596,9.097760084841866e-06,3.548485619830899e-05,9.232004231307656e-05
-0.00011799086496466771,0.00017488401499576867,9.696856068330817e-06,4.323002940509468e-05,7.260336860781536e-05
-0.0001012308057397604,0.00016124272951856256,2.7313726604916155e-06,1.1452784747234546e-05,6.241292430786416e-05
