-3.311523687443696e-05,7.475462916772813e-05,1.4784767699893564e-05,1.0186121471633669e-05,6.444175960496068e-05
-3.3400061511201784e-05,7.633644418092445e-05,2.0360677808639593e-05,2.4278331693494692e-05,5.7762554206419736e-05
-2.7718233468476683e-05,7.930603896966204e-05,2.3719025193713605e-05,3.921255120076239e-05,5.320403215591796e-05
-2.2221489416551776e-05,7.938628550618887e-05,2.3742877601762302e-05,4.603146226145327e-05,5.16393301950302e-05
-2.1363948690122925e-05,7.270977221196517e-05,2.3169925043475814e-05,4.4160420657135546e-05,5.1220995374023914e-05
-2.5608984287828207e-05,6.59763827570714e-05,2.0589250198099762e-05,4.0966671804198995e-05,5.363416494219564e-05
-2.6105053620995022e-05,5.6071814469760284e-05,1.5443574739038013e-05,3.780225233640522e-05,5.687818338628858e-05
-1.7430114894523285e-05,3.731076867552474e-05,9.094574124901555e-06,2.8722619390464388e-05,6.044101974111982e-05
-2.5141089281532913e-06,1.7549749827594496e-05,3.1042068258102518e-06,1.555210656078998e-05,6.158198812045157e-05
9.774341378943063e-06,8.540566341252998e-06,-1.418260808350169e-06,3.4858344406529795e-06,6.56828997307457e-05
1.1640867342066485e-05,1.405564216838684e-05,-1.39909593599441e-06,-6.432092050090432e-06,7.367444050032645e-05
3.3133251235994976e-06,2.1122088583069853e-05,4.479896233533509e-06,-1.1810632713604718e-05,8.312070713145658e-05
-6.587570624105865e-06,1.5762805560370907e-05,9.774793397809844e-06,-1.4687773727928288e-05,8.748529944568872e-05
-8.176854862540495e-06,7.450420298482641e-07,7.985978299984708e-06,-1.676094143476803e-05,8.605579205323011e-05
-3.1712831969343824e-06,-5.245487955107819e-06,4.669144800573122e-06,-1.6828909792820923e-05,8.230077219195664e-05
-1.8722790855463245e-06,7.206328518805094e-06,4.399894805828808e-06,-1.851436354627367e-05,7.611671753693372e-05
-4.962798357155407e-06,2.3563779905089177e-05,6.642728294536937e-06,-2.3299144231714308e-05,7.026721141301095e-05
-5.858666099811671e-06,2.681276782823261e-05,1.088276258087717e-05,-2.5531886421958916e-05,6.683092942694202e-05
-4.4836619963462e-06,1.748467911966145e-05,1.3103397577651776e-05,-2.3569014956592582e-05,6.422373553505167e-05
-4.959846592100803e-06,2.7018038508686004e-06,1.1351741704856977e-05,-2.295400554430671e-05,6.008003401802853e-05
-1.2503618563641794e-05,-1.2481539670261554e-05,8.405941116507165e-06,-2.3327515009441413e-05,5.755728489020839e-05
-3.0279508791863918e-05,-2.2225891370908357e-05,4.884942882199539e-06,-2.497339119145181e-05,5.783578671980649e-05
-5.0863887736340985e-05,-2.2804495529271662e-05,3.0094231533439597e-06,-2.877250881283544e-05,5.837314165546559e-05
-6.458203279180452e-05,-1.9112048903480172e-05,7.189173629740253e-06,-3.250594818382524e-05,5.632352258544415e-05
-6.851100624771789e-05,-1.7357782780891284e-05,1.1030422683688812e-05,-3.485076376819052e-05,5.423286711447872e-05
-6.620277417823672e-05,-1.2773723938153125e-05,1.1729528523574118e-05,-3.68955334124621e-05,5.537593460758217e-05
-5.795411561848596e-05,-8.873971069078834e-07,1.1139010894112289e-05,-4.100126898265444e-05,5.821006197948009e-05
-4.077282210346311e-05,1.7453323380323127e-05,8.157885531545617e-06,-4.010857446701266e-05,6.0592843510676175e-05
-2.66585066128755e-05,3.7156227335799485e-05,5.6896928981586825e-06,-3.3380558306816965e-05,6.0904720157850534e-05
-1.9999379219370894e-05,5.336656249710359e-05,8.718030585441738e-06,-2.8939786716364324e-05,6.170488632051274e-05
-2.0139708794886246e-05,6.111484253779054e-05,9.708402103569824e-06,-2.8736483727698214e-05,6.361689884215593e-05
-2.5850138626992702e-05,5.6280176067957655e-05,4.735530637844931e-06,-2.9684515538974665e-05,6.105344073148444e-05
-2.7624557333183475e-05,4.1924722609110177e-05,-6.684400091216958e-07,-3.176058453391306e-05,5.700313704437576e-05
-2.2026881197234616e-05,2.819344990712125e-05,-4.6264008233265486e-06,-3.409241253393702e-05,5.5113261623773724e-05
-1.6736876204959117e-05,2.1538520741160028e-05,-7.935503163025714e-06,-3.411737998249009e-05,5.297486495692283e-05
-1.6720850908313878e-05,1.8023321899818256e-05,-9.966784091375303e-06,-3.32934178004507e-05,5.031343243899755e-05
-1.7641270460444503e-05,1.8475480828783475e-05,-1.1533034921740182e-05,-3.171034040860832e-05,4.893025106866844e-05
-1.928913661686238e-05,2.1172058040974662e-05,-1.3411615327640902e-05,-2.8861724786111154e-05,4.868735049967654e-05
-2.1659507183358073e-05,2.5896499209920876e-05,-1.2704971595667303e-05,-2.3729129679850303e-05,4.8662452172720805e-05
-2.1936988559900783e-05,3.361090421094559e-05,-9.171854799205903e-06,-1.7403848687536083e-05,4.9011316150426865e-05
-1.7750728147802874e-05,4.089766662218608e-05,-3.4263609904883197e-06,-1.2173535651527345e-05,5.2756990044144914e-05
-1.4089599062572233e-05,4.640071711037308e-05,2.13756061384629e-06,-1.0858438145078253e-05,5.800578583148308e-05
-1.5558922314085066e-05,4.976148557034321e-05,4.610024006979074e-06,-1.6445534129161388e-05,5.915297515457496e-05
-1.924799471453298e-05,5.004158811061643e-05,5.8437012739886995e-06,-2.562765803304501e-05,5.84228582738433e-05
-1.968047763512004e-05,4.8486814193893224e-05,8.056224942265544e-06,-3.016489245055709e-05,5.849771332577802e-05
-2.1764708435512148e-05,4.6582517825299874e-05,8.541082024748903e-06,-2.8075823138351552e-05,5.910955951549113e-05
-3.0697137844981626e-05,4.20446194766555e-05,5.2061550377402455e-06,-2.3518050511484034e-05,5.4956948588369414e-05
-3.851068686344661e-05,3.902221578755416e-05,2.2834858555143e-06,-1.4816966540820431e-05,4.693774462793954e-05
-3.729169839061797e-05,4.111674570594914e-05,8.39926201479102e-07,-2.4741193556110375e-06,4.255574458511546e-05
-3.1656480132369325e-05,4.110093868803233e-05,-6.03838884671859e-07,5.312606845109258e-06,4.186996739008464e-05
-3.063037001993507e-05,3.486490822979249e-05,-4.2397138599881146e-07,8.682043699081987e-06,4.11309847550001e-05
-3.429183198022656e-05,2.9064889531582594e-05,-6.915847734489944e-07,6.405667136277771e-06,3.996639861725271e-05
-3.530302637955174e-05,3.0691997380927205e-05,-1.3300181080921902e-06,3.9522774386568926e-07,4.1922274249373004e-05
-3.270462548243813e-05,3.6035118682775646e-05,2.391898533460335e-06,-1.593184492776345e-06,4.69832775706891e-05
-2.871052856789902e-05,3.7309138861019164e-05,7.573371931357542e-06,-3.4676909308473114e-06,4.648665708373301e-05
-2.41693251155084e-05,3.860167271341197e-05,7.575736617582152e-06,-3.6130204534856603e-06,4.142128091189079e-05
-2.317652433703188e-05,4.2626492358976975e-05,4.57309670309769e-06,4.561844434647355e-06,3.595762245822698e-05
-2.8307753382250667e-05,4.815209467778914e-05,5.603660156339174e-06,1.9450098989182152e-05,3.268505315645598e-05
-3.437783743720502e-05,5.1410755986580625e-05,1.166115816886304e-05,3.210902286809869e-05,3.1734296499053016e-05
-3.684375042212196e-05,4.832012564293109e-05,1.847536987042986e-05,3.933648986276239e-05,3.052041938644834e-05
-3.75732452084776e-05,4.4283759052632377e-05,2.4830305846990086e-05,3.959741661674343e-05,3.4259566746186465e-05
-3.474574987194501e-05,4.009622716694139e-05,2.7057045372202992e-05,3.232589006074704e-05,4.508565325522795e-05
-2.9670254662050866e-05,3.3372089092154056e-05,2.2678963432554156e-05,2.2309559426503256e-05,5.905216676183045e-05
-2.3915798010420986e-05,2.659085839695763e-05,1.3425978977466002e-05,8.84089786268305e-06,7.174934580689296e-05
-1.8549906599218957e-05,2.3359978513326496e-05,6.37555922367028e-06,-7.156852007028647e-06,8.27415133244358e-05
-1.2600918125826865e-05,2.2555928808287717e-05,4.733580226456979e-06,-2.0381839931360446e-05,8.694994903635234e-05
-6.06191724727978e-06,2.0949355530319735e-05,6.606416263821302e-06,-2.584326830401551e-05,8.501515549141914e-05
5.272515295473568e-07,1.8253780581289902e-05,8.880718269210774e-06,-2.4541030143154785e-05,8.26313771540299e-05
3.94494054489769e-06,1.3560442312154919e-05,9.76737828750629e-06,-2.4592534828116186e-05,8.125770546030253e-05
3.7202935345703736e-06,6.913191555213416e-06,1.0690860108297784e-05,-3.316442598588765e-05,7.792346877977252e-05
6.437928163904871e-07,-4.1902317207132e-06,1.0330219993193168e-05,-4.5962267904542387e-05,7.026305684121326e-05
-5.7625456975074485e-06,-1.830424662330188e-05,9.178684194921516e-06,-5.090356353321113e-05,5.973858424113132e-05
-1.2593819519679528e-05,-2.7762638637796044e-05,9.632671208237298e-06,-4.361009632702917e-05,5.3611893235938624e-05
-1.7337120880256407e-05,-2.5693892894196324e-05,1.1711515981005505e-05,-3.218800702597946e-05,5.449123273137957e-05
-2.0302188204368576e-05,-1.3023583960602991e-05,1.2555418834381271e-05,-2.127522384398617e-05,5.612728273263201e-05
-2.1884839952690527e-05,5.214788416196825e-06,1.1606528460106347e-05,-8.445124876743648e-06,5.68889117857907e-05
-2.2927320969756693e-05,2.8079075491405092e-05,8.389612048631534e-06,5.878428055439144e-06,5.75291778659448e-05
-2.9498833100660704e-05,5.433287878986448e-05,3.84012628273922e-06,2.397398384346161e-05,5.869987580808811e-05
-3.584449950722046e-05,7.58135283831507e-05,2.1721493794757407e-06,4.024524969281629e-05,5.868732478120364e-05
-3.123967690044083e-05,8.278551104012877e-05,5.092108040116727e-06,4.610253017744981e-05,5.8021152653964236e-05
-1.9347347915754654e-05,7.960576476762071e-05,9.357347153127193e-06,4.151937537244521e-05,6.030441727489233e-05
-1.1397244634281378e-05,8.090559276752174e-05,1.608255843166262e-05,2.3783435608493164e-05,6.488373037427664e-05
-1.0248674698232207e-05,8.546189201297238e-05,1.8214695955975913e-05,6.873954589536879e-06,6.56085176160559e-05
-1.402394445904065e-05,8.504668949171901e-05,1.5536776118096896e-05,7.858550361561356e-07,6.186770770000294e-05
-1.7889538867166266e-05,7.824348722351715e-05,1.5529927622992545e-05,-5.01451552281651e-07,5.5915148550411686e-05
-2.2215190256247297e-05,5.929855251451954e-05,1.6106836483231746e-05,-4.0645488752488745e-07,5.3915846365271136e-05
-3.086329161305912e-05,3.3891352359205484e-05,1.2841760508308653e-05,-6.6901416175824124e-06,5.800044164061546e-05
-3.826144529739395e-05,2.1198089598328806e-05,2.7621731533145066e-06,-2.2939686459721997e-05,6.231520092114806e-05
-3.6357352655613795e-05,3.207697955076583e-05,-7.5977222877554595e-06,-4.113330214750022e-05,6.543412018800154e-05
-2.5429872039239854e-05,5.144018359715119e-05,-1.4374016245710663e-05,-5.091374259791337e-05,6.717321230098605e-05
-1.0230159205093514e-05,5.8441633882466704e-05,-1.8992119294125587e-05,-5.3864336223341525e-05,6.552399281645194e-05
1.4404338344320422e-06,4.2486877646297216e-05,-2.3831071302993223e-05,-5.52575038454961e-05,6.367320020217448e-05
2.110999048454687e-06,9.50721550907474e-06,-2.584647518233396e-05,-5.767906259279698e-05,6.469363870564848e-05
-7.742167326796334e-06,-1.8480825019651093e-05,-2.5679115424281918e-05,-5.536632306757383e-05,6.562182534253225e-05
-2.1263047528918833e-05,-2.3698514269199222e-05,-2.3894350306363776e-05,-4.647409150493331e-05,6.458179268520325e-05
-3.2872143492568284e-05,-1.0328811185900122e-05,-1.794468153093476e-05,-3.6720477510243654e-05,6.206295074662194e-05
-4.032805736642331e-05,5.6156545724661555e-06,-9.26599750528112e-06,-2.9377084501902573e-05,5.912514461670071e-05
-4.07860497944057e-05,1.2364429494482465e-05,-1.31090268951084e-06,-2.205248165410012e-05,5.6487875554012135e-05
-3.70174202544149e-05,8.286135084745183e-07,3.9055316847225185e-06,-1.5975007045199163e-05,5.3523566748481244e-05
-3.431838194956072e-05,-2.159134965040721e-05,5.488425358635141e-06,-1.829643952078186e-05,5.08037228428293e-05
-3.368460602359846e-05,-2.5379018552484922e-05,4.180303676548647e-06,-2.631550160003826e-05,5.1360206271056086e-05
-3.51996895915363e-05,-6.217514510353794e-06,2.904922666857601e-06,-3.124327486148104e-05,5.441295070340857e-05
-4.067853296874091e-05,9.655040230427403e-06,3.952672614104813e-06,-3.105760697508231e-05,5.761134889326058e-05
-4.5566674089059234e-05,1.4787450709263794e-05,8.959696970123332e-06,-2.8190319426357746e-05,5.928874816163443e-05
-4.294904283597134e-05,1.997495382966008e-05,1.1857732715725433e-05,-2.2574877220904455e-05,5.8748741139424965e-05
-3.157838364131749e-05,2.8381437005009502e-05,7.970807018864434e-06,-1.530480949440971e-05,5.826192500535399e-05
-2.2921931304153986e-05,3.0924926250008866e-05,-7.331788083320134e-07,-5.640702511300333e-06,6.0204900364624336e-05
-2.0241628590156324e-05,2.6476356651983224e-05,-7.1651643338555004e-06,6.084824235585984e-06,6.498005677713081e-05
-1.829717257351149e-05,2.273765130667016e-05,-9.872745067696087e-06,1.6487701941514388e-05,6.702055543428287e-05
-1.914513086376246e-05,2.1510864826268516e-05,-1.1066662409575656e-05,2.235860847576987e-05,6.302706606220454e-05
-1.8051372535410337e-05,1.8788543457048945e-05,-8.660857020004187e-06,2.1689003915525973e-05,5.75805279368069e-05
-2.1486106561496854e-05,1.9647713997983374e-05,-4.1912471715477295e-06,1.2646993127418682e-05,5.4647262004436925e-05
-3.882985038217157e-05,2.8704400392598473e-05,-4.768395456267172e-07,2.3522109131590696e-06,5.46598676010035e-05
-6.323782145045698e-05,4.2577532440191135e-05,4.827102770832425e-07,-4.5775200305797625e-06,5.402072565630078e-05
-7.62623967602849e-05,5.7081877457676455e-05,-1.797443019313505e-06,-1.3369274711294565e-05,5.229203452472575e-05
-7.355212437687442e-05,6.891685916343704e-05,-6.4771865027069e-07,-1.939575668075122e-05,5.078924368717708e-05
-6.389571353793144e-05,7.24830970284529e-05,2.744792254816275e-06,-1.793607953004539e-05,5.0530783482827246e-05
-5.7537417887942865e-05,6.954794662306085e-05,4.759274361276766e-06,-1.330841587332543e-05,5.187814895180054e-05
-6.164118531160057e-05,6.34227180853486e-05,8.191499546228442e-06,-8.072142918535974e-06,5.345996396499686e-05
-6.532040424644947e-05,5.7239278248744085e-05,1.2957062608620618e-05,-4.1408043216506485e-06,5.4055199143476784e-05
-6.254879554035142e-05,5.141672590980306e-05,1.777324541762937e-05,-9.201152693094627e-07,5.531456190510653e-05
-5.796321056550369e-05,3.895230111083947e-05,2.1992162146489136e-05,4.4393655116437e-06,5.824193067383021e-05
-5.561740545090288e-05,1.470946881454438e-05,2.3187627448351122e-05,6.599194875889225e-06,5.936079833190888e-05
-5.5367130698869005e-05,-1.1452804756117985e-05,1.3862538253306411e-05,-5.617273927782662e-06,5.9111091104568914e-05
-5.283867722027935e-05,-1.973744474526029e-05,-2.1517168988793856e-06,-3.3260184864047915e-05,6.045935151632875e-05
-4.420790355652571e-05,-1.3290470633364748e-05,-1.223209073941689e-05,-7.144275878090411e-05,6.147146632429212e-05
-3.1028339435579255e-05,-1.430940847058082e-05,-1.3812496945320163e-05,-0.00011370916035957634,6.1015660321572796e-05
-1.758214784786105e-05,-2.8981612558709458e-05,-1.5076788258738816e-05,-0.00014332978753373027,5.917398084420711e-05
-1.0800994459714275e-05,-3.369320256751962e-05,-2.098847289744299e-05,-0.00014920750982128084,5.504442015080713e-05
-1.0753555216069799e-05,-1.6589267033850774e-05,-2.9411834475467913e-05,-0.00014048852608539164,5.043665078119375e-05
-1.1308773537166417e-05,5.617407168756472e-06,-3.414440652704798e-05,-0.00012294719635974616,4.8014771891757846e-05
-1.15958346214029e-05,2.018836312345229e-05,-3.28231108142063e-05,-8.812670421320945e-05,4.812293263967149e-05
-6.716516054439126e-06,2.8935210139025003e-05,-2.430534368613735e-05,-3.705267226905562e-05,4.917066326015629e-05
2.8274366741243284e-06,3.5543253034120426e-05,-9.621569006412756e-06,1.9739976778510027e-05,5.157585474080406e-05
1.3144762078809435e-06,3.93541922676377e-05,6.075077180867083e-06,7.194154022727162e-05,5.3361734899226576e-05
-8.247113328252453e-06,2.1416473828139715e-05,2.4291222871397622e-05,0.00012281483213882893,5.2526684157783166e-05
-6.9301040639402345e-06,-1.998982043005526e-05,4.2105715692741796e-05,0.00016304802556987852,5.5553853599121794e-05
1.7906361335917609e-06,-4.579640881274827e-05,5.6333024986088276e-05,0.00017592412768863142,6.281055539147928e-05
6.465291335189249e-06,-3.74091396224685e-05,6.396511889761314e-05,0.00016826711362227798,6.585810479009524e-05
5.632987722492544e-06,-2.7888803742825985e-05,6.23437445028685e-05,0.00015048951900098473,6.512352410936728e-05
2.253376806038432e-06,-3.3249853004235774e-05,5.834418334416114e-05,0.00012857234105467796,6.470886728493497e-05
-1.881070488707337e-06,-2.6532525225775316e-05,5.4667489166604355e-05,9.746626164996997e-05,6.641609797952697e-05
-1.0587767064862419e-05,2.1811972601426532e-06,4.8702979256631806e-05,6.22967563685961e-05,6.958038284210488e-05
-2.5358131097164005e-05,3.1065290386322886e-05,3.985932926298119e-05,3.0335788324009627e-05,6.992869020905346e-05
-4.22516641265247e-05,4.1462877561571077e-05,2.8748168915626593e-05,7.255793207150418e-06,6.727500294800848e-05
-5.285071165417321e-05,4.0388567867921665e-05,1.8600003386382014e-05,-4.76511422675685e-06,6.561222835443914e-05
-5.192058233660646e-05,4.340033046901226e-05,1.2486490049923304e-05,-9.890128239931073e-06,6.44103201921098e-05
-4.32182387157809e-05,5.634635090245865e-05,1.1231279131607153e-05,-1.1939608157263137e-05,6.362563726725057e-05
-3.3670621633064e-05,7.149703742470592e-05,1.1895539500983432e-05,-1.5132558473851532e-05,6.464232137659565e-05
-2.9268470825627446e-05,7.607634324813262e-05,1.1392559827072546e-05,-1.8018956325249746e-05,6.444587779697031e-05
-2.9022618036833592e-05,6.795797526137903e-05,9.415688509761821e-06,-1.9868681192747317e-05,6.143574137240648e-05
-2.7406807930674404e-05,5.898312883800827e-05,7.76250999479089e-06,-2.149701504094992e-05,6.0166035837028176e-05
-2.2910822735866532e-05,6.108058005338535e-05,8.537813300790731e-06,-2.3521914044977166e-05,6.162672070786357e-05
-1.6991800293908454e-05,6.82323079672642e-05,9.354071153211407e-06,-2.3893251636764035e-05,6.48726781946607e-05
-1.0117751116922591e-05,6.617884355364367e-05,5.703688202629564e-06,-2.3783919459674507e-05,6.695846968796104e-05
-7.739940883766394e-06,5.342806616681628e-05,9.313995974480349e-07,-2.42488385993056e-05,6.470045627793297e-05
-1.4669221855001524e-05,4.267170515959151e-05,1.0784295909616048e-06,-2.5161985831800848e-05,6.137293530628085e-05
-2.3117650925996713e-05,4.502592491917312e-05,2.178269596697646e-06,-2.4989592930069193e-05,6.019292050041258e-05
-2.5163029931718484e-05,5.518447869690135e-05,6.767856461920019e-07,-2.652639159350656e-05,6.113750714575872e-05
-2.68563671852462e-05,5.941739436821081e-05,-2.6225770852761343e-06,-3.216356344637461e-05,6.179751653689891e-05
-3.29263239109423e-05,5.734763908549212e-05,-7.56395729695214e-06,-4.027710747322999e-05,6.237313209567219e-05
-4.0671620809007436e-05,5.557942859013565e-05,-7.542630555690266e-06,-4.372406692709774e-05,6.218322232598439e-05
-4.526375778368674e-05,5.121194772073068e-05,-1.4638081893281196e-06,-3.86848441848997e-05,5.859312659595162e-05
-4.841037298319861e-05,4.637455640477128e-05,-6.162936188047752e-07,-3.094278508797288e-05,5.431830504676327e-05
-4.8054145736387e-05,4.6634915634058416e-05,-4.528400495473761e-06,-3.013334389834199e-05,5.5292151955654845e-05
-3.791991912294179e-05,4.774033004650846e-05,-6.703621238557389e-06,-3.3690106647554785e-05,5.9800797316711396e-05
-2.4371600375161506e-05,4.5826709538232535e-05,-9.32083094085101e-06,-3.209575515938923e-05,6.053080505807884e-05
-1.633171814319212e-05,4.9207068514078856e-05,-1.4007976460561622e-05,-3.116177686024457e-05,5.7479814131511375e-05
-1.3156486602383666e-05,5.710533514502458e-05,-1.5670630091335624e-05,-3.539114186423831e-05,5.760325802839361e-05
-1.1216499842703342e-05,6.35726100881584e-05,-1.0785626727738418e-05,-3.6630797694670036e-05,6.031316297594458e-05
-9.993041203415487e-06,6.866832700325176e-05,-9.046936355616708e-08,-3.3070034987758845e-05,6.211943400558084e-05
-1.2712523130176123e-05,7.148705481085926e-05,1.2513349247456063e-05,-2.692879206733778e-05,6.299673259491101e-05
-2.3187229089671746e-05,6.681336526526138e-05,1.7908763766172342e-05,-1.9667661035782658e-05,6.421175203286111e-05
-2.992005829582922e-05,4.357993384473957e-05,1.5170942788245156e-05,-1.4568874576070812e-05,6.496415880974382e-05
-2.8477572413976304e-05,9.549473361403216e-06,1.0804848898260389e-05,-1.1588269444473553e-05,6.559806934092194e-05
-2.6752597477752715e-05,-1.0022655260399915e-05,1.0253779691993259e-05,-8.809443897916935e-06,6.793518696213141e-05
-3.238359931856394e-05,-6.667156867479207e-06,1.3396676877164282e-05,-2.963119868581998e-06,6.956337165320292e-05
-4.149912638240494e-05,2.041634616034571e-06,1.674224404268898e-05,4.355114015197614e-06,6.786522135371342e-05
-4.800379974767566e-05,3.4426816455379594e-06,1.6691014025127515e-05,7.003352493484272e-06,6.37962730252184e-05
-5.3932722948957235e-05,-3.6874985198664945e-07,1.075010823115008e-05,2.6949339826387586e-06,5.796138066216372e-05
-5.447722287499346e-05,-2.336871148145292e-06,3.178411589033203e-06,-3.951668531954056e-06,5.426808638731018e-05
-4.138435178902e-05,2.8057311283191666e-06,-8.632769095129333e-07,-8.753911970416084e-06,5.517181125469506e-05
-2.5231447580154054e-05,1.1387311133148614e-05,-1.2189484550617635e-06,-1.0714190466387663e-05,5.7836619816953316e-05
-2.0281448087189347e-05,1.873207111202646e-05,1.064927232619084e-06,-9.821173989621457e-06,6.203362863743678e-05
-2.156303344236221e-05,3.0732688173884526e-05,5.732211775466567e-06,-7.647883649042342e-06,6.232975283637643e-05
-2.1576484869001433e-05,4.4993710616836324e-05,1.0639449101290666e-05,-7.125928732421016e-06,5.5772834457457066e-05
-1.832318230299279e-05,5.007479921914637e-05,1.0587230462988373e-05,-7.5149446274735965e-06,5.348636113922112e-05
-1.8280867152498104e-05,4.806038487004116e-05,8.395362783630844e-06,-9.473057616560254e-06,5.790681461803615e-05
-2.2674206775263883e-05,5.232748662820086e-05,9.632254659663886e-06,-1.3082278201181907e-05,5.946841702098027e-05
-3.219306381652132e-05,4.651048220694065e-05,1.0115381883224472e-05,-1.5154362699831836e-05,5.593052992480807e-05
-3.743624984053895e-05,2.117129770340398e-05,9.198911357088946e-06,-1.0646903319866396e-05,5.465678623295389e-05
-3.0326840715133585e-05,1.62928754434688e-05,8.991105460154358e-06,-4.369666839920683e-06,6.098125595599413e-05
-2.186428173445165e-05,3.307706720079295e-05,8.354235433216672e-06,-4.073019681527512e-06,6.76511408528313e-05
-2.1695785108022392e-05,4.308122879592702e-05,5.23144262842834e-06,-6.736397608619882e-06,6.906247290316969e-05
-2.5673589334473945e-05,4.2831954488065094e-05,2.7606629373622127e-06,-6.792626209062291e-06,6.65138941258192e-05
-2.6728470402304083e-05,4.309480937081389e-05,8.132402626870316e-07,-4.647431524062995e-06,6.72974856570363e-05
-2.773424239421729e-05,4.63720498373732e-05,3.709186202627279e-08,-5.085111752123339e-06,6.83569596731104e-05
-3.148600444546901e-05,4.6105462388368323e-05,5.353663254936691e-06,-8.225944839068688e-06,6.392186332959682e-05
-3.6431469197850674e-05,4.1963376133935526e-05,1.0895606465055607e-05,-1.1746345080609899e-05,5.670741302310489e-05
-4.117430216865614e-05,3.898737486451864e-05,9.855759344645776e-06,-1.7461934476159513e-05,5.212499308981933e-05
-4.732422894448973e-05,3.6417608498595655e-05,2.7008923098037485e-06,-2.556770050432533e-05,5.19680543220602e-05
-5.453145058709197e-05,3.322240081615746e-05,-6.221469902811805e-06,-2.8563967134687118e-05,5.2139817853458226e-05
-5.623068500426598e-05,3.344447395647876e-05,-1.236887419509003e-05,-2.6048379368148744e-05,5.358191629056819e-05
-4.381060352898203e-05,3.599408228183165e-05,-1.5112157598196063e-05,-2.5425379135413095e-05,5.6423352361889556e-05
-2.1935085896984674e-05,3.7693727790610865e-05,-1.597416849108413e-05,-3.555574221536517e-05,5.937373134656809e-05
-3.2933778584265383e-06,4.100296791875735e-05,-1.5326681022997946e-05,-5.8300294767832384e-05,6.0858721553813666e-05
5.323937330103945e-06,4.8340418288717046e-05,-1.3407076949079055e-05,-7.878275937400758e-05,6.033661338733509e-05
6.656181085418211e-06,5.457791849039495e-05,-9.667882295616437e-06,-8.09153207228519e-05,6.048130671842955e-05
4.776334208145272e-06,5.9979265643050894e-05,-4.627033376891632e-06,-6.460137956310064e-05,6.117523298598826e-05
7.426014576594753e-07,7.063286466291174e-05,-6.8294315269668e-07,-4.194050416117534e-05,6.058557846699841e-05
-3.5730145100387745e-06,9.137620509136468e-05,3.4093409340130165e-07,-2.042698542936705e-05,5.973433144390583e-05
-5.814662017655792e-06,0.00011203024041606113,1.954309254870168e-06,2.1470671072165715e-06,6.175250746309757e-05
-6.649979695794173e-06,0.00011885967978741974,6.693258910672739e-06,2.6664865799830295e-05,6.594764272449538e-05
-8.90668343345169e-06,0.00010712396760936826,1.1672405889839865e-05,4.2717234464362264e-05,6.728110747644678e-05
-9.928490726451855e-06,7.976030610734597e-05,1.6763453459134325e-05,4.679113408201374e-05,6.369926268234849e-05
-1.0822252079378814e-05,4.320092193665914e-05,2.2417842046706937e-05,4.310998701839708e-05,5.825230618938804e-05
-2.2776242985855788e-05,1.8708982452153577e-06,2.4898654373828322e-05,3.616260801209137e-05,5.61905799258966e-05
-3.924754855688661e-05,-3.3670730772428215e-05,2.2030368199921213e-05,3.1828491046326235e-05,5.541090285987593e-05
-4.4655927922576666e-05,-6.451450462918729e-05,1.8485197870177217e-05,2.397715434199199e-05,5.485328802024014e-05
-3.9066489989636466e-05,-8.92133466550149e-05,1.6283223885693587e-05,6.545403721247567e-06,5.4411353630712256e-05
-2.9496695788111538e-05,-0.0001124414848163724,1.2674546269408893e-05,-1.6830459571792744e-05,5.438353764475323e-05
-2.5405279302503914e-05,-0.00015227303083520383,7.577357791888062e-06,-3.338546957820654e-05,5.4863241530256346e-05
-2.397230127826333e-05,-0.00019149256695527583,1.771351890056394e-06,-3.8766800571465865e-05,5.39644606760703e-05
-1.9344024622114375e-05,-0.0001915161410579458,-1.449289243282692e-06,-3.601704156608321e-05,5.155851977178827e-05
-7.79205311118858e-06,-0.0001455937890568748,-2.3780974061082816e-06,-3.098497472819872e-05,5.0227852625539526e-05
4.194942448521033e-06,-7.555300544481725e-05,-3.5156099329469725e-06,-2.8424223273759708e-05,5.1774131861748174e-05
7.817412551958114e-06,-6.084343567636097e-06,-4.199311206320999e-06,-2.745655001490377e-05,5.400655572884716e-05
4.023938799946336e-06,3.2010648283176124e-05,-5.57229395781178e-06,-2.8927079256391153e-05,5.1826104026986286e-05
-3.9557307900395244e-06,3.29213471559342e-05,-6.5713834374037106e-06,-3.0713737942278385e-05,4.652992356568575e-05
-1.0091907824971713e-05,1.9140188669553027e-05,-3.684951252580504e-06,-2.5087039830395952e-05,4.508213169174269e-05
-1.426982635166496e-05,1.4267659935285337e-05,1.8302795297131524e-06,-1.3290714377944823e-05,4.85996097268071e-05
-1.9096692994935438e-05,1.7715054127620533e-05,4.861959951085737e-06,-7.735918188700452e-06,5.6099794164765626e-05
-2.590199619589839e-05,1.9693314243340865e-05,5.10067638970213e-06,-8.884805538400542e-06,6.554854189744219e-05
-3.301362448837608e-05,2.4082175514195114e-05,6.264464445848716e-06,-5.395519110606983e-06,7.100288348738104e-05
-3.874389221891761e-05,3.618260961957276e-05,7.507761438318994e-06,6.917417067597853e-06,6.702972314087674e-05
-4.197733505861834e-05,4.8907892050920054e-05,6.339466381177772e-06,1.840242293837946e-05,5.6557448260718957e-05
-4.108171197003685e-05,5.536877870326862e-05,4.254052328178659e-06,2.122572186635807e-05,4.884623194811866e-05
-3.254559851484373e-05,6.019656211719848e-05,5.038470135332318e-06,2.084606785501819e-05,5.142615918884985e-05
-1.756169331201818e-05,6.649401620961726e-05,8.85984263732098e-06,2.273406062158756e-05,5.710013647330925e-05
-7.732809535809793e-06,6.815106462454423e-05,1.0804904377437197e-05,1.9991326553281397e-05,5.9743233578046784e-05
-1.6025695003918372e-05,6.098363519413397e-05,8.653069926367607e-06,9.251057235815097e-06,5.8526504290057346e-05
-3.938586814911105e-05,5.754544326919131e-05,2.588556526461616e-06,-5.0994572120544035e-06,5.345246972865425e-05
-6.0383179516065866e-05,6.039798608981073e-05,-2.8429362828319427e-06,-1.5276780686690472e-05,4.894171797786839e-05
-6.779081741115078e-05,5.9351110394345596e-05,-4.0369864109379705e-06,-2.8834669137722813e-05,4.6442204620689154e-05
-6.450576620409265e-05,4.8281279305228963e-05,-5.954980679234723e-06,-4.887163231614977e-05,4.816137516172603e-05
-5.454953861772083e-05,4.041266947751865e-05,-1.0373884833825286e-05,-6.221023795660585e-05,5.274901559459977e-05
-4.582141264108941e-05,4.208500831737183e-05,-1.2861992217949592e-05,-6.341497646644711e-05,5.509625407285057e-05
-4.674333831644617e-05,4.672021168516949e-05,-1.1599315257626586e-05,-5.549862180487253e-05,5.468261588248424e-05
-5.1984032324980944e-05,4.900404383079149e-05,-9.527382644591853e-06,-4.546630225377157e-05,5.451333345263265e-05
-5.284351573209278e-05,4.548918150248937e-05,-9.487233910476789e-06,-2.9031049052719027e-05,5.5721098760841414e-05
-4.5804856199538335e-05,4.422441270435229e-05,-8.94635286385892e-06,-4.491032996156719e-06,5.478283856064081e-05
-3.5250606742920354e-05,5.271619011182338e-05,-5.036754828324774e-06,1.8549044398241676e-05,5.434214472188614e-05
-2.6841251383302733e-05,6.810259219491854e-05,-7.841962315069395e-07,3.2993953936966136e-05,5.7523182476870716e-05
-2.2104419258539565e-05,7.779317820677534e-05,-3.857266150930627e-08,3.9500853745266795e-05,6.290417513810098e-05
-1.8610808183439076e-05,7.65649092500098e-05,4.779139999300241e-07,4.098839053767733e-05,6.573802238563076e-05
-1.3834314813720994e-05,7.178734085755423e-05,7.326974355237326e-06,3.882512100972235e-05,6.169414700707421e-05
-1.3485169802152086e-05,6.887046038173139e-05,1.8036067558568902e-05,3.381765782251023e-05,5.630368832498789e-05
-2.082340324705001e-05,5.9600777603918687e-05,2.4609898900962435e-05,2.6035022528958507e-05,5.504792352439836e-05
-2.8719488909700885e-05,2.939922342193313e-05,2.3951311959535815e-05,1.4473394003289286e-05,5.6184770073741674e-05
-3.06251531583257e-05,-5.556613814405864e-06,2.1045407265773974e-05,-4.686202714765386e-07,5.6510678405174986e-05
-3.0234396035666578e-05,-9.17739907890791e-06,2.2739357518730685e-05,-1.2067001989635173e-05,5.597861672868021e-05
-3.599136834964156e-05,1.6688607502146624e-05,2.6082356271217577e-05,-1.6771919035818428e-05,5.354323729989119e-05
-4.404114588396624e-05,4.051474024890922e-05,2.4933606255217455e-05,-1.8793032722896896e-05,5.068603786639869e-05
-4.0600956708658487e-05,4.9396607209928334e-05,2.208386104030069e-05,-2.3133958165999502e-05,5.0278616981813684e-05
-2.5298653781646863e-05,5.0487116823205724e-05,2.0467832655413076e-05,-2.925596527347807e-05,5.354966197046451e-05
-1.4298740097729024e-05,4.820471440325491e-05,1.944502400874626e-05,-3.2728301448514685e-05,5.590713408309966e-05
-1.5210496712825261e-05,4.479448762140237e-05,1.827303276513703e-05,-3.365088196005672e-05,5.4841650126036257e-05
-1.931342740135733e-05,4.843135684495792e-05,1.953269020305015e-05,-3.226233820896596e-05,5.539553603739478e-05
-2.2110139980213717e-05,5.338648770703003e-05,2.1160567484912463e-05,-2.7655640224111266e-05,5.9581667301245034e-05
-2.9368615287239663e-05,5.274274735711515e-05,1.865220292529557e-05,-2.7105184926767834e-05,6.395341915776953e-05
-4.5575641706818715e-05,5.1236955187050626e-05,1.5710342267993838e-05,-3.247994027333334e-05,6.426264008041471e-05
-6.154331640573218e-05,4.50407897005789e-05,1.02453368526767e-05,-3.297877265140414e-05,6.15047974861227e-05
-6.432821828639135e-05,2.6849027563002892e-05,4.376310698717134e-06,-2.7970179871772416e-05,5.6610751926200464e-05
-5.5922981118783355e-05,-9.572234375809785e-06,3.5367486361792544e-06,-2.2328124032355845e-05,5.5622487707296386e-05
-4.2228253732901067e-05,-4.202206037007272e-05,5.286311534291599e-06,-1.4213262147677597e-05,5.95757010160014e-05
-2.9189061024226248e-05,-4.527379496721551e-05,4.8383585635747295e-06,-6.930135441507446e-06,6.121044134488329e-05
-1.381514721288113e-05,-1.64138382388046e-05,-1.603255554982752e-06,-5.282010988594266e-06,6.12105504842475e-05
2.149673150597664e-08,3.528500747052021e-05,-9.241477528121322e-06,-7.147362339310348e-06,5.916349618928507e-05
7.3341443567187525e-06,7.983415707712993e-05,-1.2057954336341936e-05,-1.0562629540800117e-05,5.6514119933126494e-05
7.698344234086107e-06,0.00010096141340909526,-1.1850602277263533e-05,-1.2382809472910594e-05,5.5557742598466575e-05
2.6437323867867235e-06,9.909330401569605e-05,-1.1384372555767186e-05,-1.4152415133139584e-05,5.499667895492166e-05
-6.905164013915055e-07,7.464542431989685e-05,-1.1940821423195302e-05,-1.796025753719732e-05,5.405015326687135e-05
-8.90678074938478e-06,3.3831245673354715e-05,-1.3864356333215255e-05,-2.3895923732197843e-05,5.398490611696616e-05
-2.4624350771773607e-05,-5.370515282265842e-06,-1.4844006727798842e-05,-3.1589170248480514e-05,5.683271592715755e-05
-4.111803355044685e-05,-2.9117287340341136e-05,-1.121544210036518e-05,-3.4599663194967434e-05,6.130172550911084e-05
-4.789866216015071e-05,-4.214055297779851e-05,-3.308630994069972e-06,-3.119360189884901e-05,6.613056757487357e-05
-4.586275099427439e-05,-5.186599446460605e-05,4.701270427176496e-06,-2.5584853574400768e-05,6.996223964961246e-05
-4.416986121213995e-05,-5.0980557716684416e-05,6.77749221722479e-06,-2.5410396119696088e-05,7.131064921850339e-05
-4.6225697587942705e-05,-2.9484279366442934e-05,1.588626105331059e-06,-3.166882379446179e-05,7.088403071975335e-05
-4.688746412284672e-05,1.2855565501013189e-06,-3.1618812954548048e-06,-3.913266846211627e-05,6.853338709333912e-05
-4.4715008698403835e-05,2.4436878447886556e-05,-2.755568630163907e-06,-4.534856270765886e-05,6.439160642912611e-05
-4.2544059397187084e-05,4.4083692046115175e-05,-3.1303118248615647e-06,-5.165147013030946e-05,6.158176256576553e-05
-4.212060957797803e-05,6.992877024458721e-05,-5.098645942780422e-06,-5.1759168854914606e-05,6.286497955443338e-05
-4.026145688840188e-05,8.93938122317195e-05,-4.174040896032238e-06,-4.2441908590262756e-05,6.49269568384625e-05
-3.4494147257646546e-05,9.29508387343958e-05,1.8092283653459162e-06,-2.4774533812887967e-05,6.272273458307609e-05
-2.7734959076042287e-05,8.997879194794223e-05,1.3661954653798603e-05,1.653622916819586e-06,5.446965587907471e-05
-2.1422112695290707e-05,8.402909588767216e-05,2.445968857500702e-05,2.8524620574899018e-05,4.6209635911509395e-05
-1.4599783753510565e-05,6.16347388131544e-05,3.03777378576342e-05,5.4665339121129364e-05,4.895263191428967e-05
-3.1009465146780713e-06,2.3946362489368767e-05,3.180711792083457e-05,7.342536264332011e-05,5.8882473240373656e-05
8.128237823257223e-06,-1.4799425116507336e-05,3.084328636759892e-05,7.807608926668763e-05,6.471567030530423e-05
1.1279847058176529e-05,-3.392887447262183e-05,2.7852418497786857e-05,6.941321771591902e-05,6.434669194277376e-05
5.873257123312214e-06,-1.8651257050805725e-05,2.3813277948647738e-05,5.2153980504954234e-05,6.329321331577376e-05
-5.529270765691763e-06,1.0841339644684922e-05,1.9130744476569816e-05,3.20348481182009e-05,6.311300967354327e-05
-2.4660745111759752e-05,3.3639083994785324e-05,1.4000533155922312e-05,1.0496217328181956e-05,6.109209061833099e-05
-4.283016824047081e-05,4.85664168081712e-05,1.014539611787768e-05,-3.8123059766803635e-06,5.651172614307143e-05
-4.880603955825791e-05,6.896878039697185e-05,8.39586846268503e-06,-8.891169272828847e-06,5.3763087635161355e-05
-4.388501838548109e-05,8.943753346102312e-05,5.583811343967682e-06,-2.0102172129554674e-05,5.498034443007782e-05
-3.471858872217126e-05,9.251814481103793e-05,-1.896983121696394e-06,-5.230336682870984e-05,5.644550401484594e-05
-2.717827919695992e-05,7.776389247737825e-05,-8.853772669681348e-06,-9.24862251849845e-05,5.7247485528932884e-05
-2.1052877855254337e-05,5.782239531981759e-05,-8.360660103789996e-06,-0.0001142046894528903,6.125366780906916e-05
-8.396698831347749e-06,4.680646088672802e-05,-2.221672048108303e-06,-0.00010899526387220249,6.962272163946182e-05
5.468668405228527e-06,4.3193063902435824e-05,2.3048689854476834e-06,-8.520852134097368e-05,7.49691971577704e-05
8.162167432601564e-06,3.6304765671957284e-05,3.9016945265757386e-06,-5.148378841113299e-05,7.20134048606269e-05
-4.404660103318747e-07,2.1789828679175116e-05,5.567480911849998e-06,-1.0106204172188882e-05,6.538801972055808e-05
-1.1451677892182488e-05,6.55792746329098e-06,7.882968020567205e-06,3.5559714888222516e-05,6.207256228663027e-05
-1.7832795492722653e-05,-1.4382646895683138e-06,9.396741006639786e-06,7.304346945602447e-05,6.223221134860069e-05
-2.1622183339786716e-05,-2.763445081654936e-06,1.156823054770939e-05,9.194063022732735e-05,6.21356739429757e-05
-2.5404988264199346e-05,-7.5611660577123985e-06,1.6013016647775657e-05,9.643893281463534e-05,6.146674422780052e-05
-2.9876588087063283e-05,-1.161704130936414e-05,2.0444218534976244e-05,9.197610052069649e-05,6.0776412283303216e-05
-3.379198824404739e-05,7.676950417589978e-07,2.101670361298602e-05,8.087213791441172e-05,6.013341044308618e-05
-3.3900945709319785e-05,3.081268732785247e-05,1.9015207726624794e-05,6.456794653786346e-05,6.0663471231237054e-05
-2.7760721422964707e-05,5.804130341857672e-05,1.2502139725256711e-05,4.40426156274043e-05,6.004709211993031e-05
-1.818619239202235e-05,5.756114114774391e-05,-9.170132386771002e-08,1.8845459635485895e-05,5.882651385036297e-05
-1.2459844583645463e-05,2.8888087399536744e-05,-1.5205888303171378e-05,-5.560854788200231e-06,5.868282460141927e-05
-1.2964432244189084e-05,-6.024955837347079e-06,-2.267391755594872e-05,-2.0096864318475127e-05,5.6788179790601134e-05
-1.5686830010963604e-05,-1.593969136592932e-05,-1.875024645414669e-05,-2.4183775167330168e-05,5.219988088356331e-05
-2.1152085537323728e-05,-1.0972768905048724e-05,-1.216932105307933e-05,-2.6435716790729202e-05,4.744896796182729e-05
-2.1797106455778703e-05,-1.0934027159237303e-05,-9.910419066727627e-06,-2.964304803754203e-05,4.841275585931726e-05
-1.8758713849820197e-05,-1.4459153135248926e-05,-8.840988812153228e-06,-3.2483087125001475e-05,5.3992429457139224e-05
-1.7897367797559127e-05,-2.0495583157753572e-05,-4.658598754758714e-06,-3.861354343825951e-05,5.559817509492859e-05
-1.9510182028170675e-05,-1.2612172213266604e-05,-8.737228540667275e-08,-4.7182886191876605e-05,5.27950469404459e-05
-2.5207220460288227e-05,1.1641560377029236e-05,3.252614533266751e-06,-5.1020524551859125e-05,5.112245708005503e-05
-3.613833905546926e-05,4.241833812557161e-05,5.1826118578901514e-06,-4.428467946127057e-05,5.437689833343029e-05
-5.1347760745557025e-05,6.238472269615158e-05,1.1177085070812609e-05,-3.298435694887303e-05,5.842284735990688e-05
-5.980408604955301e-05,6.58734206808731e-05,1.6360561858164147e-05,-2.0200730432407e-05,5.997431799187325e-05
-5.534780939342454e-05,5.786870315205306e-05,1.9116749172098935e-05,-9.909478649205994e-06,5.7667162764118984e-05
-4.2277864849893376e-05,4.318783976486884e-05,2.040240724454634e-05,-6.968231446080608e-06,5.266057269182056e-05
-3.265353007009253e-05,1.8084319890476763e-05,1.6631187463644892e-05,-1.151846481661778e-05,4.7581172111677006e-05
-3.0433820938924327e-05,-1.2898992281407118e-05,1.0618063242873177e-05,-1.4455599739449099e-05,4.3373242078814656e-05
-3.370106787770055e-05,-2.8690859835478477e-05,8.179019459930714e-06,-9.043679710885044e-06,4.135676135774702e-05
-3.55211814166978e-05,-1.8264852769789286e-05,8.031264769670088e-06,6.603689257644874e-07,4.332347816671245e-05
-3.166238820995204e-05,7.927742444735486e-06,5.168023562873714e-06,7.70328551880084e-06,4.64173499494791e-05
-2.331167706870474e-05,3.083135743509047e-05,3.5742061754717724e-06,6.48435934635927e-06,4.892292054137215e-05
-1.4161832041281741e-05,4.026029637316242e-05,5.046441401646007e-06,-3.207851932529593e-06,5.2979736210545525e-05
-8.15199837234104e-06,3.122033012914471e-05,7.174057373049436e-06,-1.385494579153601e-05,5.744513327954337e-05
-6.411743015632965e-06,1.0743767234089319e-05,9.007798325910699e-06,-1.7923905033967458e-05,6.0057333030272275e-05
-8.748875188757665e-06,-1.0871207450691145e-05,1.112888003262924e-05,-1.9558598069124855e-05,5.9697526012314484e-05
-1.0921461580437608e-05,-2.4187391318264417e-05,1.1263856322329957e-05,-2.1560079403570853e-05,6.0053942434024066e-05
-9.231183867086656e-06,-8.005396921362262e-06,8.269100362667814e-06,-2.15358904824825e-05,6.409736670320854e-05
-6.916450274729868e-06,3.68688561138697e-05,6.123237653810065e-06,-1.6618016161373816e-05,6.936802674317732e-05
-1.4655983250122517e-05,6.879554712213576e-05,8.776460163062438e-06,-1.2563700693135615e-05,7.021866622380912e-05
-2.5914559955708683e-05,7.160418317653239e-05,9.886935004033148e-06,-1.0575012311164755e-05,6.494189437944442e-05
-2.8978516638744622e-05,6.26600522082299e-05,7.3915007305913605e-06,-8.605207767686807e-06,5.955246524536051e-05
-2.2307305698632263e-05,5.8727189752971753e-05,5.266116204438731e-06,-1.253943901247112e-05,5.7074961659964174e-05
-1.2484706530813128e-05,5.554599192691967e-05,3.96230007027043e-06,-2.5124052626779303e-05,5.784329187008552e-05
-5.231413979345234e-06,4.5894506911281496e-05,4.10600887335022e-06,-4.0378410631092265e-05,6.192851287778467e-05
-4.129633907723473e-06,1.902867734315805e-05,3.3082899335568072e-06,-5.237763616605662e-05,5.931069244979881e-05
-7.001281574048335e-06,-8.32240857562283e-06,1.3574244803749025e-06,-5.552091897698119e-05,5.5353044444927946e-05
-8.524616532668006e-06,-5.294711172609823e-06,2.1906016911543702e-07,-5.264825449557975e-05,5.8222136431140825e-05
-1.219833120558178e-05,2.1243888113531284e-05,1.1669509376588394e-06,-4.565402923617512e-05,6.516410212498158e-05
-2.0172692529740743e-05,4.1134044295176864e-05,4.655599241232267e-06,-3.3360658562742174e-05,6.886479968670756e-05
-2.9612523576361127e-05,4.080730286659673e-05,6.01252668275265e-06,-2.2113719751359895e-05,6.85395862092264e-05
-3.5135421057930216e-05,3.0369948945008218e-05,3.841661509795813e-06,-1.531804991827812e-05,6.578924512723461e-05
-3.6757228372152895e-05,2.3436639821738936e-05,2.882139860105326e-08,-1.4223622201825492e-05,6.161627970868722e-05
-3.8269579818006605e-05,2.5874071070575155e-05,-1.513469214842189e-06,-1.6774425603216514e-05,5.890222018933855e-05
-4.1303326725028455e-05,3.0275288736447692e-05,1.5598637901348411e-06,-1.61065054271603e-05,5.661604882334359e-05
-4.557914871838875e-05,3.0330549634527415e-05,7.36622041586088e-06,-9.149580364464782e-06,5.472676639328711e-05
-5.107722608954646e-05,2.8474074497353286e-05,1.0059879059554078e-05,-1.907532805489609e-06,5.414339466369711e-05
-5.359111673897132e-05,2.934468830062542e-05,8.35474747873377e-06,-1.1161454267494264e-06,5.4177875426830724e-05
-4.907799302600324e-05,3.051637213502545e-05,5.044453700975282e-06,-5.847139618708752e-06,5.3637308155884966e-05
-4.1161198168992996e-05,3.1092811695998535e-05,2.0972249785700114e-06,-8.301835805468727e-06,5.2275139751145616e-05
-3.443320019869134e-05,3.395805833861232e-05,3.070495722568012e-06,-6.493772161775269e-06,4.891522621619515e-05
-2.9455128242261708e-05,4.012513818452135e-05,8.242442163464148e-06,-3.9006254155538045e-06,4.716880357591435e-05
-2.7018588298233226e-05,4.433395224623382e-05,1.4770306734135374e-05,-2.64069626609853e-06,4.731473745778203e-05
-2.4104814656311646e-05,4.530024671112187e-05,1.5223868103930727e-05,-2.2867452571517788e-06,4.873144280281849e-05
-1.641675225982908e-05,4.74746739200782e-05,1.1183264177816454e-05,-1.605555212336185e-06,5.340899951988831e-05
-1.0138689503946807e-05,5.1098119001835585e-05,7.214447578007821e-06,-5.047969580118661e-07,5.995937317493372e-05
-1.1575049029488582e-05,4.722949961433187e-05,4.423857262736419e-06,-1.1299056268399e-06,6.207687692949548e-05
-1.8545577404438518e-05,3.985406874562614e-05,7.74877207732061e-06,-3.817401193373371e-06,6.183650839375332e-05
-2.185141966037918e-05,3.907101563527249e-05,1.143469398812158e-05,-8.082372005446814e-06,6.199206109158695e-05
-1.8770302631310187e-05,4.536338383331895e-05,8.358231752936263e-06,-1.1492681551317219e-05,6.111758557381108e-05
-1.7599497368792072e-05,4.487932164920494e-05,5.156280167284422e-06,-1.3027551176492125e-05,6.0055270296288654e-05
-1.9700810298672877e-05,3.636437759269029e-05,4.398388227855321e-06,-1.5043678104120772e-05,6.018346539349295e-05
-1.7602047591935843e-05,3.458353239693679e-05,6.959342499612831e-06,-1.432135559298331e-05,5.978819535812363e-05
-1.1233404620725196e-05,3.87383479392156e-05,8.083778993750457e-06,-1.2253385648364201e-05,6.066833157092333e-05
-7.791075404384173e-06,4.229546175338328e-05,5.3650701374863274e-06,-1.2195672752568498e-05,6.287849828368053e-05
-1.0700993698264938e-05,4.563188849715516e-05,5.989861620037118e-06,-1.3243167813925538e-05,6.485677295131609e-05
-1.5030141184979584e-05,4.475322202779353e-05,7.545142580056563e-06,-1.5728248399682343e-05,6.357896199915558e-05
-2.4745773771428503e-05,3.214102252968587e-05,3.4886265893874224e-06,-1.9718430849025026e-05,5.99641352891922e-05
-3.533632479957305e-05,1.0396104698884301e-05,-4.372010607767152e-06,-2.1198628019192256e-05,5.9142297686776146e-05
-3.307717997813597e-05,-2.3422276171913836e-06,-1.128384883486433e-05,-1.642020833969582e-05,5.97198995819781e-05
-2.4328441213583574e-05,3.8066543766035466e-06,-1.697178595350124e-05,-9.878832315735053e-06,5.994294042466208e-05
-1.8930168153019622e-05,2.094468436553143e-05,-2.2179319785209373e-05,-8.159269782481715e-06,6.087391739129089e-05
-1.9614528355305083e-05,3.7010871892562136e-05,-2.448968189128209e-05,-1.1476401596155483e-05,6.263034447329119e-05
-2.3421725927619264e-05,4.315950718591921e-05,-2.124747152265627e-05,-1.5990506653906778e-05,6.222176307346672e-05
-3.171891512465663e-05,3.712970283231698e-05,-1.535291266918648e-05,-1.9356695702299476e-05,5.920134572079405e-05
-4.0517697925679386e-05,2.8553937227115966e-05,-1.0116965313500259e-05,-1.88398698810488e-05,5.644318662234582e-05
-4.569238080875948e-05,3.0835119105177e-05,-3.922895757568767e-06,-1.4564879165845923e-05,5.544859595829621e-05
-4.975909905624576e-05,3.557197851478122e-05,4.349866685515735e-06,-1.116881139751058e-05,5.500884435605258e-05
-5.341442010831088e-05,2.980714270961471e-05,1.408597563568037e-05,-1.1254118362558074e-05,5.8183682995149866e-05
-5.3802465117769316e-05,1.5553130651824176e-05,2.2211732357391156e-05,-1.216225246025715e-05,6.455632683355361e-05
-5.029516978538595e-05,-1.9162393982696813e-06,2.2579713913728483e-05,-1.094626531994436e-05,6.907794886501506e-05
-4.7131961764534935e-05,-2.0273628251743503e-05,1.6481611964991316e-05,-8.452691872662399e-06,6.750035390723497e-05
-4.485586396185681e-05,-3.510931855998933e-05,1.1880903912242502e-05,-5.218004844209645e-06,6.442666199291125e-05
-4.385982538224198e-05,-4.6909128286642954e-05,1.163680644822307e-05,-6.44522879156284e-06,6.69714791001752e-05
-4.4636213715421036e-05,-5.0899689085781574e-05,1.5003377484390512e-05,-8.130607056955341e-06,6.819179543526843e-05
-4.8266152589349076e-05,-3.6967765481676906e-05,1.6090891222120263e-05,-6.555412710440578e-06,6.666165427304804e-05
-5.186261478229426e-05,-8.605364200775512e-06,1.3110756299283821e-05,-7.93445451563457e-06,6.748707528458908e-05
-4.840047040488571e-05,2.0358867914183065e-05,1.2417468497005757e-05,-7.311765330086928e-06,6.487187783932313e-05
-3.812482827925123e-05,4.62887401226908e-05,1.4422008462133817e-05,-4.232822902849875e-06,6.237407797016203e-05
-2.875110112654511e-05,7.271908543771133e-05,1.7159003618871793e-05,-1.3006020083139447e-07,6.358073005685583e-05
-2.051767114608083e-05,9.92826244328171e-05,1.650146623433102e-05,7.382527655863669e-07,6.375183875206858e-05
-1.2911565136164427e-05,0.00011418016947573051,9.435652827960439e-06,-2.8477384148573037e-06,6.164224760141224e-05
-7.906714017735794e-06,0.00010779375588754192,2.239743707832531e-06,-4.429729415278416e-06,5.786873589386232e-05
-2.3822371986170765e-06,9.096950816456228e-05,2.3038778635964263e-06,-2.7895432594959857e-06,5.228187364991754e-05
2.542069751143572e-06,8.219144365284592e-05,5.936779416515492e-06,-1.6128440165630309e-06,4.92191975354217e-05
5.49063088328694e-06,8.331518620252609e-05,8.768045518081635e-06,-1.2335149222053587e-06,5.113084625918418e-05
3.253428531024838e-06,8.307714597322047e-05,7.036634087853599e-06,-2.0292316094128182e-06,5.33435886609368e-05
-2.449346766297822e-06,7.46965961297974e-05,2.9475431801984087e-06,-4.6698469304828905e-06,5.3437604947248474e-05
-9.773669262358453e-06,6.166927050799131e-05,4.492416792345466e-06,-6.17326668361784e-06,5.108207551529631e-05
-1.7138023395091295e-05,4.4851305574411526e-05,1.0154759365832433e-05,-8.253213309217244e-06,4.856900704908185e-05
-2.311906428076327e-05,1.7887898138724267e-05,1.3432049854600336e-05,-1.2401553249219432e-05,5.0211478082928807e-05
-2.9663617169717327e-05,-2.109680099238176e-05,1.1827622984128539e-05,-1.9103288650512695e-05,5.3301831940189004e-05
-3.4932039852719754e-05,-5.2319424867164344e-05,7.479894520656671e-06,-2.422747274977155e-05,5.247802982921712e-05
-3.289755841251463e-05,-5.153639358468354e-05,3.61931461156928e-06,-2.5465367798460647e-05,5.015991337131709e-05
-2.2586369595956057e-05,-2.477179077686742e-05,1.3734514823227073e-06,-2.2609436200582422e-05,5.026634244131856e-05
-1.1592459486564621e-05,5.14386510985787e-06,6.972906589908234e-07,-1.5932988389977254e-05,5.270177643978968e-05
-3.3416040423617233e-06,2.556679828558117e-05,1.5826221897441428e-06,-9.711958227853756e-06,5.7101206039078534e-05
-5.749902811658103e-07,3.480001032585278e-05,2.452706894473522e-06,-8.522354619344696e-06,6.031092198099941e-05
-5.835759566252818e-06,3.3062253351090476e-05,1.6324553371305228e-06,-9.506578862783499e-06,6.094604032114148e-05
-1.5613790310453624e-05,2.7364774723537266e-05,-3.960039521189174e-06,-8.286507181765046e-06,6.169521657284349e-05
-2.8399434086168185e-05,2.0173294615233317e-05,-1.0952458069368731e-05,-3.5000985008082353e-06,6.339799438137561e-05
-4.261336653144099e-05,1.0552948879194446e-05,-1.0653931894921698e-05,-4.042704404128017e-06,6.324099376797676e-05
-4.943472958984785e-05,7.0979826887196396e-06,-4.6064787966315635e-06,-8.302012247440871e-06,5.79673214815557e-05
-4.866329254582524e-05,1.6490106645505875e-05,2.897032800319721e-06,-5.410250196291599e-06,5.498438258655369e-05
-4.0461382013745606e-05,3.02976077364292e-05,7.533852567576105e-06,1.5025055972728296e-06,5.776471516583115e-05
-3.4383094316581264e-05,3.8654157833661884e-05,7.770169759169221e-06,2.7248352125752717e-06,6.05914719926659e-05
-3.386523530934937e-05,3.7202848034212366e-05,1.1742312381102238e-05,-7.314315553230699e-08,6.109360401751474e-05
-3.587672472349368e-05,3.467942588031292e-05,1.645622069190722e-05,2.320873591088457e-06,6.269621371757239e-05
-3.843762169708498e-05,3.733421181095764e-05,1.8723476387094706e-05,4.069305759912822e-06,6.141022458905354e-05
-3.904374534613453e-05,3.218539131921716e-05,1.8346767319599167e-05,1.5174462077993667e-06,5.6425324146403e-05
-4.148876541876234e-05,1.797668301151134e-05,1.6169420632650144e-05,-3.960985850426368e-06,5.162579327588901e-05
-4.390009053167887e-05,1.399680786562385e-05,1.4746375200047623e-05,-7.887091669545043e-06,5.250207323115319e-05
-3.973889397457242e-05,2.5693456336739473e-05,1.304174293181859e-05,-9.575690455676522e-06,5.8459219872020185e-05
-3.172034121234901e-05,4.1795905417529866e-05,9.999059329857118e-06,-1.0093782293552067e-05,6.314768688753247e-05
-3.1028790544951335e-05,5.241736289463006e-05,8.768926818447653e-06,-8.851308848534245e-06,6.650103023275733e-05
-3.681654925458133e-05,5.05094722029753e-05,1.3358167961996514e-05,-6.190584372234298e-06,6.824822776252404e-05
-4.409509710967541e-05,4.143943442613818e-05,1.9821283785859123e-05,-3.339838258398231e-06,6.824562296969816e-05
-5.094537482364103e-05,3.992335041402839e-05,2.0910125385853462e-05,-2.226196556875948e-06,6.805236625950783e-05
-5.595374750555493e-05,4.5583481551148e-05,1.556433562655002e-05,-3.960683443438029e-06,6.791680789319798e-05
-5.447000512504019e-05,4.565643394016661e-05,1.0942174412775785e-05,-7.1034341999620665e-06,6.672001472907141e-05
-4.569073280435987e-05,3.8999929529381916e-05,1.2925005648867227e-05,-8.518518370692618e-06,6.641875370405614e-05
-3.2720858143875375e-05,3.2623014703858644e-05,1.8241071302327327e-05,-7.007292879279703e-06,6.780315015930682e-05
-1.9965551473433152e-05,2.7257770852884278e-05,1.743862776493188e-05,-4.52174663223559e-06,6.881441368022934e-05
-9.417796718480531e-06,2.5099272534134798e-05,1.18875714179012e-05,-4.088103651156416e-06,6.746024155290797e-05
-1.778084879333619e-06,3.140390617772937e-05,8.156132025760598e-06,-5.746449460275471e-06,6.394633965101093e-05
-3.197691000877967e-07,4.376706783659756e-05,6.2546673689212184e-06,-7.838097189960536e-06,5.904481440666132e-05
2.6360919491708046e-06,5.1787665142910555e-05,2.923098918472533e-06,-6.214079803612549e-06,5.447914736578241e-05
1.6441075786133297e-05,5.006421997677535e-05,-1.575363512529293e-06,-4.648063168133376e-06,5.275173680274747e-05
3.302121695014648e-05,4.332635580794886e-05,-6.691557246085722e-06,-5.0307380661251955e-06,5.4997450206428766e-05
3.5269680665805936e-05,1.9928427718696184e-05,-7.081656804075465e-06,-8.910727046895772e-06,5.594530375674367e-05
2.2485479348688386e-05,-1.9989782231277786e-05,-5.6150415730371606e-06,-1.6641432011965662e-05,5.637638969346881e-05
1.1852149327751249e-05,-3.3472613722551614e-05,-5.858058557350887e-06,-1.6137999409693293e-05,5.895626964047551e-05
1.6526269064343069e-06,-1.3335471521713771e-05,-3.868400199280586e-06,-1.037081892718561e-05,6.200325879035518e-05
-1.4520013792207465e-05,1.721744774840772e-05,-2.330581992282532e-06,-9.876593139779288e-06,6.219868373591453e-05
-2.8970891435164958e-05,4.240045018377714e-05,-4.003798039775575e-06,-1.1234610610699747e-05,5.7378965720999986e-05
-3.316906440886669e-05,5.3788291552336887e-05,-8.006906682567205e-06,-9.683327334641945e-06,4.912631629849784e-05
-3.289727101218887e-05,6.133439455879852e-05,-8.24896324047586e-06,-6.552658305736259e-06,4.2943182052113116e-05
-3.224809552193619e-05,5.994560706312768e-05,-4.3728005039156415e-06,-5.769103609054582e-06,4.239910049363971e-05
-3.266457497375086e-05,4.022884604637511e-05,-8.540164913029002e-07,-6.206616035342449e-06,4.7218611143762246e-05
-3.29133945342619e-05,1.5413124856422655e-05,8.694020721122797e-07,-7.2736615948088e-06,5.2113475248916075e-05
-2.8157830456621014e-05,1.420458920620149e-05,3.410532372072339e-06,-6.428521373891272e-06,5.2762818086193874e-05
-2.618612052174285e-05,3.137582461931743e-05,7.813088814145885e-06,-4.581682787829777e-06,4.929539863951504e-05
-3.179987470502965e-05,4.280430221115239e-05,1.077682463801466e-05,-5.708620392397279e-06,4.665414962801151e-05
-4.078236088389531e-05,3.997457679361105e-05,1.2073401194356848e-05,-8.858087312546559e-06,4.770724626723677e-05
-4.3793970689876005e-05,3.305864447611384e-05,1.2095669262635056e-05,-1.2657522347581107e-05,4.8890004109125584e-05
-3.814488445641473e-05,3.0937837436795235e-05,1.0234870387648698e-05,-1.8331536921323277e-05,4.912197982775979e-05
-2.5580446163075976e-05,3.199679485987872e-05,9.416316061106045e-06,-2.2367648853105493e-05,5.0604488933458924e-05
-1.5037218872748781e-05,3.5042881791014224e-05,9.781887456483673e-06,-2.0916790163028054e-05,5.248790330369957e-05
-1.4488428860204294e-05,4.004874062957242e-05,9.698210305941757e-06,-1.6680502085364424e-05,5.370227518142201e-05
-2.0949451936758123e-05,4.398237797431648e-05,8.934227480494883e-06,-1.349667309114011e-05,5.642413452733308e-05
-2.4729035430937074e-05,4.0202132367994636e-05,5.456677172333002e-06,-1.2388777577143628e-05,5.936763409408741e-05
-2.449736166454386e-05,3.281844692537561e-05,3.7206432352832053e-06,-1.1866891327372286e-05,6.104042404331267e-05
-2.426172977720853e-05,3.0084731406532228e-05,4.983732651453465e-06,-1.5050897673063446e-05,5.951144339633174e-05
-2.8380833100527525e-05,3.3844280551420525e-05,4.4367934606270865e-06,-1.8522281607147306e-05,5.704165596398525e-05
-3.8341280742315575e-05,2.9267823265399784e-05,2.4504242901457474e-07,-2.0287550796638243e-05,5.6473214499419555e-05
-4.580871245707385e-05,1.8399112377665006e-05,-3.12452038997435e-06,-2.1210631530266255e-05,5.694797800970264e-05
-4.726163751911372e-05,1.2286291166674346e-05,4.25013377025607e-06,-2.054729702649638e-05,5.766519461758435e-05
-4.441120836418122e-05,9.929810403264128e-06,1.1144918062200304e-05,-1.724918001855258e-05,6.102216866565868e-05
-3.688838842208497e-05,1.430297561455518e-05,9.185013368551154e-06,-1.1476667168608401e-05,6.461108569055796e-05
-3.134643338853493e-05,2.370663423789665e-05,8.38677806314081e-06,-7.71333998272894e-06,6.865902832942083e-05
-3.0570248782169074e-05,3.086283686570823e-05,9.854677045950666e-06,-7.919833478808869e-06,7.195787475211546e-05
-2.7619264074019156e-05,3.8357018638635054e-05,1.0277055480401032e-05,-1.1891667782037985e-05,7.16274298611097e-05
-2.147188024537172e-05,5.1090537454001606e-05,7.848816494515631e-06,-1.724096728139557e-05,6.955733988434076e-05
-1.9361208615009673e-05,6.298792868619785e-05,3.174624680468696e-06,-2.04819007194601e-05,6.861666042823344e-05
-2.3820208298275247e-05,6.569871766259894e-05,-1.827744085858285e-06,-2.3998860342544504e-05,6.710866000503302e-05
-2.8934226065757684e-05,5.622123717330396e-05,-6.257632776396349e-06,-3.450211079325527e-05,6.59162542433478e-05
-2.8557895348058082e-05,3.7952315324218944e-05,-1.017066551867174e-05,-5.034848800278269e-05,6.546674558194354e-05
-2.4952914827736095e-05,1.3039589248364791e-05,-1.3493511687556747e-05,-6.168150866869837e-05,6.399954145308584e-05
-3.3451098715886474e-05,-8.715406693227123e-06,-1.7096281226258725e-05,-6.417228723876178e-05,6.232241867110133e-05
-5.8523164625512436e-05,-1.0905679118877742e-05,-2.0213024981785566e-05,-6.194854358909652e-05,6.039878280716948e-05
-7.907798135420308e-05,-6.325010417640442e-06,-2.0773608412127942e-05,-5.7245983043685555e-05,5.8455731050344184e-05
-7.613362686242908e-05,-5.921539013797883e-06,-1.5841787899262272e-05,-4.860934132011607e-05,5.8836354583036155e-05
-6.141012272564694e-05,2.780838030957966e-07,-6.996868251007982e-06,-3.541549449437298e-05,5.975005478831008e-05
-5.076612433185801e-05,1.6571133528486826e-05,-6.024577032803791e-07,-1.973073449335061e-05,6.032416058587842e-05
-4.269157943781465e-05,3.0796596547588706e-05,1.7277013739658287e-06,-1.0963806289510103e-06,6.218034104676917e-05
-3.070701495744288e-05,3.6788536817766726e-05,5.263872935756808e-06,2.263653550471645e-05,6.402198050636798e-05
-1.576682370796334e-05,3.8396694435505196e-05,1.362721923214849e-05,4.88994010083843e-05,6.527790537802503e-05
-6.625143669225508e-06,4.3453826947370544e-05,2.4061582735157572e-05,6.675918848486617e-05,6.665207911282778e-05
-1.1659294614219107e-05,5.335735113476403e-05,2.8940776246599853e-05,6.77152129355818e-05,6.920260057086125e-05
-3.0021230486454442e-05,5.780206265626475e-05,2.4174150894396007e-05,5.889837848371826e-05,6.748861051164567e-05
-4.76851528219413e-05,6.09504095336888e-05,1.5805460861884058e-05,4.70818740723189e-05,6.496252899523824e-05
-5.452493132906966e-05,6.151597335701808e-05,7.64450760470936e-06,3.1329695048043504e-05,6.18312624283135e-05
-5.2579373004846275e-05,5.1283688662806526e-05,4.246482149028452e-06,1.744460496411193e-05,5.765074456576258e-05
-4.2454732465557754e-05,3.344531069160439e-05,9.438231245439965e-06,1.9536386389518157e-05,5.885149585083127e-05
-3.0774383048992604e-05,1.1954542060266249e-05,1.7388423657394014e-05,2.8129174097557552e-05,6.088854934205301e-05
-3.001997174578719e-05,-1.9765855540754274e-05,1.7764647054718807e-05,2.610598130559083e-05,6.13258162047714e-05
-3.3378270018147305e-05,-6.566290539922193e-05,1.378865181322908e-05,1.1338716831232887e-05,6.42261074972339e-05
-2.5398256184416823e-05,-0.0001088659482775256,1.262167097593192e-05,-8.99335282156244e-06,6.998167373239994e-05
-4.740233180200448e-06,-0.00012712689931504428,1.1037644071620889e-05,-2.1542937247431837e-05,7.713218656135723e-05
1.3397492693911772e-05,-0.00010874574218178168,6.696383934468031e-06,-2.7267176847090013e-05,8.019217784749344e-05
1.3902897080697585e-05,-5.705415242118761e-05,3.266061412432464e-06,-3.0201070330804214e-05,7.935494068078697e-05
-1.3424387645954994e-07,3.055765773751773e-06,2.970482682940201e-06,-3.204896711395122e-05,7.480777276214212e-05
-1.732190685288515e-05,5.039477764512412e-05,3.1407778351422166e-06,-3.148139512632042e-05,6.935746932867914e-05
-2.9478727810783312e-05,7.895178714534268e-05,3.2396862934547244e-06,-2.8105034289183095e-05,6.267127901082858e-05
-3.818079858319834e-05,9.09496084204875e-05,1.862811359387706e-06,-2.201727511419449e-05,5.594599133473821e-05
-4.402010017656721e-05,8.803303353488445e-05,3.923731526356278e-07,-1.4477412150881719e-05,5.4003146942704916e-05
-4.718820491689257e-05,6.915222184034064e-05,-5.584623181675852e-07,-7.863962309784256e-06,5.5933087423909456e-05
-4.777374124387279e-05,3.336766530992463e-05,-1.3231772300059674e-06,-1.497730636401684e-06,5.848135697306134e-05
-4.649084439733997e-05,-5.660123861161992e-06,1.668393423415182e-07,4.046068170282524e-06,5.9255693486193195e-05
-4.4362670450937e-05,-2.5291596102761105e-05,3.507012024783762e-06,8.951142262958456e-06,5.636163041344844e-05
-4.1277595300925896e-05,-2.0115803636144847e-05,4.888271178060677e-06,1.4641460438724607e-05,5.021119795856066e-05
-3.5927630960941315e-05,-3.545045046848827e-06,4.274252660252387e-06,1.9349898138898425e-05,4.553914914140478e-05
-2.711700290092267e-05,1.2577375855471473e-05,4.653587893699296e-06,1.7859763829619624e-05,4.689398338086903e-05
-1.844054349930957e-05,2.102349571941886e-05,6.546753411384998e-06,1.0332928468415048e-05,5.516075907507911e-05
-1.1013212315447163e-05,2.18373224925017e-05,7.379728231171612e-06,1.2612121054189629e-06,5.9386151406215504e-05
-4.77493267680984e-06,2.6108265956281684e-05,8.623715075373184e-06,-3.721799885170185e-06,5.7377339544473216e-05
2.701251105463598e-06,3.830721107078716e-05,1.4510786968457978e-05,-5.079004949948285e-06,5.5337382946163416e-05
1.032639374898281e-05,4.9820773710962385e-05,2.0076229702681303e-05,-5.859946668351768e-06,5.4706153605366126e-05
9.540050086798146e-06,5.767407128587365e-05,2.3004145987215452e-05,-8.694698408362456e-06,5.347857950255275e-05
-2.8795616913157573e-07,6.794071668991819e-05,2.15771342482185e-05,-9.090628736885265e-06,5.329172927304171e-05
-1.2682062333624344e-05,8.034738129936159e-05,1.9403332771616988e-05,-7.593580448883586e-06,5.510375558515079e-05
-2.552808655309491e-05,8.674548735143617e-05,1.878844341263175e-05,-7.329408617806621e-06,5.9283749578753486e-05
-2.9717557481490076e-05,7.909403211669996e-05,1.4692924196424428e-05,-6.102557563281152e-06,6.451082299463451e-05
-2.848680924216751e-05,5.604189937002957e-05,1.2510329725046176e-05,-7.317821655306034e-06,6.665634282398969e-05
-2.797329580062069e-05,2.6430012439959683e-05,1.5819783584447578e-05,-1.0163600563828368e-05,6.369021139107645e-05
-2.8717704481096007e-05,1.2119790881115478e-05,1.981477180379443e-05,-1.1452843864390161e-05,5.9055186284240335e-05
-2.890446012315806e-05,1.4303043826657813e-05,1.7659354853094555e-05,-1.1528203685884364e-05,5.6383338232990354e-05
-2.8792497687391005e-05,2.0866331396973692e-05,1.0627022675180342e-05,-1.3053313523414545e-05,5.508065441972576e-05
-2.974495328089688e-05,2.4239352569566108e-05,6.476184353232384e-06,-1.5697987691964954e-05,5.5282082030316815e-05
-2.9765322324237786e-05,2.36726991715841e-05,6.984739684412489e-06,-1.9014660210814327e-05,5.631088060908951e-05
-2.980293720611371e-05,2.441836113575846e-05,8.953196811489761e-06,-2.049491013167426e-05,5.8424018789082766e-05
-2.9774382710456848e-05,2.8997857953072526e-05,1.0039609151135664e-05,-1.9018394596059807e-05,6.078109800000675e-05
-3.088312951149419e-05,3.5630317142931744e-05,8.634589903522283e-06,-1.7026641216943972e-05,6.31842776783742e-05
-3.2177242246689275e-05,4.1903484088834375e-05,4.456388978724135e-06,-1.91962953977054e-05,6.712073081871495e-05
-3.568934334907681e-05,4.946647823089734e-05,-4.8242082328897595e-08,-2.920465158240404e-05,6.994252180447802e-05
-4.234877633280121e-05,5.4430656746262684e-05,-5.639564733428415e-06,-4.500909926719032e-05,6.943722837604582e-05
-4.796994835487567e-05,5.103185321786441e-05,-1.2977082405996043e-05,-6.130932888481766e-05,6.524613127112389e-05
-4.7014927986310795e-05,4.166825965512544e-05,-2.0107991076656617e-05,-7.4224233685527e-05,6.116525764809921e-05
-4.178626841166988e-05,3.7260651879478246e-05,-2.387362292211037e-05,-8.097001409623772e-05,6.092279727454297e-05
-3.531412949087098e-05,3.8456928450614214e-05,-2.0402092559379525e-05,-8.087201422313228e-05,6.360808038152754e-05
-2.9378963517956436e-05,3.332188498461619e-05,-1.284875634155469e-05,-7.69068137742579e-05,6.537679291795939e-05
-2.6832669391296804e-05,2.4808108719298616e-05,-6.978842520766193e-06,-6.879692955408245e-05,6.625680543947965e-05
-2.4889015548978932e-05,2.4793569536996074e-05,-2.900994559240644e-06,-5.740681808674708e-05,6.773330096621066e-05
-2.1323790861060843e-05,2.816440064634662e-05,-2.8304071975071565e-07,-4.401248588692397e-05,6.696346827084199e-05
-2.0261913959984668e-05,2.4410741389147006e-05,4.282504960428923e-06,-2.609974217193667e-05,6.160970951896161e-05
-1.9416514987824485e-05,2.0545970983221196e-05,1.0674381883291062e-05,-3.490047902232618e-06,5.442003384814598e-05
-1.918129055411555e-05,2.8780175853171386e-05,1.7736441805027425e-05,2.0251083697075956e-05,4.999652810511179e-05
-2.552144906076137e-05,3.99443379137665e-05,2.350638351344969e-05,3.842926525976509e-05,4.444093065103516e-05
-3.402226866455749e-05,4.698333941632882e-05,2.6577004973660223e-05,4.6706692955922335e-05,3.972654667450115e-05
-3.1054521969053894e-05,5.09134515596088e-05,2.8484091671998613e-05,4.2042898712679744e-05,4.125582563574426e-05
-1.4610948710469529e-05,5.210118251852691e-05,2.4276418116642162e-05,2.7536840207176283e-05,4.8625148338032886e-05
3.5061709695582977e-06,5.2686438721138984e-05,1.3775938896287698e-05,1.3792225217912346e-05,5.4903121053939685e-05
1.7341244529234245e-05,5.980174319120124e-05,5.369189693738008e-06,3.0419917038670974e-06,5.5167238315334544e-05
2.2730529963155277e-05,7.012425339780748e-05,5.44300473848125e-06,-1.9572278233681573e-06,5.165491165826097e-05
2.1230587663012557e-05,7.052216096781194e-05,8.9137165559805e-06,-2.4387813937210012e-06,4.8226589569821954e-05
1.528871143818833e-05,6.0076272347941995e-05,1.0480339369678404e-05,-4.350545452780352e-07,4.6978762838989496e-05
7.214528523036279e-06,4.0266717405756935e-05,8.184402759070508e-06,2.1837054191564675e-06,4.661937418859452e-05
4.065711323164578e-07,1.5228049960569479e-05,2.744866606008145e-06,1.4781262507312931e-06,4.584328053169884e-05
-7.4922982093994506e-06,-6.064009085093858e-06,-5.335484729585005e-06,-5.4690040087734815e-06,4.318332867114805e-05
-2.173086249968037e-05,-1.141643133450998e-05,-1.4442415704252198e-05,-1.557817085995339e-05,4.071444709552452e-05
-3.507853398332372e-05,-3.4497595606808318e-06,-1.9811117454082705e-05,-2.0219222278683446e-05,4.1049508581636474e-05
-3.370172998984344e-05,6.9180960053927265e-06,-1.6706189853721298e-05,-1.5311567040043883e-05,4.565319250104949e-05
-1.8875891328207217e-05,1.2293839972699061e-05,-7.335411737585673e-06,-6.764861154806567e-06,5.204432090977207e-05
-3.323404598631896e-06,1.286537735722959e-05,1.0282396800675997e-07,-3.320797077321913e-06,5.6102609960362315e-05
3.367714498381247e-06,1.0455027222633362e-05,2.6035575046989834e-06,-4.954257747158408e-06,5.8562032791087404e-05
1.6450924249511445e-06,1.1253918273723684e-05,2.033105147347669e-06,-7.484501111321151e-06,5.905097350478172e-05
-4.546956915874034e-06,1.736945159791503e-05,4.103047103853896e-06,-8.528949365427252e-06,5.7432393077760935e-05
-1.3244070032669697e-05,2.3932212570798583e-05,1.0471181667526253e-05,-8.27475651021814e-06,5.6639859394636005e-05
-2.507435237930622e-05,3.27255402226001e-05,1.5885132597759366e-05,-6.723918886564206e-06,5.904861609451473e-05
-3.237227429053746e-05,3.0294395401142538e-05,1.7046053471858613e-05,-4.980189260095358e-06,6.23257874394767e-05
-2.713380854402203e-05,1.2929827789776027e-05,1.4874745829729363e-05,-2.965767407658859e-06,6.184037920320407e-05
-1.6489946574438363e-05,8.09971425042022e-06,1.5095831258804537e-05,-2.329365543118911e-06,5.5451029766118154e-05
-1.4860524970572442e-05,2.9868308047298342e-05,1.6670308468746953e-05,-5.177715138415806e-06,4.9421123549109325e-05
-2.2534850359079428e-05,5.83843830099795e-05,1.4543700672220439e-05,-8.450113455182873e-06,5.0137401558458805e-05
-3.5040280636167154e-05,6.681447121081874e-05,1.1847856512758881e-05,-8.07416745374212e-06,5.469485040521249e-05
-5.104297451907769e-05,6.141055200714618e-05,1.0099748578795698e-05,-6.717068572470453e-06,5.605343176284805e-05
-5.875221177120693e-05,3.307026418042369e-05,9.370355655846652e-06,-8.775406058703084e-06,5.109590711072087e-05
-5.5888456699904054e-05,-1.495588367106393e-05,5.990022145851981e-06,-1.359171983494889e-05,4.82550312881358e-05
-5.184954352444038e-05,-3.1951316486811265e-05,4.105555035494035e-06,-1.4006936908117495e-05,4.903379158349708e-05
-4.7648896725149825e-05,-1.574598172737751e-05,3.932851086574374e-06,-1.1432814062573016e-05,5.293200592859648e-05
-3.910926170647144e-05,2.969699380628299e-06,1.854563720371516e-06,-1.029125905915862e-05,6.016121187712997e-05
-2.8393185857567005e-05,8.726010491955094e-06,-8.330480341101065e-07,-1.5741652532597072e-05,6.534049316542223e-05
-1.8016748072113842e-05,1.0795424714160617e-05,-4.62209254692425e-06,-2.6352034183219075e-05,6.648373528150842e-05
-1.1060301403631456e-05,1.72273375937948e-05,-9.673084605310578e-06,-3.5315613786224276e-05,6.46069529466331e-05
-6.039223080733791e-06,2.998714080604259e-05,-1.355608219455462e-05,-3.869557986035943e-05,6.226230470929295e-05
-1.7853819826996187e-06,4.0091377741191536e-05,-1.3087740626360755e-05,-3.596527312765829e-05,6.169438711367548e-05
-5.0806079343601596e-06,3.838076736428775e-05,-1.1057371921197046e-05,-3.0320787118398584e-05,6.352280615828931e-05
-1.4693523553432897e-05,3.0065682949498296e-05,-9.06599780137185e-06,-2.4144153940142132e-05,6.432667578337714e-05
-2.3394677555188537e-05,2.464434328430798e-05,-6.8983858909632545e-06,-1.9912913558073342e-05,6.371254858095199e-05
-2.836837484210264e-05,2.4140856112353504e-05,-3.7323020478652325e-06,-1.609679384273477e-05,6.317292718449607e-05
-2.9888224162277766e-05,2.31263129535364e-05,7.542779485447682e-07,-1.0115518307429738e-05,6.198204209795222e-05
-2.7366984795662574e-05,2.0288105588406324e-05,4.47102183898096e-06,-1.26054760585248e-06,5.9304140449967235e-05
-2.591777592897415e-05,1.9396200514165685e-05,4.39082623415743e-06,9.77315994532546e-06,5.6574201153125614e-05
-2.5984190870076418e-05,2.2076021195971407e-05,2.9411439754767343e-06,2.0674828192568384e-05,5.523537038243376e-05
-2.1399200704763643e-05,2.391757516306825e-05,4.9190894060302526e-06,2.4527611458324827e-05,5.702913040295243e-05
-1.6681338820490055e-05,2.791934457491152e-05,8.693918971403036e-06,1.975286977540236e-05,5.9427649830468e-05
-2.1250320060062222e-05,3.202015795977786e-05,9.288976798416115e-06,1.0743812708824407e-05,5.967376637272537e-05
-3.0946266633691266e-05,3.411501529626548e-05,7.79333549871808e-06,3.926094450434903e-06,5.927876554778777e-05
-3.454985926509835e-05,3.371942148078233e-05,4.461830030777492e-06,-2.992063173223869e-06,6.057348218746483e-05
-2.8365649995976128e-05,2.970487912534736e-05,5.361758894650848e-07,-1.1778603948187083e-05,6.56022530165501e-05
-2.1068322894279845e-05,2.475614564900752e-05,-9.822090305533493e-07,-1.6700523701729253e-05,6.916670827195048e-05
-2.1702588128391653e-05,2.4296268748003058e-05,-1.859851408880786e-06,-1.6859183233464137e-05,6.693480827379972e-05
-2.7008969482267275e-05,3.106085932813585e-05,-5.296289145917399e-06,-2.682283411559183e-05,6.404126179404557e-05
-3.0213650461519137e-05,3.579918120522052e-05,-1.2507091014413163e-05,-5.8728124713525176e-05,6.452725210692734e-05
-3.200293213012628e-05,3.5412096622167155e-05,-1.676206557021942e-05,-9.822486026678234e-05,6.343243876472116e-05
-3.2741987524786964e-05,3.7643039831891656e-05,-1.6518024494871497e-05,-0.00012052468809997663,6.088017835281789e-05
-2.6159104891121387e-05,4.367708243080415e-05,-1.7624655811232515e-05,-0.00011190953227924183,5.979667548672296e-05
-1.5463167073903605e-05,5.2102179324720055e-05,-1.670155324973166e-05,-8.055594662437215e-05,5.975131716695614e-05
-9.108955055125989e-06,5.721952402382158e-05,-1.195744607684901e-05,-4.4933192839380354e-05,6.140978803159669e-05
-6.004725491948193e-06,5.712059646612033e-05,-6.568348453583894e-06,-6.17465730101685e-06,6.249146099435166e-05
-5.497455731529044e-06,5.321051139617339e-05,-8.316874868796731e-07,4.119193908991292e-05,6.13409501966089e-05
-1.0248190847050864e-05,4.661399361793883e-05,4.63180322185508e-06,8.67517082951963e-05,5.866320134373382e-05
-2.2217056539375335e-05,3.0034363589948043e-05,9.940792551788036e-06,0.0001144174239016138,5.693534330930561e-05
-4.070406794198789e-05,1.3682706594408955e-05,1.592388616700191e-05,0.00011900651588803157,5.743551446357742e-05
-5.628851431538351e-05,2.0941941329510882e-05,2.040348044829443e-05,0.00010860291513381526,5.87278809689451e-05
-6.619117630179971e-05,4.78471556561999e-05,2.244776078441646e-05,9.333620255347341e-05,5.8007470215670764e-05
-7.339305011555552e-05,6.816700624767691e-05,2.569108437455725e-05,7.98563050921075e-05,5.371280713006854e-05
-7.64362484915182e-05,6.912453682161868e-05,3.1054081773618236e-05,7.003436621744186e-05,4.5754659367958084e-05
-7.408089732052758e-05,5.837095886818133e-05,3.355178705533035e-05,6.303999543888494e-05,4.043218359583989e-05
-6.885272159706801e-05,4.316074409871362e-05,3.101572656305507e-05,5.575744580710307e-05,4.368743611848913e-05
-6.209681305335835e-05,2.8301617930992506e-05,2.8228125302121043e-05,4.496398469200358e-05,5.2988241804996505e-05
-5.110950951348059e-05,1.546767271065619e-05,2.8925855076522566e-05,3.0538736609742045e-05,6.146094528958201e-05
-3.322240081615746e-05,8.83134089235682e-06,2.9684439141419716e-05,1.8503729734220542e-05,6.434596434701234e-05
-1.2050844816258177e-05,1.0043255315395072e-05,2.6143474315176718e-05,1.2179698387626559e-05,6.394540832843632e-05
7.998905857675709e-06,1.4369713426276576e-05,2.119924647558946e-05,8.267250450444408e-06,6.189244595589116e-05
1.5865985915297642e-05,1.3060541277809534e-05,1.8660774003365077e-05,4.723993697552942e-06,5.84857480134815e-05
1.134009289671667e-05,6.888454208819894e-06,2.0477313228184357e-05,-2.4959249458333943e-06,5.4916417866479605e-05
5.681805305357557e-06,5.363823220250197e-06,2.1386211301432922e-05,-1.298922325077001e-05,5.340233838069253e-05
-9.056364433490671e-06,1.4295380424300674e-05,1.6802199752419256e-05,-1.8571994587546214e-05,5.30766265001148e-05
-2.6639863790478557e-05,3.3147276553791016e-05,1.1192318197572604e-05,-2.3859742213971913e-05,5.3287982154870406e-05
-3.050301893381402e-05,4.4877688196720555e-05,8.372786396648735e-06,-3.041700620087795e-05,5.393637184170075e-05
-2.713166395551525e-05,3.505104541545734e-05,8.535328561265487e-06,-3.222176383133046e-05,5.406787386164069e-05
-3.2153100619325414e-05,3.065575583605096e-05,6.688348548777867e-06,-3.171035132254474e-05,5.449837408377789e-05
-4.1409166442463174e-05,4.839624307351187e-05,6.770510026399279e-06,-2.927394052676391e-05,5.388819408835843e-05
-4.429417458595708e-05,6.661132647423074e-05,1.2544714081741404e-05,-2.7212427085032687e-05,5.3027495596325025e-05
-4.000019180239178e-05,6.957997538847849e-05,1.707455339783337e-05,-2.848225449270103e-05,5.293143112794496e-05
-3.318422386655584e-05,6.179105548653752e-05,1.4912564438418485e-05,-3.2740746974013746e-05,5.299924305290915e-05
-3.161751737934537e-05,5.036967195337638e-05,4.7559929043927696e-06,-3.423144880798645e-05,5.3105228289496154e-05
-3.534526695148088e-05,3.393100269022398e-05,-7.729248864052352e-06,-3.335394649184309e-05,5.159897409612313e-05
-4.3063420889666304e-05,6.303041118371766e-06,-1.62728683790192e-05,-3.516354627208784e-05,4.944939792039804e-05
-5.286511077429168e-05,-2.1567888325080276e-05,-1.811230140447151e-05,-4.010913471574895e-05,4.722915036836639e-05
-5.717784370062873e-05,-2.4134951672749594e-05,-1.644643816689495e-05,-4.827743032365106e-05,4.552316022454761e-05
-5.091942512081005e-05,-9.606879558532455e-08,-1.1789859854616225e-05,-5.8509216614766046e-05,4.6756642404943705e-05
-3.766540976357646e-05,2.7210886401007883e-05,-5.769973085989477e-06,-6.431033398257568e-05,5.424073606263846e-05
-2.6437641281518154e-05,4.182603152003139e-05,-1.0393885077064624e-06,-6.48990971967578e-05,6.133167335065082e-05
-2.3422107915394008e-05,4.819653258891776e-05,3.7070462894917e-06,-6.712639151373878e-05,6.086960274842568e-05
-2.8446120268199593e-05,5.213169060880318e-05,9.155161933449563e-06,-7.297369302250445e-05,5.849942681379616e-05
-3.562228812370449e-05,5.257135126157664e-05,1.2463057828426827e-05,-7.616537186549976e-05,5.939830225543119e-05
-4.617115337168798e-05,5.238969242782332e-05,1.2303097719268408e-05,-7.118472422007471e-05,5.968221012153663e-05
-6.292152829701081e-05,5.391075319494121e-05,9.877030606730841e-06,-5.7649500377010554e-05,5.759198029409163e-05
-7.339733565459028e-05,5.725755909224972e-05,5.198125563765643e-06,-3.710571036208421e-05,5.772781150881201e-05
-6.139820470707491e-05,6.486180063802749e-05,-4.0734224882044145e-08,-1.6614056221442297e-05,5.88810071349144e-05
-3.629156344686635e-05,6.239262438612059e-05,-1.5705923033237923e-06,1.0448763987369603e-06,6.023565583745949e-05
-1.906389843497891e-05,3.596505121095106e-05,2.910180228354875e-06,1.688192605797667e-05,6.432484951801598e-05
-1.130713371821912e-05,-1.0766035302367527e-05,1.148747560364427e-05,2.7513555323821492e-05,6.978565215831622e-05
-1.0321111403754912e-05,-3.870652290061116e-05,1.8468084817868657e-05,1.8211605492979288e-05,7.047512190183625e-05
-1.210679783980595e-05,-3.86273895855993e-05,1.645750853640493e-05,-8.175296898116358e-06,6.591355486307293e-05
-1.661572423472535e-05,-3.0784252885496244e-05,7.2522075242886785e-06,-3.18237543979194e-05,6.150139961391687e-05
-2.1383975763455965e-05,-1.465235254727304e-05,-2.5054378056665882e-06,-4.6344495785888284e-05,6.257704080780968e-05
-2.567569936218206e-05,-7.068245849950472e-06,-5.737576884712325e-06,-5.801091538160108e-05,6.799393304390833e-05
-3.0457218599622138e-05,-2.8639611628022976e-05,-4.422697202244308e-06,-6.964261410757899e-05,7.322993769776076e-05
-3.003727033501491e-05,-6.31181028438732e-05,-6.151576599222608e-06,-7.475601159967482e-05,7.398833258775994e-05
-2.203279291279614e-05,-5.50047006981913e-05,-1.2652767509280238e-05,-7.044405356282368e-05,7.172880577854812e-05
-1.3203749404055998e-05,-9.476362720306497e-06,-1.5166632692853455e-05,-6.0111498896731064e-05,7.127225399017334e-05
-1.4483653103525285e-05,3.534041752573103e-05,-1.0670871233742218e-05,-5.8880585129372776e-05,7.054998422972858e-05
-2.3981034246389754e-05,6.033606769051403e-05,-5.281216090224916e-06,-7.802587788319215e-05,6.695561023661867e-05
-3.655516775324941e-05,6.19534621364437e-05,-4.2994711293431465e-06,-0.00010371443204348907,6.177042087074369e-05
-4.222138522891328e-05,4.2751056753331795e-05,-5.9963558669551276e-06,-0.00010822867625392973,6.293228943832219e-05
-3.242953243898228e-05,1.6228439562837593e-05,-4.322346740082139e-06,-8.339971827808768e-05,7.018719043117017e-05
-1.5462925148312934e-05,-8.640229793854814e-07,2.8139775167801417e-06,-4.5969602069817483e-05,7.792221003910527e-05
-8.057134436967317e-06,-8.674071978020947e-06,1.217956105392659e-05,-1.2622243957594037e-05,8.422822429565713e-05
-1.0859967005671933e-05,-1.2094292287656572e-05,1.729075302137062e-05,1.5597390301991254e-05,8.688202797202393e-05
-1.4468755580310244e-05,-1.3796681741951033e-05,1.5462950614164583e-05,4.5778648200212047e-05,8.483168494421989e-05
-1.789016096154228e-05,-1.2021176189591642e-05,1.1272528354311362e-05,7.725227624177933e-05,8.07336691650562e-05
-2.3357793907052837e-05,-1.3739319001615513e-05,1.1867959074152168e-05,9.698625217424706e-05,7.51013430999592e-05
-2.812449929479044e-05,-1.3560830666392576e-05,1.765455999702681e-05,9.346853039460257e-05,6.876687257317826e-05
-3.0070315915509127e-05,5.138154392625438e-06,2.319623854418751e-05,7.664526492590085e-05,6.425075116567314e-05
-3.205795292160474e-05,3.861202276311815e-05,2.7501531803864054e-05,6.557384040206671e-05,5.941508788964711e-05
-3.641108924057335e-05,6.070635572541505e-05,3.226628541597165e-05,6.325233698589727e-05,5.510827759280801e-05
-4.202638228889555e-05,5.9459955082274973e-05,2.8910581022500992e-05,5.5519729357911274e-05,5.265261643216945e-05
-4.346306741354056e-05,4.9416332331020385e-05,1.9479442926240154e-05,3.376051245140843e-05,5.150085416971706e-05
-3.8580226828344166e-05,5.013444751966745e-05,1.1041070138162468e-05,7.281647867785068e-06,4.9809379561338574e-05
-2.853473779396154e-05,5.5535638239234686e-05,4.890132458967855e-06,-6.208448667166522e-06,5.206276910030283e-05
-1.7939421013579704e-05,6.140791811048985e-05,2.010796606555232e-06,-9.099608178075869e-06,5.659498128807172e-05
-1.2397015780152287e-05,6.995516741881147e-05,-2.234221256003366e-06,-1.004353634925792e-05,5.4089221521280706e-05
-1.2207837244204711e-05,7.977178029250354e-05,-6.688705980195664e-06,-1.3888653484173119e-05,4.8926405725069344e-05
-1.4373606063600164e-05,7.941361400298774e-05,-6.218262114998652e-06,-2.068670255539473e-05,4.9363155994797125e-05
-1.6351848898921162e-05,7.198592356871814e-05,-6.650486170656222e-07,-2.1247191398288123e-05,5.311135100782849e-05
-1.869703373813536e-05,6.911061063874513e-05,5.223669631959638e-06,-1.821369914978277e-05,5.534802403417416e-05
-2.138243871740997e-05,6.864111492177472e-05,8.104663720587268e-06,-1.63878285093233e-05,5.7119392295135185e-05
-2.844180380634498e-05,6.097186269471422e-05,9.369945473736152e-06,-1.718705243547447e-05,5.7808363635558635e-05
-4.067800909979269e-05,4.378675657790154e-05,8.419323421549052e-06,-1.662075192143675e-05,5.4398293286794797e-05
-4.546413038042374e-05,3.0666593374917284e-05,6.374676104314858e-06,-1.6690997654222883e-05,5.063362550572492e-05
-3.920484596164897e-05,3.073625703109428e-05,4.676793651015032e-06,-1.851307024480775e-05,5.2060313464608043e-05
-2.785323522402905e-05,3.7110032280907035e-05,4.234675998304738e-06,-2.2420503228204325e-05,5.789737042505294e-05
-1.7633694369578734e-05,4.3424603063613176e-05,6.237255092855776e-06,-2.414791379123926e-05,6.194524030433968e-05
-7.90480316936737e-06,5.2133578719804063e-05,1.2112083823012654e-05,-2.0996227249270305e-05,6.469641084549949e-05
1.2995478755328804e-06,6.447524356190115e-05,1.727306516841054e-05,-1.7509673853055574e-05,6.791608029743657e-05
1.955768311745487e-06,7.375807763310149e-05,1.7519045286462642e-05,-1.7919261154020205e-05,6.760624819435179e-05
-8.940050065575633e-06,6.684959953418002e-05,1.3187064723751973e-05,-1.9299670384498313e-05,6.45793552394025e-05
-2.2328504201141186e-05,4.9214388127438724e-05,6.7929577198810875e-06,-1.6402747860411182e-05,6.221978401299566e-05
-2.8012740585836582e-05,3.465286863502115e-05,5.168690677237464e-06,-1.4780553101445548e-05,6.186259270180017e-05
-2.7406367735238746e-05,2.691162626433652e-05,7.471720437024487e-06,-1.8642571376403794e-05,6.079038939788006e-05
-2.2173493562149815e-05,2.5931427444447763e-05,8.087681635515764e-06,-2.4415803636657074e-05,5.71713644603733e-05
-1.5331917893490754e-05,2.9052695026621222e-05,6.165623744891491e-06,-2.5185869162669405e-05,5.432731268228963e-05
-1.2367793715384323e-05,3.106287113041617e-05,3.2197281143453438e-06,-2.473020322213415e-05,5.34259233972989e-05
-1.1518400242493954e-05,4.3571060814429075e-05,2.0099453479360818e-07,-2.6639554562279955e-05,5.339241761248559e-05
-1.5684705431340262e-05,6.022439993103035e-05,-4.746789841192367e-07,-2.798251989588607e-05,5.4301974159898236e-05
-2.7728618078981526e-05,5.581566074397415e-05,-1.3753498251389829e-06,-3.062885662075132e-05,5.186405178392306e-05
-4.0895196434576064e-05,2.1581881810561754e-05,-6.349690011120401e-06,-3.2828211260493845e-05,4.789934973814525e-05
-4.273726517567411e-05,-7.533902589784702e-06,-5.063518528913846e-06,-2.883698107325472e-05,4.972871465724893e-05
-3.367211320437491e-05,-2.075342126772739e-05,4.033788627566537e-06,-2.3631595468032174e-05,5.7075198128586635e-05
-2.6106816221727058e-05,-3.959118475904688e-05,5.563411377806915e-06,-2.3629472707398236e-05,6.168147956486791e-05
-2.3533177227363922e-05,-5.27100455656182e-05,-2.0945785763615277e-06,-3.149138137814589e-05,6.174425652716309e-05
-2.3873399186413735e-05,-5.175647311261855e-05,-9.814330951485317e-06,-4.138778240303509e-05,6.295798084465787e-05
-2.352145929762628e-05,-4.069301576237194e-05,-9.283738108933903e-06,-5.013406916987151e-05,6.584056973224506e-05
-2.173986104025971e-05,-2.845209019142203e-05,-3.3938849810510874e-06,-6.21252620476298e-05,6.788842438254505e-05
-1.7433536413591355e-05,-2.1671410650014877e-05,-1.909895217977464e-06,-7.520095095969737e-05,6.731488974764943e-05
-1.5227456060529221e-05,-1.4228986401576549e-05,-5.862686975888209e-06,-7.661659765290096e-05,6.752766785211861e-05
-1.3775030311080627e-05,7.761850611132104e-06,-8.779883501119912e-06,-6.319232488749549e-05,6.937857688171789e-05
-7.564349289168604e-06,4.536310734692961e-05,-7.121538601495558e-06,-3.880416988977231e-05,6.905056943651289e-05
1.7897133375299745e-06,8.959970000432804e-05,-2.5110136903094826e-06,-8.659122613607906e-06,6.569524703081697e-05
8.273892490251455e-06,0.00012685997353401035,4.0989166336657945e-06,2.9405962777673267e-05,6.373247742885724e-05
7.097715752024669e-06,0.00014722444757353514,1.0742729500634596e-05,7.211078627733514e-05,6.665944238193333e-05
-2.55632221524138e-06,0.0001475688477512449,1.420392254658509e-05,0.00010149529407499358,7.148034637793899e-05
-1.6786851119832136e-05,0.0001298109273193404,1.5294701370294206e-05,0.00010619128443067893,7.197611557785422e-05
-2.8501954147941433e-05,9.976453293347731e-05,1.567297294968739e-05,9.220051288139075e-05,6.687985296593979e-05
-3.121681947959587e-05,6.46985208732076e-05,1.5553059711237438e-05,7.122346141841263e-05,6.00248749833554e-05
-2.3892978788353503e-05,2.6412100851302966e-05,1.5734653061372228e-05,4.931290095555596e-05,5.6958913773996755e-05
-1.7942596969078295e-05,-1.4840546100458596e-05,1.5558151062577963e-05,3.124660361208953e-05,5.8974605053663254e-05
-2.1409859982668422e-05,-4.6682627726113424e-05,1.3457534805638716e-05,1.8558330339146778e-05,5.9269841585773975e-05
-2.9145923690521158e-05,-5.5542517657158896e-05,7.689554877288174e-06,1.158113718702225e-05,5.784457243862562e-05
-3.142213972751051e-05,-4.567290670820512e-05,3.165593398080091e-06,8.74729266797658e-06,5.77626378799323e-05
-2.3737022274872288e-05,-2.9125429136911407e-05,4.2956621655321214e-06,7.39673805583152e-06,5.6073466112138703e-05
-1.6435811630799435e-05,-1.1191671546839643e-05,5.987162694509607e-06,2.6967909434461035e-06,5.5431515647796914e-05
-2.1912313968641683e-05,6.108792604209157e-06,8.094928489299491e-06,2.0541697267617565e-06,5.5971879191929474e-05
-3.4942884667543694e-05,2.1248095436021686e-05,8.096152669168077e-06,8.130113201332279e-06,5.4141561122378334e-05
-4.1738378058653325e-05,2.674301140359603e-05,7.426226147799753e-06,1.1204675502085593e-05,5.42865673196502e-05
-3.997799285571091e-05,2.8234508135938086e-05,1.2053099453623872e-05,9.041694283951074e-06,5.495930963661522e-05
-4.615717989508994e-05,3.183389708283357e-05,1.3873340321879368e-05,3.576405106286984e-06,5.529778718482703e-05
-5.8843947044806555e-05,3.7591380532830954e-05,9.828907423070632e-06,-3.5632019717013463e-06,5.776716352556832e-05
-6.3741797930561e-05,4.6025576011743397e-05,4.140630153415259e-06,-9.086447789741214e-06,5.984596646158025e-05
-5.634107947116718e-05,5.725333539885469e-05,2.4866534431566834e-07,-1.269350468646735e-05,5.809780122945085e-05
-4.7042034566402435e-05,6.806185410823673e-05,1.3253975339466706e-07,-9.296854841522872e-06,5.393162427935749e-05
-4.8996080295182765e-05,7.158771040849388e-05,2.83939016298973e-06,-4.984918632544577e-06,5.1914383220719174e-05
-5.903762939851731e-05,6.833924271631986e-05,6.24334143140004e-06,-3.5459172522678273e-06,5.429068914963864e-05
-6.872109224786982e-05,6.303266854956746e-05,7.741372428426985e-06,-2.7896026040252764e-06,5.609532308881171e-05
-6.765757279936224e-05,5.431065073935315e-05,6.268592642300064e-06,-8.085423814918613e-07,5.6341668823733926e-05
-5.5038479331415147e-05,3.978415406891145e-05,4.5532360672950745e-06,1.6800182720544399e-06,5.856503776158206e-05
-4.071917282999493e-05,2.0705145288957283e-05,2.9802688459312776e-06,-2.2838626989596378e-07,5.944528675172478e-05
-3.233622192055918e-05,9.966029210772831e-06,-5.958285669294128e-07,-5.8010487009596545e-06,5.543528459384106e-05
-2.5952775104087777e-05,2.471781954227481e-05,-2.943302888525068e-06,-1.1861941857205238e-05,5.001096724299714e-05
-1.5112033906916622e-05,5.6359258451266214e-05,-6.312385494311457e-07,-1.6275609596050344e-05,4.7545410780003294e-05
-4.659999831346795e-06,7.886478852014989e-05,4.607259143085685e-06,-1.814785173337441e-05,4.80350099678617e-05
-2.353152012801729e-06,7.500388892367482e-05,7.421851023536874e-06,-1.81275845534401e-05,4.884591544396244e-05
-5.1024053391302004e-06,5.304019941831939e-05,4.538553184829652e-06,-2.048727765213698e-05,4.6337063395185396e-05
-6.844764357083477e-06,3.9307113183895126e-05,2.1775249479105696e-06,-2.3894877813290805e-05,4.328093564254232e-05
-7.991921847860795e-06,5.110541678732261e-05,5.592727575276513e-06,-2.4665436285431497e-05,4.623019049176946e-05
-1.7498505258117802e-05,6.974196003284305e-05,6.530611699417932e-06,-2.443589983158745e-05,5.1149916544090956e-05
-3.748200833797455e-05,6.656233745161444e-05,-9.547898116579745e-07,-3.084896525251679e-05,5.1647188229253516e-05
-5.3978343203198165e-05,2.702476194826886e-05,-1.1225780326640233e-05,-4.5540527935372666e-05,4.9375441449228674e-05
-6.003027010592632e-05,-5.344720193534158e-05,-2.1870440832572058e-05,-6.820652924943715e-05,4.777382127940655e-05
-5.382680319598876e-05,-0.00013483923976309597,-3.340157854836434e-05,-8.962988067651168e-05,5.192412936594337e-05
-4.4286836782703176e-05,-0.00017300534818787128,-3.689438381115906e-05,-9.819987462833524e-05,5.801039151265286e-05
-4.208983955322765e-05,-0.00019289412011858076,-3.252687747590244e-05,-9.504135960014537e-05,6.231953739188612e-05
-4.172699118498713e-05,-0.0001983306574402377,-2.837606007233262e-05,-8.559390698792413e-05,6.185720849316567e-05
-3.49698202626314e-05,-0.00016288676124531776,-2.313315235369373e-05,-6.757758819730952e-05,6.0232308896956965e-05
-2.1565932911471464e-05,-9.114488057093695e-05,-1.10135906652431e-05,-4.158078445470892e-05,6.0175032558618113e-05
-2.5554240892233793e-06,-1.643141331442166e-05,3.7545621580648003e-06,-9.482255336479284e-06,5.867040090379305e-05
2.3628639610251412e-05,2.2265545339905657e-05,1.5358280506916344e-05,2.348712041566614e-05,5.419453009380959e-05
4.750599691760726e-05,2.6863788662012666e-05,2.699623473745305e-05,5.2515741117531434e-05,4.93239494971931e-05
5.779886487289332e-05,2.4387682060478255e-05,3.633917003753595e-05,6.926996866241097e-05,4.7882313083391637e-05
4.98901899845805e-05,3.9743466913932934e-05,4.065106259076856e-05,6.199199560796842e-05,4.687320688390173e-05
3.371228012838401e-05,6.744597340002656e-05,3.745657522813417e-05,3.8953421608312055e-05,4.3806317989947274e-05
2.0704796042991802e-05,8.719095058040693e-05,2.8949523766641505e-05,1.870076266641263e-05,4.0554601582698524e-05
1.526000960438978e-05,9.737602522363886e-05,1.869099105533678e-05,7.2593093136674725e-06,4.359752347227186e-05
8.922555025492329e-06,0.00010727479093475267,9.130199941864703e-06,-1.7954673694475787e-06,5.121082722325809e-05
-9.877438969851937e-06,0.00011704807548085228,4.009764964507667e-08,-1.0878348803089466e-05,5.794384196633473e-05
-2.799688263621647e-05,0.00011288526729913428,-7.470664058928378e-06,-1.5312809409806505e-05,6.240112270461395e-05
-2.8959633709746413e-05,8.245981734944507e-05,-1.1390912732167635e-05,-1.009735933621414e-05,6.782987475162372e-05
-1.8670149074750952e-05,3.763357744901441e-05,-1.2373471690807492e-05,-3.661501523311017e-06,7.46582227293402e-05
-1.3317722732608672e-05,7.897050636529457e-06,-1.0434244359203149e-05,-9.72337966231862e-06,7.71840859670192e-05
-2.226380820502527e-05,1.4344606825034134e-05,-4.229291334922891e-06,-2.1562651454587467e-05,7.29957246221602e-05
-4.430432818480767e-05,4.870883276453242e-05,5.187619535718113e-06,-1.3300737919053063e-05,6.488404324045405e-05
-6.504365592263639e-05,7.963732059579343e-05,1.618002170289401e-05,1.531484303995967e-05,5.720343324355781e-05
-7.303588063223287e-05,9.62275589699857e-05,2.385945299465675e-05,4.013092984678224e-05,5.063900971435942e-05
-7.30138344806619e-05,0.00010034631850430742,2.3576643798151053e-05,4.919150524074212e-05,4.201733827358112e-05
-6.992615817580372e-05,8.89978400664404e-05,1.839083051891066e-05,4.248749974067323e-05,3.6628185625886545e-05
-6.320037209661677e-05,6.615807069465518e-05,1.1359073141647968e-05,2.6541005354374647e-05,3.9375037886202335e-05
-5.4936946980888024e-05,4.9176007451023906e-05,1.0256921086693183e-05,1.1382709999452345e-05,4.904095840174705e-05
-5.1092625653836876e-05,4.6860590373398736e-05,9.434234016225673e-06,1.2799876003555255e-06,5.721762863686308e-05
-5.246778528089635e-05,5.063714343123138e-05,6.401007340173237e-06,-4.351180905359797e-06,6.135313742561266e-05
-5.070136103313416e-05,5.267251981422305e-05,1.3700756653634016e-06,-4.711380825028755e-06,6.191302963998169e-05
-5.344038436305709e-05,5.014462294639088e-05,-4.167856786807533e-06,-1.2101656921004178e-06,5.645312194246799e-05
-5.9392579714767635e-05,4.915879253530875e-05,-6.9035968408570625e-06,2.8583542643900728e-06,5.2463725296547636e-05
-5.4319414630299434e-05,5.1298338803462684e-05,-6.579969067388447e-06,7.119534529920202e-06,5.4121872381074354e-05
-3.806354652624577e-05,5.036010406911373e-05,-4.77631283501978e-06,9.364292964164633e-06,5.820126534672454e-05
-2.4153809135896154e-05,4.514276224654168e-05,-4.281003384676296e-06,6.2670633269590326e-06,5.780319042969495e-05
-1.68562401086092e-05,4.3624586396617815e-05,-2.1585510694421828e-06,-5.568040251091588e-06,5.622885510092601e-05
-1.2807195162167773e-05,4.6114641008898616e-05,1.2936700386489974e-06,-2.5811079467530362e-05,5.831319867866114e-05
-1.1511707270983607e-05,4.195113433524966e-05,6.757571554771857e-06,-4.8418900405522436e-05,6.164527439977974e-05
-1.3522607332561165e-05,3.0043473088881e-05,9.186363058688585e-06,-6.702063546981663e-05,6.489100633189082e-05
-1.8207696484751068e-05,2.0344428776297718e-05,7.607985025970265e-06,-8.142392471199855e-05,6.843244045739993e-05
-2.236339969385881e-05,1.8580896721687168e-05,5.157749910722487e-06,-9.075777052203193e-05,6.882710295030847e-05
-3.097525768680498e-05,1.9218963643652387e-05,5.3900630518910475e-06,-8.800526120467111e-05,6.513644621009007e-05
-4.054844976053573e-05,1.91425860975869e-05,8.976289791462477e-06,-7.263687439262867e-05,6.17570331087336e-05
-3.880627264152281e-05,1.848574902396649e-05,1.3126287740305997e-05,-4.8031208280008286e-05,5.9937923651887104e-05
-2.391131238255184e-05,1.8725184418144636e-05,1.3742689588980284e-05,-1.5990397514542565e-05,6.106227374402806e-05
-1.3212541489338037e-05,1.986758979910519e-05,1.182657251774799e-05,1.5285175322787836e-05,6.407019827747717e-05
-1.2499976946855895e-05,2.247190241178032e-05,1.2436449651431758e-05,3.710288001457229e-05,6.517311703646556e-05
-1.5346620784839615e-05,2.8342401492409408e-05,1.5085272025316954e-05,4.944802276440896e-05,6.350856710923836e-05
-1.699430140433833e-05,3.5714976547751576e-05,1.6961072105914354e-05,5.1401850214460865e-05,6.029104406479746e-05
-2.156632035621442e-05,4.7336572606582195e-05,2.1165662474231794e-05,4.399113095132634e-05,5.809626600239426e-05
-3.2586249290034175e-05,6.0055030189687386e-05,2.771343497443013e-05,3.0266919566201977e-05,5.805801265523769e-05
-5.1607948989840224e-05,6.62137899780646e-05,2.898904676840175e-05,1.614300890651066e-05,5.779354978585616e-05
-7.359913433901966e-05,7.790989184286445e-05,2.5025599825312383e-05,5.793624495709082e-06,5.394951585913077e-05
-8.398219506489113e-05,9.647421393310651e-05,2.0905736164422706e-05,-3.934616415790515e-06,4.829636964132078e-05
-8.006946882233024e-05,0.00010397310688858852,1.8519885998102836e-05,-1.5030273971206043e-05,4.6094140998320654e-05
-6.692539318464696e-05,9.886688349070027e-05,1.577019429532811e-05,-3.264086990384385e-05,4.730882938019931e-05
-4.920079300063662e-05,9.332273475592956e-05,1.3569248949352186e-05,-5.1310296839801595e-05,5.193199831410311e-05
-3.023907083843369e-05,8.701538172317669e-05,1.2462970516935457e-05,-6.034155740053393e-05,5.877291187061928e-05
-2.2502606952912174e-05,7.634554640389979e-05,1.3412538464763202e-05,-6.048774957889691e-05,6.588733958778903e-05
-2.8303766157478094e-05,7.276564429048449e-05,1.0918787666014396e-05,-5.4816795454826206e-05,6.898228457430378e-05
-3.1612747989129275e-05,7.838126475689933e-05,8.004587471077684e-06,-4.246621028869413e-05,6.708919681841508e-05
-2.8475309591158293e-05,7.28134618839249e-05,9.530687748338096e-06,-2.4574792405474e-05,6.32691735518165e-05
-2.9952321710879914e-05,3.9354286855086684e-05,1.1507460840221029e-05,-9.285567102779169e-06,6.0875572671648115e-05
-3.0005438020452857e-05,-7.663362339371815e-06,1.4156919860397466e-05,-1.3388877277975553e-06,6.504096381831914e-05
-1.627378696866799e-05,-6.265981210162863e-05,1.6953206795733422e-05,-7.030839697108604e-06,7.247961912071332e-05
9.793938261282165e-06,-0.00013037766620982438,1.8522358004702255e-05,-2.2398717192118056e-05,7.480268686776981e-05
3.478856524452567e-05,-0.00019192560284864157,1.6331034203176387e-05,-3.337967791594565e-05,6.912645767442882e-05
4.751978849526495e-05,-0.00022067212557885796,1.0374526937084738e-05,-3.449873474892229e-05,5.977338878437877e-05
4.6759356337133795e-05,-0.00020486957510001957,3.6622143397835316e-06,-3.1156432669376954e-05,5.2462251915130764e-05
3.397247564862482e-05,-0.0001529965957161039,7.22060406133096e-07,-2.990502616739832e-05,5.1128579798387364e-05
1.2779477401636541e-05,-9.308763401350006e-05,7.369741865659307e-07,-2.6553931093076244e-05,5.308002437232062e-05
-7.252556770254159e-06,-5.1418723160168156e-05,-2.2058264903535019e-07,-1.3175655112718232e-05,5.6394339480903e-05
-1.7102258425438777e-05,-1.54345398186706e-05,-3.0400876767089358e-06,9.254045835405122e-06,5.932343992753886e-05
-1.8048182027996518e-05,3.692017708090134e-05,-1.1600850484683178e-06,2.8695121727650985e-05,5.9123562095919624e-05
-1.1745932170015294e-05,8.445327694062144e-05,7.2650432230148e-06,3.661861046566628e-05,5.748650073655881e-05
-7.4885897447529715e-06,9.558628516970202e-05,1.3626600775751285e-05,3.444225512794219e-05,5.641017560265027e-05
-1.0286044016538654e-05,7.837064185878262e-05,1.3892560673411936e-05,3.057230424019508e-05,5.815238182549365e-05
-1.1398688911867794e-05,5.422163667390123e-05,1.1420825103414245e-05,2.330804090888705e-05,6.256113556446508e-05
-1.0188546184508596e-05,3.3626834920141846e-05,9.532852345728315e-06,9.413704901817255e-06,6.406888860510662e-05
-1.0910454875556752e-05,1.7613907402846962e-05,6.162663794384571e-06,-8.397400051762816e-06,6.135109288152307e-05
-1.1216233360755723e-05,4.2601627683325205e-06,-2.4299936285387957e-06,-3.7904756027273834e-05,6.088363443268463e-05
-1.2348402378847823e-05,-7.090450253599556e-06,-1.2165621228632517e-05,-6.650038267252967e-05,6.708088039886206e-05
-2.4998887965921313e-05,-9.863351806416176e-06,-1.7244210539502092e-05,-7.641781121492386e-05,7.092210580594838e-05
-4.0926730434875935e-05,5.865257662662771e-06,-1.740228799462784e-05,-6.935080455150455e-05,6.800955452490598e-05
-4.5093405788065866e-05,3.155331069137901e-05,-1.5488401913898997e-05,-5.0878286856459454e-05,6.567536911461502e-05
-3.70234738511499e-05,4.967775021214038e-05,-1.0397769074188545e-05,-3.1425624911207706e-05,6.571117410203442e-05
-2.2755701138521545e-05,5.518293983186595e-05,-2.568757054177695e-06,-1.2718628568109125e-05,6.76382624078542e-05
-1.4740297956450377e-05,5.587880514212884e-05,2.340403170819627e-06,4.611203166859923e-06,7.005625957390293e-05
-1.3487303476722445e-05,5.532386785489507e-05,6.626891718042316e-06,2.052148738584947e-05,7.152691250666976e-05
-1.1877872566401493e-05,5.4791576985735446e-05,1.3490668607119005e-05,3.530363392201252e-05,6.871659570606425e-05
-1.1364259080437478e-05,6.14928940194659e-05,2.1645040760631673e-05,4.2921143176499754e-05,6.491796375485137e-05
-1.8689121134229936e-05,7.515636389143765e-05,2.6751124096335843e-05,3.9473423385061324e-05,6.191150896484032e-05
-2.998839227075223e-05,8.617692219559103e-05,2.6603907826938666e-05,3.007914165209513e-05,5.7984689192380756e-05
-3.5607976315077394e-05,8.722070924704894e-05,2.0964458599337377e-05,2.154918183805421e-05,5.542042345041409e-05
-3.27901761920657e-05,8.348764094989747e-05,1.2154415344411973e-05,1.6696605598554015e-05,5.6874403526308015e-05
-2.7731337468139827e-05,8.541806892026216e-05,5.60177022634889e-06,9.40576683206018e-06,6.136219599284232e-05
-2.898720595112536e-05,9.125607903115451e-05,4.215197350276867e-06,-9.830273484112695e-06,6.556114385602996e-05
-4.17404189647641e-05,8.754883310757577e-05,3.871396984322928e-06,-3.4833643439924344e-05,6.688100256724283e-05
-5.675259671988897e-05,7.089303835527971e-05,1.2511575278040254e-06,-4.96559077873826e-05,6.634780584136024e-05
-5.824478284921497e-05,5.545932799577713e-05,-8.334577614732552e-07,-5.0027749239234254e-05,6.483931792899966e-05
-4.801094837603159e-05,4.7856759920250624e-05,-1.0400881222949465e-07,-4.348110087448731e-05,6.258409848669544e-05
-4.095732219866477e-05,3.847839980153367e-05,2.8516253678390058e-06,-3.2231393561232835e-05,6.295012281043455e-05
-4.264915332896635e-05,2.9124190405127592e-05,5.373944077291526e-06,-1.6815645722090267e-05,6.321766704786569e-05
-3.997676321887411e-05,2.9084567358950153e-05,4.861644811171573e-06,1.5717831729489262e-06,5.794399476144463e-05
-2.760986353678163e-05,2.594433317426592e-05,3.951129201595904e-06,1.652504397497978e-05,4.8018700908869505e-05
-2.055047661997378e-05,6.697051958326483e-06,4.6780855882389005e-06,1.837806667026598e-05,4.150846871198155e-05
-2.7591881007538177e-05,-2.352856427023653e-05,3.784517502936069e-06,1.0426632798044011e-05,4.11030268878676e-05
-3.450154690654017e-05,-5.026305734645575e-05,2.1768385067844065e-06,5.9889825934078544e-06,4.4609845645027235e-05
-3.575375012587756e-05,-5.0714981625787914e-05,2.98442023449752e-06,9.402720024809241e-06,4.6959514293121174e-05
-4.025907765026204e-05,-2.1877833205508068e-05,6.012239737174241e-06,1.182123196485918e-05,4.695872848969884e-05
-4.075507968082093e-05,7.716874279140029e-06,5.196722668188158e-06,7.228325102914823e-06,4.728359272121452e-05
-3.231988011975773e-05,2.473442509653978e-05,5.450311846288969e-07,-3.3866201647470007e-06,5.149949720362201e-05
-2.3535283617093228e-05,3.793711948674172e-05,-2.547340727687697e-06,-1.667987999098841e-05,6.239502545213327e-05
-1.945389885804616e-05,5.3128194849705324e-05,-2.327773245269782e-06,-2.5245843062293716e-05,7.19262461643666e-05
-2.291627060913015e-05,6.272510654525831e-05,-3.6659171200881246e-06,-3.111257319687866e-05,7.510895375162363e-05
-3.41070226568263e-05,5.71799828321673e-05,-5.900394171476364e-06,-3.91402245440986e-05,7.433464634232223e-05
-5.078726098872721e-05,4.20528267568443e-05,-7.627660124853719e-06,-4.933838135912083e-05,6.997184391366318e-05
-6.405961175914854e-05,2.6798299586516805e-05,-1.0512323569855653e-05,-6.15011085756123e-05,6.609163392568007e-05
-6.889578071422875e-05,2.2171390810399316e-05,-1.3049836525169667e-05,-7.849428220652044e-05,6.771999323973432e-05
-6.493803084595129e-05,3.054233457078226e-05,-1.8351569451624528e-05,-0.00010446530359331518,7.179059321060777e-05
-5.420954039436765e-05,4.4421449274523184e-05,-2.617212521727197e-05,-0.0001300858857575804,7.2312424890697e-05
-4.222074130666442e-05,5.2876224799547344e-05,-3.0870112823322415e-05,-0.00013903599756304175,6.643691449426115e-05
-3.5489050787873566e-05,5.062822310719639e-05,-2.8220174499438144e-05,-0.00012437190162017941,5.81952954235021e-05
-3.08131639030762e-05,3.316354559501633e-05,-2.095883246511221e-05,-8.83114043972455e-05,5.3324034524848685e-05
-2.3299226086237468e-05,-3.4032936468975095e-07,-1.1024687410099432e-05,-3.8186470192158595e-05,5.019075615564361e-05
-2.0541518097161315e-05,-2.964866507682018e-05,1.6872509149834514e-06,1.5088842701516114e-05,4.9221744120586663e-05
-2.9005386750213802e-05,-2.4805423890938982e-05,1.352329763903981e-05,6.0547248722286895e-05,5.171045631868765e-05
-3.5621909773908556e-05,9.729081284604035e-06,2.0643032257794403e-05,9.008757479023188e-05,5.536195385502651e-05
-2.5675621145637706e-05,4.0913422708399594e-05,2.3769394829287194e-05,0.00010277866385877132,5.7666336942929775e-05
-9.232891898136586e-06,5.2323575800983235e-05,2.5611629098420963e-05,0.00010248981561744586,5.836089258082211e-05
2.794678948703222e-06,4.555409759632312e-05,2.8719061447191052e-05,9.542711632093415e-05,5.6948218116303906e-05
1.18886491691228e-05,3.08738490275573e-05,3.165179077768698e-05,8.677865844219923e-05,5.455786231323145e-05
1.6862748452695087e-05,2.1663032384822145e-05,3.063026815652847e-05,7.361332973232493e-05,5.848507134942338e-05
1.7651434973231517e-05,2.3511855033575557e-05,2.3931681425892748e-05,5.316237366059795e-05,6.801725248806179e-05
1.8487624402041547e-05,2.7845455406350084e-05,1.159545445261756e-05,2.6859539502765983e-05,7.466795068467036e-05
1.8442398868501186e-05,1.0245536032016389e-05,1.657670395616151e-06,1.1169228855578694e-05,7.751630619168282e-05
1.821513069444336e-05,-1.5039036043162923e-05,-8.035385121729632e-07,9.277756362280343e-06,7.834443385945633e-05
1.1953589819313493e-05,-7.776407983328681e-06,-3.576979679564829e-06,6.383147137967171e-06,7.400654430966824e-05
-9.101115097109869e-07,1.0757742529676761e-05,-9.070488886209205e-06,2.36328924074769e-06,6.511261744890362e-05
-1.7940201360033825e-05,1.7628755813348107e-05,-1.0179179298575036e-05,-2.1916105197306024e-06,5.6427830713801086e-05
-3.077462315559387e-05,1.9973489543190226e-05,-6.363221473293379e-06,-7.026861112535698e-06,5.128138218424283e-05
-2.9919536245870404e-05,2.400038283667527e-05,-3.2355212624679552e-06,-1.411465200362727e-05,5.0128182920161635e-05
-2.822853457473684e-05,2.9214366804808378e-05,-6.806928922742372e-07,-1.817164411477279e-05,5.045402576797642e-05
-3.0039875127840787e-05,4.516968328971416e-05,1.564106469231774e-06,-1.7989565094467252e-05,5.0469614507164806e-05
-3.100047615589574e-05,6.939972081454471e-05,3.7900113056821283e-06,-1.5990050087566487e-05,5.256624717731029e-05
-3.213638410670683e-05,8.611347584519535e-05,5.110394795337925e-06,-1.7624939573579468e-05,5.680034155375324e-05
-3.4937678719870746e-05,8.962154242908582e-05,4.808649464393966e-06,-2.6164578230236657e-05,5.977846012683585e-05
-3.8501220842590556e-05,8.218677248805761e-05,5.2050290832994506e-06,-3.665767872007564e-05,5.9621608670568094e-05
-4.0722483390709385e-05,5.9076275647385046e-05,5.648895239573903e-06,-4.254501618561335e-05,5.6609173043398187e-05
-4.197596717858687e-05,2.4159127860912122e-05,5.502701242221519e-06,-4.107177664991468e-05,5.300642078509554e-05
-4.207044912618585e-05,8.894799066183623e-06,6.061406111257384e-06,-3.41906379617285e-05,5.4025200370233506e-05
-4.346020796219818e-05,2.1149866370251402e-05,8.502920536557212e-06,-2.4383343770750798e-05,5.9009940741816536e-05
-4.640604311134666e-05,3.7889029044890776e-05,8.584507668274455e-06,-1.521687227068469e-05,6.449579814216122e-05
-4.734483809443191e-05,5.154246900929138e-05,6.27236613581772e-06,-7.675572305743117e-06,6.506534555228427e-05
-4.496109249885194e-05,7.437393651343882e-05,8.184859325410798e-06,-9.945570127456449e-06,5.944005533820018e-05
-4.223740688757971e-05,0.0001016608439385891,1.3118302376824431e-05,-2.5656676370999776e-05,5.4596752306679264e-05
-3.8249261706369e-05,0.00011463111877674237,1.2165062798885629e-05,-4.425379302119836e-05,5.3488038247451186e-05
-3.208723501302302e-05,0.0001053504747687839,5.349877028493211e-06,-5.9349848015699536e-05,5.597496419795789e-05
-2.689271786948666e-05,8.356928447028622e-05,-1.1340546279825503e-06,-7.179357635322958e-05,5.741367203881964e-05
-2.979985947604291e-05,6.564415525645018e-05,-5.267821507004555e-06,-7.963839016156271e-05,5.64134752494283e-05
-4.3666143028531224e-05,5.873308327863924e-05,-7.638280294486322e-06,-8.822321251500398e-05,5.200932719162665e-05
-5.471908662002534e-05,3.169603587593883e-05,-8.65790934767574e-06,-8.413552131969482e-05,4.277863627066836e-05
-5.893853085581213e-05,-2.130546454282012e-05,-6.2944277487986255e-06,-5.91454045206774e-05,3.960259346058592e-05
-6.471383676398546e-05,-6.726847641402856e-05,-2.40129907069786e-06,-2.4294313334394246e-05,4.616548176272772e-05
-6.880278669996187e-05,-9.122742631006986e-05,2.390953113717842e-06,1.5650624845875427e-05,5.620486263069324e-05
-7.25063364370726e-05,-9.275715274270624e-05,1.0027812095358968e-05,5.4155334510141984e-05,6.419866986107081e-05
-8.249180973507464e-05,-8.12384023447521e-05,1.9057006284128875e-05,8.022684778552502e-05,6.36293989373371e-05
-9.278670768253505e-05,-6.787514575989917e-05,2.364137617405504e-05,9.133627463597804e-05,5.785129178548232e-05
-8.52666053106077e-05,-5.0561357056722045e-05,2.187047357438132e-05,9.470136137679219e-05,5.3779935115017e-05
-5.558224074775353e-05,-2.458431299601216e-05,2.5452291083638556e-05,9.067534847417846e-05,5.5319997045444325e-05
-2.9769857064820826e-05,1.0850328180822544e-05,3.1534429581370205e-05,7.871609705034643e-05,5.83828950766474e-05
-1.668229015194811e-05,5.0643677241168916e-05,3.2782914786366746e-05,6.082289110054262e-05,5.958479596301913e-05
-3.0662552035209956e-06,9.134369611274451e-05,3.056173227378167e-05,4.1440376662649214e-05,5.756798418588005e-05
2.1124629711266607e-05,0.00013597923680208623,2.558953383413609e-05,2.2869722670293413e-05,5.291128400131129e-05
5.018934461986646e-05,0.00017311547708231956,1.8197666577179916e-05,1.1765578165068291e-06,5.279259858070873e-05
6.774818029953167e-05,0.00016838448937050998,9.764511560206302e-06,-2.7837231755256653e-05,5.9097605117131025e-05
7.107706187525764e-05,0.00010371142707299441,2.116503992510843e-06,-6.593423313461244e-05,6.559405301231891e-05
7.386405923170969e-05,7.004260851317667e-07,-5.284038707031868e-06,-0.00011093699868069962,6.773715722374618e-05
8.67231356096454e-05,-9.51137553784065e-05,-1.0087531336466782e-05,-0.00014674293925054371,6.722957186866552e-05
9.537881123833358e-05,-0.00013471388956531882,-1.1209172043891158e-05,-0.00015716241614427418,6.715537165291607e-05
7.132702739909291e-05,-0.00010538019705563784,-1.0558636859059334e-05,-0.00014642727910540998,6.616621976718307e-05
1.5151981642702594e-05,-4.195090150460601e-05,-1.0381937499914784e-05,-0.00012671771401073784,6.017678606440313e-05
-3.692720929393545e-05,6.244010364753194e-06,-7.986211130628362e-06,-0.00010044765076600015,5.1257084123790264e-05
-5.711474295821972e-05,2.397861135250423e-05,-5.566873369389214e-06,-6.381289131240919e-05,4.525087206275202e-05
-4.705441097030416e-05,2.967960426758509e-05,-7.338450132010621e-07,-1.4628107237513177e-05,4.3938376620644704e-05
-2.299636253155768e-05,3.6405661376193166e-05,9.91609431366669e-06,4.1979590605478734e-05,4.344883200246841e-05
-2.344604581594467e-06,3.8265814509941265e-05,1.9163904653396457e-05,8.896395593183115e-05,4.144941340200603e-05
2.0184636468911776e-06,3.2661166187608615e-05,1.8168668248108588e-05,0.0001092268867068924,3.9909285987960175e-05
-4.93334391649114e-06,3.267125430284068e-05,9.677571142674424e-06,9.612632129574195e-05,4.6870260121067986e-05
-1.6864625649759546e-05,3.515596472425386e-05,5.217942998569924e-06,6.557756569236517e-05,5.809207141282968e-05
-2.9196260584285483e-05,3.3265401725657284e-05,8.221833923016675e-06,3.584460137062706e-05,5.925676305196248e-05
-3.471849413472228e-05,3.5158151149516925e-05,8.457306648779195e-06,1.195952336274786e-05,5.323374716681428e-05
-3.3511514629935846e-05,3.5652534279506654e-05,2.8501940505520906e-06,-4.699491455539828e-06,5.175433761905879e-05
-2.1253359591355547e-05,3.6022513086209074e-05,-7.578964300591906e-08,-1.3775985280517489e-05,5.57769562874455e-05
-2.900259005400585e-06,3.4966000384883955e-05,-1.8518043134463369e-06,-1.1891020221810322e-05,6.0145397583255544e-05
2.6734862785815494e-06,3.217617268091999e-05,-1.1356632967363112e-06,-5.4899678616493475e-06,6.177320028655231e-05
-7.026829734968487e-06,2.834159204212483e-05,4.3839921204380516e-07,3.9172837773548963e-07,5.764068919233978e-05
-2.1394354916992597e-05,2.9623286536661908e-05,-6.772141958322209e-09,3.977747383032693e-06,5.291882189339958e-05
-3.240970181650482e-05,3.6331985029391944e-05,2.4348114493477624e-06,6.838935405539814e-06,5.3037038014736027e-05
-4.211640771245584e-05,4.344799890532158e-05,8.337879080499988e-06,2.703169684536988e-06,5.693336061085574e-05
-5.635945126414299e-05,5.3270970965968445e-05,1.052136576618068e-05,-1.8741398889687844e-05,6.127389497123659e-05
-7.475292659364641e-05,6.345137080643326e-05,4.842697762796888e-06,-5.008753578295e-05,6.242220842977986e-05
-8.703516505192965e-05,6.723871774738654e-05,-2.4464836769766407e-06,-7.528653077315539e-05,5.911113112233579e-05
-8.152210648404434e-05,6.158290489111096e-05,-4.817379249288933e-06,-8.241276373155415e-05,5.326803875504993e-05
-6.010634024278261e-05,5.663890624418855e-05,-1.426305971108377e-06,-7.048475526971743e-05,5.118670378578827e-05
-3.757056765607558e-05,5.6179302191594616e-05,3.0471451282210182e-06,-4.5910746848676354e-05,5.2923256589565426e-05
-2.4372619009227492e-05,5.716659143217839e-05,5.043872079113498e-06,-1.549128137412481e-05,5.621296804747544e-05
-1.960964800673537e-05,5.497907113749534e-05,5.370366579882102e-06,1.471737414249219e-05,5.976545071462169e-05
-2.1231850041658618e-05,4.079775317222811e-05,7.632873348484281e-06,3.1380292057292536e-05,6.121228216215968e-05
-2.6126852390007116e-05,2.0354542357381433e-05,1.3890605259803124e-05,3.138321699225344e-05,6.107949593570083e-05
-2.6742054615169764e-05,2.6329800675739534e-05,2.292382123414427e-05,2.935337761300616e-05,6.359444523695856e-05
-2.5003029804793186e-05,4.5949211198603734e-05,3.0435712687904015e-05,3.551162444637157e-05,6.599904008908197e-05
-3.3921623980859295e-05,5.76589118281845e-05,3.391908103367314e-05,4.7921330406097695e-05,6.287552241701633e-05
-5.1574035751400515e-05,5.997544576530345e-05,2.972315087390598e-05,5.767267430201173e-05,5.973295264993794e-05
-8.019090455491096e-05,6.645727262366563e-05,2.1278417989378795e-05,5.65558293601498e-05,5.9143749240320176e-05
-0.00012145843356847763,9.3431917775888e-05,1.553391666675452e-05,4.989334047422744e-05,5.9610410971799865e-05
-0.00014631953672505915,8.765705570112914e-05,1.308583978243405e-05,4.52944113931153e-05,6.014759492245503e-05
-0.00013973929162602872,3.5374119761399925e-05,1.63579734362429e-05,4.4074982724851e-05,6.109860260039568e-05
-0.0001199699763674289,-1.7636712072999217e-05,2.0537798263831064e-05,4.244251613272354e-05,6.365242734318599e-05
-0.00010687489702831954,-4.308655843487941e-05,1.999932646867819e-05,3.443261084612459e-05,6.593766011064872e-05
-0.0001051113213179633,-3.937987639801577e-05,1.8101449313689955e-05,2.350325303268619e-05,6.446010229410604e-05
-0.00010103487875312567,-2.221304748672992e-05,2.0067123841727152e-05,1.6088861229945906e-05,5.980215792078525e-05
-8.886848081601784e-05,-8.064234862104058e-06,2.3031134332995862e-05,1.0712072253227234e-05,5.854447590536438e-05
-6.874932296341285e-05,-3.4359732126176823e-06,2.3419363060384057e-05,7.333494068006985e-06,5.8841444115387276e-05
-4.476445974432863e-05,-6.273090548347682e-06,2.0848419808316976e-05,3.8791931729065254e-06,5.636299101752229e-05
-2.451030013617128e-05,-3.919822847819887e-05,1.720495129120536e-05,-4.279985660105012e-06,5.141000292496756e-05
-4.692577931564301e-06,-9.995984146371484e-05,1.3078569281788077e-05,-1.4811475921305828e-05,4.874224396189675e-05
1.785270251275506e-05,-0.0001459470222471282,7.761065717204474e-06,-1.7772214050637558e-05,5.309621701599099e-05
3.65984597010538e-05,-0.0001278610434383154,3.899375315086218e-06,-1.1067684681620449e-05,6.3158935518004e-05
4.8992766096489504e-05,-5.297976895235479e-05,-1.6768881039297412e-07,-4.158917363383807e-06,7.226379966596141e-05
5.7084918807959184e-05,1.1294728210486937e-05,-8.296132364193909e-06,-7.255801847350085e-06,7.44365097489208e-05
5.8168487157672644e-05,2.5586083211237565e-05,-1.9283999790786766e-05,-2.0898603906971402e-05,7.286149775609374e-05
5.166558548808098e-05,2.329346170881763e-05,-2.6121120754396543e-05,-2.991147084685508e-05,6.918842700542882e-05
4.2944353481289e-05,4.607628216035664e-05,-2.5727473257575184e-05,-3.044578988919966e-05,6.546360236825421e-05
3.751519398065284e-05,8.725518273422495e-05,-1.9342578525538556e-05,-3.285647107986733e-05,6.517385190818459e-05
3.158971230732277e-05,0.00011464644194347784,-1.0899191693169996e-05,-3.943885531043634e-05,6.729751476086676e-05
2.1004943846492097e-05,0.00010238790127914399,-7.868245120334905e-06,-4.3185205868212506e-05,6.926000787643716e-05
1.0826671314134728e-05,5.927151505602524e-05,-8.583780982007738e-06,-4.1051571315620095e-05,7.098300557117909e-05
7.190209998952923e-06,1.477815840189578e-05,-9.718014553072862e-06,-3.480628220131621e-05,7.310195360332727e-05
8.36603339848807e-06,-9.538101949146949e-06,-7.684723641432356e-06,-3.2710162486182526e-05,7.240883860504255e-05
1.550905108160805e-05,-1.7700096577755176e-05,-1.284607037632668e-06,-3.6173783882986754e-05,6.772731285309419e-05
2.411176319583319e-05,-5.686281383532332e-06,3.3002536383719416e-06,-3.882036617142148e-05,6.288193253567442e-05
2.398579272266943e-05,3.966451549786143e-05,3.4379859243927058e-06,-3.8182868593139574e-05,6.121318438090384e-05
1.6723746739444323e-05,8.815871842671186e-05,-1.186599547509104e-06,-3.551100962795317e-05,6.326503353193402e-05
1.2334892744547687e-05,0.00011032088514184579,-8.030829690142127e-08,-3.4591041185194626e-05,6.726376886945218e-05
6.27001691100304e-06,0.00010547725105425343,4.468748556973878e-06,-3.4103992220479995e-05,6.751477485522628e-05
-1.0336586456105579e-05,8.72274613357149e-05,2.823289378284244e-06,-3.405648021725938e-05,6.147634849185124e-05
-3.561451376299374e-05,7.809848466422409e-05,-3.130106733806315e-06,-3.738825398613699e-05,5.870999302715063e-05
-5.753169534727931e-05,7.2398608608637e-05,-8.717035598237999e-06,-4.129399894736707e-05,6.049552030162886e-05
-6.507289799628779e-05,6.130906695034355e-05,-9.675723049440421e-06,-4.14844362239819e-05,6.154278526082635e-05
-6.979284080443904e-05,4.89688572997693e-05,-4.699260443885578e-06,-4.14596070186235e-05,5.91368370805867e-05
-7.319515862036496e-05,4.3246862333035097e-05,1.682290871940495e-06,-4.055776298628189e-05,5.51338198420126e-05
-6.701348320348188e-05,3.7706613511545584e-05,2.1722339624830056e-06,-3.4022334148176014e-05,5.461208274937235e-05
-5.501083069248125e-05,2.9719887606916018e-05,-1.0323986998628243e-06,-2.4535867851227522e-05,5.697871893062256e-05
-4.4760079617844895e-05,2.515440974093508e-05,-3.7199313283053925e-06,-1.555885683046654e-05,5.91921379964333e-05
-3.828440821962431e-05,2.7248679543845356e-05,-2.531141035433393e-06,-1.010453070193762e-05,6.324592686723918e-05
-3.4128272091038525e-05,2.8785345421056263e-05,1.397524897583935e-06,-9.35727894102456e-06,6.623729859711602e-05
-3.1982490327209234e-05,2.3238531866809353e-05,3.7590514239127515e-06,-1.1848981557704974e-05,6.497096183011308e-05
-2.993916132254526e-05,1.2983468877791893e-05,3.739281964953989e-06,-1.3845667126588523e-05,6.473229586845264e-05
-2.8091984859202057e-05,5.6037106332951225e-06,6.638462764385622e-06,-1.2728700312436558e-05,6.676446355413646e-05
-2.9475451810867526e-05,1.090638033929281e-05,1.3480050256475806e-05,-8.399364560318645e-06,6.87094870954752e-05
-3.551428017090075e-05,2.6198091291007586e-05,1.8388715034234338e-05,-5.340315965440823e-06,6.73349859425798e-05
-3.882770397467539e-05,3.9571867091581225e-05,1.725019137666095e-05,-8.291765880130697e-06,6.522271723952144e-05
-3.584258593036793e-05,4.314052785048261e-05,1.4703696251672227e-05,-9.928870895237196e-06,6.403441511793062e-05
-3.241826925659552e-05,4.641210034606047e-05,1.5771111065987498e-05,-1.8051061942969682e-06,6.326023867586628e-05
-3.060759627260268e-05,4.878283289144747e-05,1.8640408598002978e-05,5.755021447839681e-06,6.224736716831103e-05
-2.6069483283208683e-05,4.5037279051030055e-05,2.0849973225267604e-05,1.7848079778559622e-06,6.229150312719867e-05
-2.293355828442145e-05,4.4243683078093454e-05,1.9481172785162926e-05,-8.596285624662414e-06,6.202473741723225e-05
-2.5541874492773786e-05,5.6548244174337015e-05,1.5100333257578313e-05,-1.5388466636068188e-05,5.905792932026088e-05
-3.328972161398269e-05,7.14225898263976e-05,1.2187687389086932e-05,-1.8649830963113345e-05,5.7043613196583465e-05
-4.057666956214234e-05,8.11255958979018e-05,1.1725870535883587e-05,-1.9541628716979176e-05,6.0409547586459666e-05
