-2.0941608454450034e-05,1.701099972706288e-05,7.4102372309425846e-06,-1.6431415133411065e-05,5.8481637097429484e-05
-2.3530808903160505e-05,9.336120456282515e-06,3.1558672617393313e-06,-1.2873273590230383e-05,5.5519765737699345e-05
-2.187385325669311e-05,7.088902293617139e-06,-2.0807606233574916e-06,-3.5986461170978146e-06,5.643937402055599e-05
-1.6387879441026598e-05,1.3322162885742728e-05,-8.497423550579697e-06,4.714772785519017e-06,5.892811168450862e-05
-1.453749428037554e-05,1.9837583749904297e-05,-8.585765499447007e-06,7.2637149060028605e-06,6.198237679200247e-05
-1.9171422536601312e-05,2.412879439361859e-05,-2.6008765416918322e-06,6.118976216384908e-06,6.482936441898346e-05
-2.7401518309488893e-05,2.756358117039781e-05,-8.896857934814761e-07,3.434695145188016e-06,6.6395390604157e-05
-3.430635842960328e-05,2.818915709212888e-05,-3.443956302362494e-06,-3.8415481640186044e-07,6.600566121051088e-05
-3.7610654544550925e-05,2.756168760242872e-05,-5.220800176175544e-06,-2.345160055483575e-06,6.453575770137832e-05
-3.456135164014995e-05,2.8739499612129293e-05,-3.578723863029154e-06,-2.8717488476104336e-06,6.358490645652637e-05
-2.9783410354866646e-05,2.9741991966147907e-05,4.334773962000327e-08,-4.842851467401488e-06,6.250084697967395e-05
-2.7157819204148836e-05,2.9012426239205524e-05,3.2721982279326767e-06,-8.489852007187437e-06,6.009506250848062e-05
-2.731851054704748e-05,2.7076184778707102e-05,4.661248112824978e-06,-1.1200322660442907e-05,5.4644358897348866e-05
-2.9991846531629562e-05,2.5838731744443066e-05,4.310264557716437e-06,-1.1203671419934835e-05,5.106467506266199e-05
-3.247345011914149e-05,2.5861743779387325e-05,3.215525339328451e-06,-8.275093932752497e-06,5.126987161929719e-05
-3.100124013144523e-05,2.4940274670370854e-05,3.2804537113406695e-06,-6.158183623483637e-06,5.299063923303038e-05
-2.856258834071923e-05,2.252383819723036e-05,4.026985607197275e-06,-8.265356882475317e-06,5.553873779717833e-05
-3.236043994547799e-05,2.0302437405916862e-05,4.248516233928967e-06,-1.2064967449987307e-05,5.697193046216853e-05
-4.008245741715655e-05,1.971187157323584e-05,3.4449055874574697e-06,-1.38319073812454e-05,5.7065077271545306e-05
-4.224844815325923e-05,1.991053795791231e-05,3.7880220133956755e-06,-1.3168810255592689e-05,5.4880543757462874e-05
-3.593854125938378e-05,2.1996906070853584e-05,5.682834398612613e-06,-9.89932959782891e-06,4.8864323616726324e-05
-2.7951609808951616e-05,2.5028386517078616e-05,7.16309659765102e-06,-7.483864919777261e-06,4.39076975453645e-05
-2.0948118617525324e-05,2.5068040486075915e-05,7.881058991188183e-06,-1.0069506060972344e-05,4.59171315014828e-05
-1.5397949027828872e-05,2.7925232643610798e-05,6.9013540269224904e-06,-1.6618796507827938e-05,5.109075937070884e-05
-1.5526629795203917e-05,3.344804281368852e-05,5.222946583671728e-06,-1.9763598174904473e-05,5.1276845624670386e-05
-1.590939973539207e-05,3.567430030670948e-05,5.521314960788004e-06,-1.785895619832445e-05,4.823334529646672e-05
-1.4417702914215624e-05,3.6432695196708664e-05,5.866429546586005e-06,-1.7106453015003353e-05,4.843448186875321e-05
-1.617203452042304e-05,3.668884528451599e-05,6.432600457628723e-06,-1.4839662981103174e-05,5.060273906565271e-05
-2.0555553419399075e-05,3.822340295300819e-05,3.3565270314284135e-06,-1.0217704584647436e-05,5.0491329602664337e-05
-2.9456567062879913e-05,4.093119059689343e-05,-5.250637514109258e-06,-9.499555744696409e-06,5.131278157932684e-05
-3.810063935816288e-05,4.06794497394003e-05,-1.4105220543569885e-05,-1.5036625882203225e-05,5.396749475039542e-05
-4.379494930617511e-05,3.53729265043512e-05,-1.8446087779011577e-05,-1.9356109987711534e-05,5.346247417037375e-05
-4.8291185521520674e-05,3.2929721783148125e-05,-1.440545565856155e-05,-1.6420322936028242e-05,4.866827657679096e-05
-4.582795736496337e-05,3.525903957779519e-05,-1.1161268048454076e-05,-1.0834976819751319e-05,4.535168409347534e-05
-3.916269997716881e-05,4.0640861698193476e-05,-8.673407137393951e-06,-8.46841521706665e-06,4.830227408092469e-05
-3.195840326952748e-05,4.3396448745625094e-05,-5.567771950154565e-06,-8.700506441527978e-06,5.483018685481511e-05
-2.7311716621625237e-05,4.219392576487735e-05,-6.259414476517122e-06,-8.27337134978734e-06,5.812637027702294e-05
-2.6052464818349108e-05,3.734236452146433e-05,-1.0364592526457272e-05,-9.537614459986798e-06,5.50360455235932e-05
-2.511339698685333e-05,3.062757969019003e-05,-1.0072208169731312e-05,-1.1631048437266145e-05,5.473696728586219e-05
-2.342201150895562e-05,2.5420555175514892e-05,-3.944872787542408e-06,-1.0495180504221935e-05,5.8714827900985256e-05
-2.047710404440295e-05,2.177122951252386e-05,6.720251235492469e-07,-7.199224000942195e-06,5.982461152598262e-05
-1.7694186681183055e-05,2.2098949557403103e-05,3.1264139579434413e-06,-6.410549758584239e-06,5.714101280318573e-05
-1.6426147340098396e-05,2.519304325687699e-05,9.508373295830097e-06,-9.904364560497925e-06,5.550022251554765e-05
-1.682200854702387e-05,3.176945392624475e-05,1.9028120732400566e-05,-1.5470888683921658e-05,5.7604553148848936e-05
-1.825070648919791e-05,3.9854872738942504e-05,2.2684833311359398e-05,-1.7802427464630455e-05,6.033389217918739e-05
-1.9685805455083027e-05,4.663000436266884e-05,2.2509419068228453e-05,-1.3877313904231414e-05,6.329622556222603e-05
-1.706428884062916e-05,4.6702378313057125e-05,2.3957754820003174e-05,-6.803134510846576e-06,6.578055035788566e-05
-1.0888166798395105e-05,4.189143510302529e-05,2.468475213390775e-05,-5.654056622006465e-06,6.60497898934409e-05
-7.438261491188314e-06,3.6758592614205554e-05,2.234804560430348e-05,-1.1763263501052279e-05,6.519963062601164e-05
-8.550995516998228e-06,3.09578790620435e-05,2.175562985939905e-05,-1.5958008589223027e-05,6.370666960719973e-05
-1.3451205632009078e-05,2.6434441679157317e-05,2.5107550754910335e-05,-1.4051867765374482e-05,6.08940827078186e-05
-1.9771485312958248e-05,2.560679058660753e-05,2.9537768568843603e-05,-8.65603669808479e-06,6.016605402692221e-05
-2.247744305350352e-05,2.614906225062441e-05,2.857268373190891e-05,-4.705531409854302e-06,6.190613930812106e-05
-2.3123920982470736e-05,3.119764005532488e-05,2.413586298644077e-05,-1.888661927296198e-06,6.13380761933513e-05
-2.291353484906722e-05,3.6508812627289444e-05,1.8696404367801733e-05,7.984304488672933e-07,6.031864177202806e-05
-2.4133300030371174e-05,3.7209567381069064e-05,1.3497680811269674e-05,1.1834971473945188e-06,5.91318093938753e-05
-2.7953326934948564e-05,3.649015343398787e-05,1.0005825060943607e-05,-1.7986845932682627e-06,5.901825352339074e-05
-3.128241223748773e-05,3.740212196134962e-05,6.861649580969242e-06,-7.168022420955822e-06,6.123341881902888e-05
-3.0327726562973112e-05,3.746860602404922e-05,5.319587216945365e-06,-1.0718919838836882e-05,6.212297012098134e-05
-2.7816651709144935e-05,2.7725473046302795e-05,2.6546899789536837e-06,-6.782643140468281e-06,5.997709013172425e-05
-2.3628606868442148e-05,1.791590875654947e-05,-4.787456418853253e-06,2.5408095893908467e-07,5.7055196521105245e-05
-1.696409708529245e-05,1.8361442926106974e-05,-1.1963184988417197e-05,3.347109213791555e-06,5.922767013544217e-05
-1.5767594959470443e-05,1.9190447346773e-05,-1.2731185051961802e-05,2.028661583608482e-06,6.33365852991119e-05
-1.7077310985769145e-05,1.4795801689615473e-05,-8.77287493494805e-06,7.34749619368813e-07,6.352229684125632e-05
-1.7833372112363577e-05,1.2043208698742092e-05,-5.8778027778316755e-06,2.7201429020351497e-06,5.884633355890401e-05
-1.8618138710735366e-05,1.4128387192613445e-05,-9.88562260317849e-06,4.227600129524944e-06,5.57177554583177e-05
-2.1737007045885548e-05,1.7473534171585925e-05,-2.018088343902491e-05,3.042895968974335e-06,5.537181641557254e-05
-2.7595855499384925e-05,1.7821823348640464e-05,-2.9144675863790326e-05,1.2811268561563338e-06,5.6307646445930004e-05
-3.3355026971548796e-05,1.7441852833144367e-05,-2.8621261662920006e-05,-2.1277524808738235e-07,5.5707336287014186e-05
-3.533115523168817e-05,1.6852163753355853e-05,-1.953333594428841e-05,-2.7808896447822917e-06,5.3349052905105054e-05
-3.515192656777799e-05,1.47214832395548e-05,-6.638690592808416e-06,-7.1126783041108865e-06,5.1790753786917776e-05
-3.535208452376537e-05,1.3839077837474179e-05,6.124565061327303e-06,-1.0550023944233544e-05,4.923312008031644e-05
-3.3611060644034296e-05,1.647766839596443e-05,1.6373494872823358e-05,-1.2288628568057902e-05,4.760337105835788e-05
-2.9173696020734496e-05,1.994221383938566e-05,2.089598092425149e-05,-1.3855413271812722e-05,4.882541543338448e-05
-2.4701243091840297e-05,2.2811602320871316e-05,2.216703796875663e-05,-1.3710371604247484e-05,5.2307976147858426e-05
-2.2343443561112508e-05,2.844610389729496e-05,2.628452784847468e-05,-1.1381626791262534e-05,5.4907737649045885e-05
-2.1432053472381085e-05,3.991844641859643e-05,2.949179361166898e-05,-1.1603209713939577e-05,5.513424548553303e-05
-2.367920387769118e-05,5.31710684299469e-05,2.7733756724046543e-05,-1.4385668691829778e-05,5.463189881993458e-05
-3.0910217901691794e-05,5.7623794418759644e-05,2.4269284040201455e-05,-1.6645100913592614e-05,5.502017302205786e-05
-3.8408590626204386e-05,5.102497016196139e-05,1.8288059436599724e-05,-1.7534999642521143e-05,5.70912889088504e-05
-4.001999332103878e-05,3.760865729418583e-05,1.393916318193078e-05,-1.3023765859543346e-05,6.235165346879512e-05
-3.5581404517870396e-05,2.190302257076837e-05,1.3369613952818327e-05,-7.886605999374297e-06,6.600828055525199e-05
-2.9091759643051773e-05,1.1306288797641173e-05,1.0651075172063429e-05,-9.238749953510705e-06,6.73445756547153e-05
-2.6696481654653326e-05,1.4284385542850941e-05,8.694850293977652e-06,-1.2473866263462696e-05,6.727188156219199e-05
-2.422415309411008e-05,2.633847361721564e-05,5.228716418059776e-06,-1.0991754606948234e-05,6.628607661696151e-05
-2.2481077394331805e-05,3.340844705235213e-05,1.6213560911637614e-06,-6.9865268415014725e-06,6.562459020642564e-05
-2.4052094886428677e-05,3.537051088642329e-05,4.902609163082161e-08,-5.651500032399781e-06,6.542049959534779e-05
-2.474542816344183e-05,3.447554263402708e-05,-1.090724254027009e-06,-6.7048131313640624e-06,6.638978084083647e-05
-2.1232737708487548e-05,3.3568507205927745e-05,-2.6625298232829664e-07,-8.752320354687981e-06,6.558185123139992e-05
-1.2360304936009925e-05,3.184802699252032e-05,3.2379143704019953e-06,-9.468457392358687e-06,6.302274414338171e-05
-1.6740964383643586e-06,2.5925079171429388e-05,6.331573786155786e-06,-7.777193786751013e-06,6.0196183767402545e-05
5.395468178903684e-06,2.113332629960496e-05,4.458559487829916e-06,-6.547966222569812e-06,5.7549241319065914e-05
5.786736892332556e-06,2.403758480795659e-05,-4.294747952826583e-07,-5.4823458413011394e-06,5.8305682614445686e-05
-1.0192318313784199e-06,3.392104190425016e-05,-3.0521921416948317e-06,-5.692608283425216e-06,6.152200512588024e-05
-1.6379875887650996e-05,4.195975998300128e-05,-1.2063949270668672e-06,-7.864829967729747e-06,6.538050365634263e-05
-3.317003574920818e-05,4.385652573546395e-05,1.509639901087212e-06,-1.109121058107121e-05,6.66872292640619e-05
-4.2815816414076835e-05,4.250493657309562e-05,1.2264440556464251e-06,-1.3836302059644368e-05,6.390325870597735e-05
-4.591519609675743e-05,4.055215686094016e-05,-1.4355510984387365e-06,-1.5299283404601738e-05,6.075994315324351e-05
-4.7676603571744636e-05,3.669211218948476e-05,-2.557673496994539e-06,-1.7498316083219834e-05,5.796217737952247e-05
-4.5592139940708876e-05,3.9750171708874404e-05,-1.0084197583637433e-06,-2.2315878595691174e-05,5.55576007172931e-05
-3.637404734035954e-05,5.537339166039601e-05,1.2808922065232764e-06,-2.5120030841208063e-05,5.3925141401123255e-05
-2.5054378056665882e-05,6.70086665195413e-05,1.7229085642611608e-06,-2.088948713208083e-05,5.338267146726139e-05
-1.898043956316542e-05,5.880740354768932e-05,-6.163444368212367e-07,-1.4623863535234705e-05,5.349444109015167e-05
-1.9381339370738715e-05,3.906578422174789e-05,-2.8282643143029418e-06,-1.1281180377409328e-05,5.416090789367445e-05
-2.140681135642808e-05,2.180452247557696e-05,-2.438125193293672e-06,-1.18619736895198e-05,5.465442518470809e-05
-2.176391899411101e-05,3.2926761832641205e-06,-3.880763415509136e-06,-1.3733082596445456e-05,5.254564530332573e-05
-2.0334804503363557e-05,-2.705821316340007e-05,-3.222805617042468e-06,-1.4612608538300265e-05,5.093619256513193e-05
-1.717078521323856e-05,-5.506347224581987e-05,8.889480795915006e-07,-1.6775600670371205e-05,5.547053297050297e-05
-1.3871375813323539e-05,-5.1504335715435445e-05,2.8359847874526167e-06,-2.2584285034099594e-05,6.345519796013832e-05
-1.588351369719021e-05,-2.0705987481051125e-05,4.0027412069321144e-06,-2.5312350771855563e-05,6.744779966538772e-05
-1.7361287973471917e-05,6.365451099554775e-06,5.348872036847752e-06,-2.2601157979806885e-05,6.737871444784105e-05
-1.840302866185084e-05,1.880907075246796e-05,7.15644819138106e-06,-2.0974044673494063e-05,7.291296060429886e-05
-2.2950303900870495e-05,2.5121109501924366e-05,9.114770364249125e-06,-1.9605982743087225e-05,8.245623030234128e-05
-2.6477382562006824e-05,4.038018232677132e-05,1.1077500857936684e-05,-1.5235448699968401e-05,8.703634375706315e-05
-2.661265534698032e-05,5.9683214203687385e-05,1.050688479153905e-05,-7.251748229464283e-06,8.711164264241233e-05
-2.6434670871822163e-05,6.327752635115758e-05,1.1051860383304302e-05,9.070061537386209e-07,8.227050420828164e-05
-3.353381544002332e-05,5.1294959121150896e-05,1.4543109500664286e-05,5.267645065032411e-06,7.290433859452605e-05
-4.39879804616794e-05,3.380616908543743e-05,1.4433283467951696e-05,5.283927293930901e-06,6.691891758237034e-05
-5.0851253035943955e-05,2.1090387235744856e-05,8.262038136308547e-06,2.0823226805077866e-06,6.472891982411966e-05
-5.146608600625768e-05,1.2117629921704065e-05,3.2378595733462134e-06,-1.1987179959760397e-06,6.476842099800706e-05
-4.909968265565112e-05,6.365154376908322e-07,6.24355698164436e-06,-1.9252702259109356e-06,6.535148713737726e-05
-4.5843786210753024e-05,-5.264396804705029e-06,1.3057651813142002e-05,1.4090871900407365e-06,6.448238127632067e-05
-4.4810254621552303e-05,5.518252237379784e-06,1.616856206965167e-05,6.243152711249422e-06,6.217558984644711e-05
-4.609654570231214e-05,2.2345302568282932e-05,1.4639728760812432e-05,1.0948136150545906e-05,5.913338463869877e-05
-4.433514550328255e-05,3.1289215257856995e-05,1.2595261068781838e-05,1.4935654689907096e-05,5.635064371745102e-05
-3.764774010051042e-05,3.150582415401004e-05,1.0979636499541812e-05,1.6451200281153433e-05,5.2769039029954e-05
-2.7938645871472545e-05,2.509947444195859e-05,7.867631211411208e-06,1.430991596862441e-05,5.2105537179159e-05
-2.1163450583117083e-05,1.3172457329346798e-05,4.478572009247728e-06,9.285154192184564e-06,5.3767489589517936e-05
-2.3065238565322943e-05,4.147151230426971e-06,2.9560642360593192e-06,4.665806045522913e-06,5.43048809049651e-05
-2.962844337162096e-05,7.865184670663439e-06,2.88317119157e-06,1.8985506358148996e-06,5.156235783942975e-05
-3.2669158827047795e-05,2.3162332581705414e-05,2.16536727748462e-06,-2.6672064450394828e-06,4.7886456741252914e-05
-3.336162262712605e-05,4.2841584217967466e-05,3.3433052522013895e-06,-1.0076543730974663e-05,4.666377208195627e-05
-2.9688269933103584e-05,5.9439564211061224e-05,8.00013731350191e-06,-1.3943160411145072e-05,4.648627509595826e-05
-2.3386253815260716e-05,6.0124042647657916e-05,7.138504315662431e-06,-1.2489207620092202e-05,4.8085261369124055e-05
-2.0474424673011526e-05,4.384192288853228e-05,2.603498842290719e-06,-1.0486425708222669e-05,5.199289444135502e-05
-1.5025928405520972e-05,2.1172352717258036e-05,2.7118157959193923e-06,-1.0342865607526619e-05,5.297374809742905e-05
-8.061094376898836e-06,-4.163941412116401e-06,6.596517778234556e-06,-1.0456379641254898e-05,4.860979606746696e-05
-8.45660179038532e-06,-2.316492646059487e-05,7.824571184755769e-06,-1.0900936104007997e-05,4.5532371586887166e-05
-1.2720433005597442e-05,-1.747275746311061e-05,8.600411092629656e-06,-1.3726152246817946e-05,4.686953980126418e-05
-1.8732966054813005e-05,8.286146112368442e-06,1.0289859346812591e-05,-1.6383226466132328e-05,5.141594010638073e-05
-2.4620389012852684e-05,2.670264439075254e-05,1.2647703442780767e-05,-1.4905775969964452e-05,5.488241004059091e-05
-2.6168778276769444e-05,3.30744223902002e-05,1.4984755580371711e-05,-1.1902390724571887e-05,5.39879547432065e-05
-2.3961752958712168e-05,3.7073168641654775e-05,1.3642661542689893e-05,-1.2104025699954946e-05,5.287560634315014e-05
-2.0334782675490715e-05,4.4267362682148814e-05,1.152066579379607e-05,-1.611400512047112e-05,5.414633415057324e-05
-1.59753344632918e-05,4.882125722360797e-05,1.0833206033566967e-05,-2.227349796157796e-05,5.723932190448977e-05
-1.9326491383253597e-05,4.7094083129195496e-05,1.3732486877415795e-05,-2.6576621166896075e-05,5.7178058341378346e-05
-2.7461679565021768e-05,4.5104690798325464e-05,1.4230889064492658e-05,-2.7640038751997054e-05,5.5436656111851335e-05
-3.095140709774569e-05,4.694544259109534e-05,9.079913070308976e-06,-2.775653229036834e-05,5.691837577614933e-05
-3.0267881811596453e-05,4.897578764939681e-05,4.2501092138991226e-06,-2.524887713661883e-05,5.954013977316208e-05
-2.9213832021923736e-05,5.0711791118374094e-05,6.038404990249546e-06,-2.0070532627869397e-05,6.154516449896619e-05
-3.0182702175807208e-05,5.318949115462601e-05,1.0727879271144047e-05,-1.572287510498427e-05,6.283085531322286e-05
-3.130273034912534e-05,5.156773841008544e-05,1.118008640332846e-05,-1.3514337297237944e-05,6.467931234510615e-05
-3.4574768505990505e-05,4.4728119974024594e-05,5.300127213558881e-06,-1.1622631973295938e-05,6.714571645716205e-05
-3.8043304812163115e-05,3.771700357901864e-05,-1.6503406641277252e-06,-1.16062483357382e-05,7.017646566964686e-05
-3.812525392277166e-05,3.415558603592217e-05,-4.272462319931947e-06,-1.3787962416245136e-05,6.98449439369142e-05
-3.632600055425428e-05,3.2775671570561826e-05,-2.2623826225753874e-06,-1.679181332292501e-05,6.597903120564297e-05
-3.328939055791125e-05,3.118713357253e-05,2.710837861741311e-06,-2.0033248802064918e-05,6.409810157492757e-05
-2.6470530428923666e-05,2.8878535886178724e-05,5.544006398849888e-06,-2.225780553999357e-05,6.6779313783627e-05
-2.3494185370509513e-05,3.054180706385523e-05,5.62289505978697e-06,-2.501751259842422e-05,6.98411968187429e-05
-2.6375973902759142e-05,3.41147679137066e-05,8.519231414538808e-06,-2.7991143724648282e-05,6.603979272767901e-05
-2.7938729544985108e-05,3.281481986050494e-05,1.1849106158479117e-05,-2.7688567570294254e-05,5.9218680689809844e-05
-2.7801706892205402e-05,2.923037754953839e-05,1.1976359019172378e-05,-2.67635168711422e-05,5.2099414460826665e-05
-2.848533222277183e-05,2.688402855710592e-05,1.0740903235273436e-05,-2.6648589482647367e-05,4.7006895329104736e-05
-2.9962910048197955e-05,2.428080733807292e-05,9.296332791564055e-06,-2.5304740120191127e-05,4.891713979304768e-05
-2.6104577045771293e-05,2.5484609068371356e-05,6.859675977466395e-06,-1.714227255433798e-05,5.3356030548457056e-05
-2.2131616788101383e-05,2.7572976250667125e-05,2.4472038262501883e-07,-7.997278771654237e-06,5.37723972229287e-05
-2.881785258068703e-05,1.9808885554084554e-05,-4.482571966946125e-06,-6.633687007706612e-06,5.043160490458831e-05
-3.3708343835314736e-05,3.6928818190062884e-06,-3.836321411654353e-06,-7.909898158686701e-06,4.911412179353647e-05
-3.116304287686944e-05,-2.74419721790764e-06,1.46972956827085e-06,-9.42319820751436e-06,5.0173439376521856e-05
-2.465419856889639e-05,2.3754992071189918e-06,4.201854608254507e-06,-7.971791092131753e-06,5.0963582907570526e-05
-1.4408414244826417e-05,9.857158147497103e-06,3.424556553000002e-06,-6.5806957536551636e-06,5.140548091731034e-05
-7.748979442112613e-06,1.3338063581613824e-05,3.274536084063584e-06,-5.8067685131391045e-06,5.173930185264908e-05
-1.184960547107039e-05,1.0021734851761721e-05,2.5839542558969697e-06,-6.800282335461816e-06,5.257497832644731e-05
-2.039947321463842e-05,6.015647159074433e-06,1.6141633807364997e-07,-1.1011409696948249e-05,5.410983067122288e-05
-2.1365025531849824e-05,7.852519047446549e-06,-3.0296441764221527e-06,-1.65150504471967e-05,5.534018055186607e-05
-1.3491214303940069e-05,1.9367631466593593e-05,-3.4118854728149017e-06,-2.004671114264056e-05,5.607188359135762e-05
-4.938989150105044e-06,3.5401641071075574e-05,-1.0360430451328284e-06,-2.1382185877882876e-05,5.495655204867944e-05
-3.1660676995670656e-06,4.608158997143619e-05,1.656278186601412e-06,-2.2372467356035486e-05,5.494069046108052e-05
-5.787998361483915e-06,4.56125708296895e-05,2.277835164932185e-06,-2.2493999495054595e-05,5.85654670430813e-05
-9.932045031746384e-06,3.921959432773292e-05,1.5543683957730536e-06,-2.173645953007508e-05,6.138585013104603e-05
-1.4453356016019825e-05,4.018665640614927e-05,9.5878885986167e-07,-2.3200136638479307e-05,6.180368654895574e-05
-2.228707126050722e-05,5.3582658438244835e-05,5.400772806751775e-07,-2.703240534174256e-05,6.115874566603452e-05
-3.3908389013959095e-05,6.623500667046756e-05,-1.0625599315972067e-06,-2.687281994440127e-05,6.067769936635159e-05
-4.0488252125214785e-05,6.254628533497453e-05,-1.3875817330699647e-06,-2.4271428628708236e-05,5.958014298812486e-05
-3.5116907383780926e-05,4.758977593155578e-05,-2.2679651578982885e-07,-1.9402896214160137e-05,5.944590157014318e-05
-2.4989669327624142e-05,3.540531179169193e-05,-8.018345170057728e-07,-1.2343720300123096e-05,6.030869189999066e-05
-1.7097476302296855e-05,2.9007353077759035e-05,-2.5971407922043e-06,-4.362236722954549e-06,5.9362431784393266e-05
-1.2342306035861839e-05,2.9341366825974546e-05,3.9052278566487075e-07,1.936404487423715e-06,5.7754361478146166e-05
-8.746828825678676e-06,3.720803579199128e-05,8.085495210252702e-06,4.272895239409991e-06,5.648560545523651e-05
-8.376790901820641e-06,4.461844218894839e-05,1.4443665349972434e-05,5.582401627179934e-06,5.5456046538893133e-05
-1.5661382349207997e-05,4.68998150608968e-05,1.1732317034329753e-05,7.202231245173607e-06,5.367948688217439e-05
-2.8078075047233142e-05,4.5460234105121344e-05,7.1279505391430575e-06,6.675444183201762e-06,5.58478495804593e-05
-3.869506326736882e-05,4.034681842313148e-05,7.2468724283680785e-06,2.633552412589779e-06,6.336283695418388e-05
-4.27269478677772e-05,3.4874796256190166e-05,4.9351469897374045e-06,-1.310308107349556e-06,6.756096263416111e-05
-4.615674333763309e-05,2.4614604626549408e-05,-4.860315129917581e-06,-2.766811803667224e-06,6.534202111652121e-05
-5.116611282574013e-05,1.8508342691347934e-05,-1.6289728591800667e-05,-3.7254808376019355e-06,6.203683005878702e-05
-5.282514757709578e-05,2.3121514459489845e-05,-2.1066589397378266e-05,-2.3589091142639518e-06,6.235788168851286e-05
-5.240251266513951e-05,2.52622503467137e-05,-2.1315736375981942e-05,8.450898576484178e-07,6.279024091782048e-05
-5.1861941756214947e-05,1.9304847228340805e-05,-1.660714224271942e-05,-6.570153914253751e-07,6.39062054688111e-05
-4.9466856580693275e-05,1.4928724340279587e-05,-8.850681297190022e-06,-4.2990982365154196e-06,6.740889512002468e-05
-4.5953001972520724e-05,1.6229307220783085e-05,2.1650816961482633e-06,-7.1663857852399815e-06,7.020242628641427e-05
-4.106151027372107e-05,1.7901928003993817e-05,1.2496817362261936e-05,-1.0931967153737787e-05,6.955408753128722e-05
-3.496498175081797e-05,1.923088711919263e-05,2.272728488605935e-05,-1.3275443052407354e-05,6.783475691918284e-05
-3.111728801741265e-05,2.0948406017851084e-05,3.1163574021775275e-05,-1.4289924365584739e-05,6.556015432579443e-05
-3.264010592829436e-05,1.9587441784096882e-05,3.514951094985008e-05,-1.375338342768373e-05,6.20639548287727e-05
-3.701422974700108e-05,1.458006681787083e-05,3.652620944194496e-05,-1.341531788057182e-05,5.913127097301185e-05
-4.0929618990048766e-05,1.2469654393498786e-05,3.759385072044097e-05,-1.4637538697570562e-05,5.4732212447561324e-05
-4.380036625661887e-05,1.499049994890811e-05,3.839434793917462e-05,-1.4435800949286204e-05,5.115474050398916e-05
-4.4505784899229184e-05,2.3426699044648558e-05,3.489189111860469e-05,-1.1157475455547683e-05,5.17858425155282e-05
-4.097714918316342e-05,3.631181243690662e-05,2.9514598281821236e-05,-8.620550943305716e-06,5.659620728692971e-05
-3.378362089279108e-05,4.580484164762311e-05,2.567635601735674e-05,-8.07930246082833e-06,6.111095717642456e-05
-2.6058925868710503e-05,4.4180123950354755e-05,2.4297645722981542e-05,-8.083529792202171e-06,6.543274503201246e-05
-2.3488237275159918e-05,4.252152575645596e-05,2.262785710627213e-05,-8.262210030807182e-06,6.801728886784986e-05
-2.339067214052193e-05,4.835358777199872e-05,2.0078055968042463e-05,-7.455053946614498e-06,6.58623393974267e-05
-2.2218999220058322e-05,5.332735599949956e-05,1.4651915989816189e-05,-7.2210941652883776e-06,6.256982305785641e-05
-2.1157973606023006e-05,5.528501424123533e-05,9.582226084603462e-06,-1.0015560292231385e-05,6.327595474431291e-05
-1.8518941942602396e-05,5.548329863813706e-05,8.371918738703243e-06,-1.4477635886578355e-05,6.793459033360705e-05
-1.7023436157614924e-05,5.226761641097255e-05,7.865685802244116e-06,-1.6397892977693118e-05,6.834040686953813e-05
-1.4261827345762867e-05,4.5768316340399906e-05,2.2983310827839887e-06,-1.7500318790553138e-05,6.690777081530541e-05
-1.0744746759883128e-05,3.7066449294798076e-05,-9.76565033283805e-08,-1.946614429471083e-05,6.452715024352074e-05
-1.2606851669261232e-05,2.446967118885368e-05,2.751809518031223e-07,-1.767777393979486e-05,5.980728383292444e-05
-2.120819772244431e-05,6.6001139202853665e-06,-7.055508376652142e-06,-1.5063638784340583e-05,5.812642484670505e-05
-2.8245573048479855e-05,-1.0868523531826213e-05,-1.7332447896478698e-05,-1.5563466149615124e-05,6.082879190216772e-05
-3.0768827855354175e-05,-1.5743942640256137e-05,-2.3785743906046264e-05,-1.5737537978566252e-05,6.400563142960891e-05
-3.14704047923442e-05,-3.629609409472323e-06,-2.2901702322997153e-05,-1.3992877029522788e-05,6.29412752459757e-05
-3.0178971428540535e-05,1.2470596630009823e-05,-1.8710885342443362e-05,-1.0110024049936328e-05,6.071006282581948e-05
-2.6998648536391556e-05,2.4336024580406956e-05,-1.0901644600380678e-05,-7.4719073381857015e-06,6.174072768772021e-05
-2.4252743969555013e-05,3.313115666969679e-05,-4.419592301019293e-07,-8.22242691356223e-06,6.367790774675086e-05
-2.402470818196889e-05,3.781828490900807e-05,6.806808869441738e-06,-1.1706115401466377e-05,6.40822690911591e-05
-2.4610873879282735e-05,3.8434722227975726e-05,9.489692274655681e-06,-1.3439579561236314e-05,6.489561928901821e-05
-2.4331407985300757e-05,3.488362199277617e-05,1.1474031452962663e-05,-1.173176679003518e-05,6.396004027919844e-05
-2.2584563339478336e-05,3.1029514502733946e-05,1.271265500690788e-05,-9.774794307304546e-06,6.02622349106241e-05
-2.134945862053428e-05,2.9943426852696575e-05,1.151299147750251e-05,-1.1098939467046876e-05,5.7133802329190075e-05
-2.150300315406639e-05,2.811448575812392e-05,9.933292858477216e-06,-1.4510229448205791e-05,5.549242996494286e-05
-2.169240906368941e-05,2.1391795598901808e-05,8.459362106805202e-06,-1.5549358067801222e-05,5.549350316869095e-05
-2.087462598865386e-05,1.6006048099370673e-05,8.023547707125545e-06,-1.2868867997894995e-05,5.6269491324201226e-05
-1.896002322610002e-05,1.9961486032116227e-05,8.987967703433242e-06,-9.976212822948582e-06,5.636036075884476e-05
-1.402769976266427e-05,2.9352348065003753e-05,1.0444516192364972e-05,-9.044824764714576e-06,5.491547199198976e-05
-1.1242795153521001e-05,3.2475993066327646e-05,1.0466709682077635e-05,-1.0511764230614062e-05,5.218327714828774e-05
-1.565111415402498e-05,2.8567845220095478e-05,8.894249731383752e-06,-9.570466318109538e-06,5.215705823502503e-05
-2.1561318135354668e-05,2.2952110157348216e-05,6.481913715106202e-06,-5.036634320276789e-06,5.388648060034029e-05
-2.68288204097189e-05,2.192025385738816e-05,6.0297602431091946e-06,-3.88261196349049e-06,5.323586810845882e-05
-3.0303017410915345e-05,2.8591748559847474e-05,6.988580935285427e-06,-5.717537078453461e-06,4.913253360427916e-05
-3.1292329367715865e-05,3.4326963941566646e-05,9.973170563171152e-06,-1.004704517981736e-05,4.828553574043326e-05
-3.4258777304785326e-05,3.672220555017702e-05,1.0774057955131866e-05,-7.952266059874091e-06,4.9007401685230434e-05
-3.421432847972028e-05,3.515674688969739e-05,6.908265731908614e-06,-1.3545437695938745e-06,4.839919347432442e-05
-2.7558946385397576e-05,2.966159263451118e-05,4.177733899268787e-06,-1.3231244793132646e-06,4.788368823938072e-05
-1.82019157364266e-05,2.7511254302226007e-05,4.559622084343573e-06,-2.848738859029254e-06,4.359994636615738e-05
-8.508399332640693e-06,2.8387103157001548e-05,5.002401394449407e-06,-2.9704774533456657e-06,4.389766036183573e-05
3.2327020562661346e-06,2.7585796487983316e-05,1.832159455261717e-06,-4.180341875326121e-06,5.117585897096433e-05
9.613545444153715e-06,2.693577334866859e-05,1.2056552805006504e-06,-3.069249260079232e-06,5.823037645313889e-05
5.561370926443487e-06,2.607046189950779e-05,5.058630449639168e-06,8.152404689099058e-07,6.093244883231819e-05
-9.210291977979068e-07,2.447453334752936e-05,9.068368854059372e-06,2.3707477794232545e-06,6.355786172207445e-05
-1.2638332691494725e-06,2.3849859644542448e-05,1.0798689800139982e-05,1.0655029427653062e-06,6.723158003296703e-05
1.0073626981466077e-06,2.7391986805014312e-05,1.2084615264029708e-05,-2.0801849132112693e-06,6.743728590663522e-05
-3.4379140743112657e-06,3.4984288504347205e-05,1.1540864761627745e-05,-6.605780072277412e-06,6.261197268031538e-05
-1.1248571354371961e-05,4.472511864150874e-05,7.5990683399140835e-06,-1.103624435927486e-05,5.752787910751067e-05
-1.8652826838660985e-05,5.48535208508838e-05,4.830872967431787e-06,-1.2797271665476728e-05,5.306515231495723e-05
-2.5821018425631337e-05,6.110879621701315e-05,3.419173708607559e-06,-1.2318826520640869e-05,4.785780402016826e-05
-3.142324203508906e-05,6.583041249541566e-05,1.417137013959291e-06,-1.1838717909995466e-05,4.901490319753066e-05
-3.3298198104603216e-05,6.848384509794414e-05,1.0461399142513983e-06,-1.155386689788429e-05,5.611007145489566e-05
-3.5025506804231554e-05,6.32633818895556e-05,3.982364432886243e-06,-1.3141749150236137e-05,6.133519491413608e-05
-4.026639726362191e-05,4.626848749467172e-05,5.249595687928377e-06,-1.7476735592936166e-05,6.01549181737937e-05
-4.666669701691717e-05,2.2747775801690295e-05,3.0923843041819055e-06,-2.10408543352969e-05,5.567293192143552e-05
-4.9413793021813035e-05,1.03575655430177e-06,2.2146555238578003e-06,-2.3499085727962665e-05,5.232590046944097e-05
-5.1314436859684065e-05,-1.9145978512824513e-05,1.8235726884086034e-06,-2.6193314624833874e-05,4.967179847881198e-05
-5.3158153605181724e-05,-3.0160190362948924e-05,-1.640829509597097e-06,-2.7753521862905473e-05,4.983996041119099e-05
-4.820141111849807e-05,-2.3883181711426005e-05,-3.8943890103837475e-06,-2.3655145923839882e-05,5.5205862736329436e-05
-4.205327422823757e-05,-1.8845228623831645e-05,-5.075771241536131e-06,-1.5221095054585021e-05,5.7631448726169765e-05
-3.8443391531473026e-05,-3.0309231078717858e-05,-4.688527042162605e-06,-1.001222335617058e-05,5.502215935848653e-05
-2.7748012144002132e-05,-3.638570706243627e-05,-6.432279633372673e-07,-3.187818720107316e-06,5.819808575324714e-05
-1.3855517863703426e-05,-1.667358446866274e-05,2.9684279070352204e-06,5.001684257877059e-06,6.563225178979337e-05
-5.610499101749156e-06,1.2457702723622788e-05,3.01893419418775e-06,1.0529028259043116e-05,6.657728954451159e-05
-9.335806680610403e-06,2.971313188027125e-05,-1.8842561075871345e-06,1.5063917089719325e-05,6.608435069210827e-05
-1.6748263078625314e-05,3.0624036298831925e-05,-3.848846063192468e-06,1.8594033463159576e-05,6.377485988195986e-05
-1.4885541531839408e-05,2.110298737534322e-05,-2.5262565941375215e-06,1.756448000378441e-05,5.773404336650856e-05
-7.073793767631287e-06,1.6548376152059063e-05,-1.997907702389057e-06,1.0033014405053109e-05,5.320317723089829e-05
-1.2551189456644352e-06,2.4418650355073623e-05,-2.829669085713249e-07,9.643817975302227e-07,5.085840166429989e-05
-2.7209757718082983e-06,4.081437145941891e-05,1.5587569350827835e-06,-7.5006496444984805e-06,5.0365426432108507e-05
-1.0376030331826769e-05,6.0978833062108606e-05,3.190063125657616e-06,-1.644414078327827e-05,5.1871174946427345e-05
-2.1590796677628532e-05,7.02429169905372e-05,4.402993454277748e-06,-2.4503560780431144e-05,5.549858178710565e-05
-2.9921835448476486e-05,6.627361290156841e-05,7.115078460628865e-06,-2.526666685298551e-05,5.520079503185116e-05
-3.6667286622105166e-05,5.892538683838211e-05,1.0847254998225253e-05,-2.0133946236455813e-05,4.867197640123777e-05
-4.3529631511773914e-05,5.116566171636805e-05,1.348761907138396e-05,-1.4805183127464261e-05,4.339089718996547e-05
-4.833002822124399e-05,3.629498678492382e-05,1.499407608207548e-05,-1.2496163435571361e-05,4.194414213998243e-05
-4.795764107257128e-05,1.386725671181921e-05,1.5109410014702007e-05,-1.2984874956600834e-05,4.250968777341768e-05
-4.5141005102777854e-05,2.3691486603638623e-06,1.2184120350866579e-05,-1.459302529838169e-05,4.872099088970572e-05
-4.4200012780493125e-05,1.187315137940459e-05,7.2539783104730304e-06,-1.4093689060246106e-05,5.789690476376563e-05
-4.39262184954714e-05,2.7239568225922994e-05,2.901199877669569e-06,-1.0702439794840757e-05,6.367787136696279e-05
-4.052728399983607e-05,3.221214501536451e-05,-2.3014740690996405e-06,-7.525525688834023e-06,6.548266537720338e-05
-3.342486161272973e-05,3.026478225365281e-05,-7.0025716922828e-06,-7.0793103077448905e-06,6.407145701814443e-05
-2.8026999643770978e-05,2.880748979805503e-05,-7.4583535933925305e-06,-1.099300425266847e-05,6.330269388854504e-05
-2.745811434579082e-05,3.241249214624986e-05,-5.774371402367251e-06,-1.7661868696450256e-05,6.72133537591435e-05
-2.7994099582429044e-05,3.8409591070376337e-05,-5.097505436424399e-06,-2.156906521122437e-05,7.486910908482969e-05
-2.5882965928758495e-05,4.079244899912737e-05,-1.0502959639779874e-06,-1.969316326722037e-05,8.424741099588573e-05
-2.45917217398528e-05,4.0475493733538315e-05,6.660324743279489e-06,-1.6322112060151994e-05,8.959864499047399e-05
-2.5363184249727055e-05,4.0736806113272905e-05,9.567876077198889e-06,-1.1564836313482374e-05,8.74696925166063e-05
-2.4496306650689803e-05,3.851678047794849e-05,7.246250333992066e-06,-5.785418579762336e-06,7.731898949714378e-05
-2.195588058384601e-05,3.777594611165114e-05,8.265044925792608e-06,-4.462958258955041e-06,6.806109013268724e-05
-2.1259780623950064e-05,3.994719736510888e-05,1.2513895853771828e-05,-7.05224465491483e-06,6.517238216474652e-05
-1.6000303730834275e-05,4.064643508172594e-05,1.5307541616493836e-05,-9.259054422727786e-06,6.466155900852755e-05
-7.488706614822149e-06,3.763134736800566e-05,1.7835103790275753e-05,-7.921314136183355e-06,6.514282722491771e-05
-4.772741704073269e-06,3.301918331999332e-05,1.9539909771992825e-05,-2.9665493457287084e-06,6.43609746475704e-05
-6.386931090673897e-06,3.425968316150829e-05,1.7104293874581344e-05,1.3374406080401968e-06,6.16393590462394e-05
-1.113490725401789e-05,4.162819459452294e-05,1.618142232473474e-05,2.6469936074136058e-06,6.0426034906413406e-05
-1.5952722606016323e-05,4.528970021056011e-05,1.7436235793866217e-05,1.9920573777199024e-06,6.216621841304004e-05
-2.02849641937064e-05,4.16969160141889e-05,1.498683286627056e-05,1.7372176444041543e-06,6.423876766348258e-05
-2.92354616249213e-05,3.669651778182015e-05,1.1622255442489404e-05,7.009388696133101e-07,6.759006646461785e-05
-4.008537143818103e-05,3.450141230132431e-05,9.997147571993992e-06,1.0628365316733834e-06,6.93023539497517e-05
-4.607491064234637e-05,3.2889191061258316e-05,9.32627881411463e-06,2.7879759727511555e-06,6.727095751557499e-05
-4.6554447180824354e-05,2.8280570404604077e-05,6.862480404379312e-06,1.7967570329346927e-06,6.208854756550863e-05
-4.8698089813115075e-05,2.4166840375983156e-05,5.494487140822457e-06,-3.1747911179991206e-06,5.713162317988463e-05
-5.10686804773286e-05,2.219707312178798e-05,7.4017220867972355e-06,-6.730063887516735e-06,5.5265092669287696e-05
-4.9658206989988685e-05,2.163638964702841e-05,9.668769962445367e-06,-7.25504514775821e-06,5.622000389848836e-05
-4.413703936734237e-05,1.9642939150799066e-05,7.249723694258137e-06,-9.001149010146037e-06,5.4975647799437866e-05
-3.7700108805438504e-05,1.744251130730845e-05,6.674045494037273e-08,-1.4493740309262648e-05,4.903386434307322e-05
-3.4031403629342094e-05,2.0664516341639683e-05,-3.892458153131884e-06,-1.976662315428257e-05,4.2457319068489596e-05
-3.378490873728879e-05,2.7739042707253247e-05,-3.419764595946617e-07,-2.0485418644966558e-05,3.89979213650804e-05
-3.3828720916062593e-05,3.3291995350737125e-05,3.4118679650418926e-06,-1.5390907719847746e-05,3.90903624065686e-05
-3.197252954123542e-05,3.6640081816585734e-05,2.1096552700328175e-06,-8.042614354053512e-06,4.052972508361563e-05
-2.7081832740805112e-05,3.687161370180547e-05,-1.821527888523633e-07,-6.497079539258266e-06,4.483835436985828e-05
-2.1285975890350528e-05,3.4016582503682e-05,-2.2376123069989262e-06,-7.747045856376644e-06,5.3172800107859075e-05
-1.567085928400047e-05,2.8077020033379085e-05,-2.723483703448437e-06,-9.148447134066373e-06,5.874252747162245e-05
-8.697500561538618e-06,1.6440437320852652e-05,-2.0338825379440095e-06,-1.1172368431289215e-05,5.875008719158359e-05
-7.556432592537021e-06,2.496942670404678e-06,-2.280379248986719e-06,-1.3056279385637026e-05,6.0468442825367674e-05
-1.2285757293284405e-05,2.351548346268828e-06,-2.135876911779633e-06,-1.5058395547384862e-05,6.073236727388576e-05
-2.0489895177888684e-05,1.3992475942359306e-05,1.5354000879597152e-06,-1.302147484238958e-05,5.8320307289250195e-05
-2.5885150535032153e-05,2.0970828700228594e-05,4.2489077713980805e-06,-7.969634680193849e-06,5.8546771469991654e-05
-2.9964237910462543e-05,1.9925299056922086e-05,3.0222292934922734e-06,-4.7073444875422865e-06,6.178228068165481e-05
-3.674151957966387e-05,1.8854019799618982e-05,2.8750366709573427e-06,-3.15241936732491e-06,6.349010072881356e-05
-4.106376218260266e-05,2.3394613890559413e-05,2.864951966330409e-06,-4.69353153675911e-06,6.173001020215452e-05
-4.134711707592942e-05,3.0460705602308735e-05,2.391352836639271e-06,-8.375795914616901e-06,5.7881417887983844e-05
-3.8659040001221e-05,3.593927249312401e-05,1.9992648958577774e-06,-1.6789426808827557e-05,5.3396386647364125e-05
-3.410177305340767e-05,3.62457794835791e-05,-8.859605600264331e-07,-2.23881725105457e-05,5.39666143595241e-05
-3.0345949198817834e-05,3.431060031289235e-05,-3.670817477541277e-06,-2.3604859961778857e-05,5.7663797633722425e-05
-2.7694088203134015e-05,3.2506577554158866e-05,-4.678100140154129e-06,-2.443377707095351e-05,5.942027200944722e-05
-2.437145303701982e-05,3.3504424209240824e-05,-5.862371835974045e-06,-2.6040306693175808e-05,5.878612137166783e-05
-2.2823327526566572e-05,3.2271022064378485e-05,-7.293544513231609e-06,-2.866079921659548e-05,5.8952911786036566e-05
-2.42360147240106e-05,2.166201920772437e-05,-7.64587184676202e-06,-3.143186040688306e-05,6.092592593631707e-05
-2.698303978831973e-05,8.28065094538033e-06,-6.2990502556203865e-06,-3.4452328691259027e-05,6.333947385428473e-05
-2.9506747523555532e-05,2.8818335522373673e-06,-4.721457571577048e-06,-3.2834414014359936e-05,6.471073720604181e-05
-3.0442739443969913e-05,7.641463525942527e-06,-2.8644474241446005e-06,-2.6932242690236308e-05,6.228292477317154e-05
-3.114865467068739e-05,1.6253809008048847e-05,-6.893685622344492e-07,-2.1918936909059994e-05,6.036973718437366e-05
-3.5484437830746174e-05,1.9743525626836345e-05,-1.8530284933149233e-06,-2.0848105123150162e-05,6.321394903352484e-05
-3.718520747497678e-05,1.7851280063041486e-05,-4.323383109294809e-06,-2.1465380996232852e-05,6.611857679672539e-05
-3.144843503832817e-05,2.0218481949996203e-05,-2.2080555481807096e-06,-2.1485488105099648e-05,6.495277193607762e-05
-2.6940326279145665e-05,2.9979484679643065e-05,6.4569877622489e-07,-1.737957245495636e-05,6.30396680207923e-05
-2.5107170586124994e-05,4.009061376564205e-05,3.8005650822015014e-06,-1.1282444575044792e-05,6.066123387427069e-05
-2.119576674886048e-05,4.236020322423428e-05,7.765784175717272e-06,-4.553020971798105e-06,5.8632671425584704e-05
-1.8424618247081526e-05,3.807291068369523e-05,9.218420927936677e-06,3.7145027818041854e-06,6.274088809732348e-05
-2.130443499481771e-05,3.407236727070995e-05,1.2358662388578523e-05,1.0218575880571734e-05,6.747935549356043e-05
-2.2258327589952387e-05,3.175302117597312e-05,1.4821133845543955e-05,6.839770321676042e-06,6.517999281641096e-05
-1.868824074335862e-05,2.5305389499408193e-05,1.2238080671522766e-05,-1.8264665868628072e-06,6.168940308270976e-05
-1.626196717552375e-05,1.736423473630566e-05,9.8526934380061e-06,-9.740632776811253e-06,6.001126894261688e-05
-1.4806048966420349e-05,1.5724883269285783e-05,1.2586780940182507e-05,-1.287347186007537e-05,5.9146641433471814e-05
-1.3130485967849381e-05,2.3237682398757897e-05,1.6428521121270023e-05,-1.0274230589857325e-05,5.910476829740219e-05
-1.1940985132241622e-05,3.3362921385560185e-05,1.5525694834650494e-05,-9.717352440929972e-06,6.116839358583093e-05
-1.4265890968090389e-05,3.680603549582884e-05,1.099185010389192e-05,-9.754616257851012e-06,6.345991278067231e-05
-1.729386713122949e-05,3.514406125759706e-05,7.3156797952833585e-06,-1.014049121295102e-05,6.219932402018458e-05
-1.958836946869269e-05,3.453699901001528e-05,9.595327355782501e-06,-1.0260667295369785e-05,5.9364909247960895e-05
-2.0706880604848266e-05,3.352969361003488e-05,1.4289910723164212e-05,-8.66676873556571e-06,5.797151607112028e-05
-2.1537913198699243e-05,2.5843162802630104e-05,1.2821306881960481e-05,-7.336537692026468e-06,5.83412911510095e-05
-2.267854506499134e-05,1.7016194760799408e-05,6.58499266137369e-06,-8.24197104520863e-06,6.0224065236980096e-05
-2.334204145881813e-05,1.080303900380386e-05,-6.799658649470075e-07,-9.591873094905168e-06,6.31566290394403e-05
-2.1089916117489338e-05,6.766944807168329e-06,-5.15469400852453e-06,-6.731181201757863e-06,6.316033250186592e-05
-1.8745233319350518e-05,2.929127958850586e-06,-3.895083409588551e-06,-3.196407760697184e-07,6.036650302121416e-05
-2.0150833734078333e-05,1.1327682614137302e-06,-2.575529151727096e-06,4.0250824895338155e-06,5.8277128118788823e-05
-2.268132629978936e-05,5.325219717633445e-06,-7.485717105737422e-06,4.132646154175745e-06,5.960058842902072e-05
-2.533425868023187e-05,1.5914758478174917e-05,-1.4412588825507555e-05,2.4280229808937293e-06,6.151288107503206e-05
-2.7175907234777696e-05,3.377977554919198e-05,-1.5350329704233445e-05,9.649634193920065e-07,6.394649244612083e-05
-2.7185913495486602e-05,5.497856545844115e-05,-1.039216476783622e-05,1.4095572851147153e-06,6.707468128297478e-05
-2.5657707737991586e-05,6.65579573251307e-05,-1.8728487702901475e-06,4.113904196856311e-06,6.91087479935959e-05
-2.6362515200162306e-05,6.094087439123541e-05,7.182982699305285e-06,5.87757949688239e-06,6.919044972164556e-05
-3.419414133531973e-05,4.3188549170736223e-05,1.3413230590231251e-05,3.1595095606462564e-06,6.677247438346967e-05
-4.7553301556035876e-05,2.317476537427865e-05,1.7696300346869975e-05,-3.2423088214272866e-06,6.224821117939427e-05
-5.4939286201260984e-05,1.2050158147758339e-05,1.712017910904251e-05,-8.155192517733667e-06,5.7471221225569025e-05
-5.253937706584111e-05,1.57024223881308e-05,1.029269060381921e-05,-7.67176243243739e-06,5.3415460570249707e-05
-4.7546262067044154e-05,2.9248269129311666e-05,5.201002750254702e-06,-3.707936230057385e-06,4.835129948332906e-05
-4.3704141717171296e-05,4.051548967254348e-05,4.60859564554994e-06,-1.62358810484875e-06,4.6849007048876956e-05
-4.131055175093934e-05,4.415661533130333e-05,6.987025699345395e-06,-1.169429538094846e-06,4.933415402774699e-05
-3.78857075702399e-05,4.26721089752391e-05,1.0551297236816026e-05,-1.9608769434853457e-06,5.227577275945805e-05
-3.159335028612986e-05,3.962398477597162e-05,1.5336336218751967e-05,-6.404765827028314e-06,5.3866711823502555e-05
-2.7662970751407556e-05,3.893446773872711e-05,2.1204932636464946e-05,-8.890585377230309e-06,5.3320432925829664e-05
-2.4853439754224382e-05,4.7973881009966135e-05,2.5503457436570898e-05,-9.195213351631537e-06,5.3184059652267024e-05
-1.9605728084570728e-05,5.4888598242541775e-05,2.8429483791114762e-05,-8.842916940920986e-06,5.4816558986203745e-05
-1.1809445823018905e-05,4.9974783905781806e-05,2.9272267056512646e-05,-6.7435630626278e-06,5.500855331774801e-05
-8.87957685336005e-06,4.022732173325494e-05,2.6725496354629286e-05,-7.0618070822092704e-06,5.2422736189328134e-05
-1.2676961887336802e-05,4.065897883265279e-05,2.25601779675344e-05,-9.701193448563572e-06,4.843988790526055e-05
-1.8772690964397043e-05,4.707319749286398e-05,2.0955412765033543e-05,-1.149656054622028e-05,4.5511533244280145e-05
-2.467109152348712e-05,4.079871723661199e-05,1.9146888007526286e-05,-1.1038274351449218e-05,4.58473659818992e-05
-2.9700848244829103e-05,2.2682614144287072e-05,1.2407559552229941e-05,-1.1848070244013797e-05,4.750000516651198e-05
-3.3969459764193743e-05,5.041270924266428e-06,5.1845058806065936e-06,-1.4775419913348742e-05,4.828947930946015e-05
-3.550330438883975e-05,-3.025658998012659e-06,1.7991462755162502e-06,-1.5457415429409593e-05,4.812762199435383e-05
-3.412760270293802e-05,-3.961225047532935e-06,2.587051710634114e-07,-1.2754752788168844e-05,4.850323966820724e-05
-3.007054874615278e-05,-2.724545083765406e-06,-1.786896973499097e-06,-9.514154953649268e-06,5.130701174493879e-05
-2.70008258667076e-05,-1.1550944236660143e-06,-3.4148765735153574e-06,-5.866105311724823e-06,5.314595182426274e-05
-2.4490593204973266e-05,3.480728310023551e-06,-3.8129981021484127e-06,-1.1374416999387904e-06,5.245978172752075e-05
-2.0343313735793345e-05,9.6450357887079e-06,-4.0755658119451255e-06,1.0496719369257335e-06,5.265667277853936e-05
-1.9836776118609123e-05,1.5767445802339353e-05,-4.67030849904404e-06,1.1958018149016425e-06,5.6241537095047534e-05
-2.603443499538116e-05,2.2436011931858957e-05,-5.728093583456939e-06,1.3276334129841416e-06,6.008393393130973e-05
-2.954732372018043e-05,3.083121555391699e-05,-5.984062227071263e-06,-1.970067387446761e-06,5.931215491727926e-05
-2.6258234356646426e-05,3.946082870243117e-05,-3.882084001816111e-06,-7.219836334115826e-06,5.7588054914958775e-05
-2.129661697836127e-05,4.840655310545117e-05,-3.4796560157701606e-06,-8.376693585887551e-06,5.846320709679276e-05
-2.0582192519214004e-05,4.9779482651501894e-05,-6.468998890341027e-06,-6.850493264209945e-06,5.758872066508047e-05
-2.351147122681141e-05,3.962155824410729e-05,-1.06672705442179e-05,-7.530885341111571e-06,5.568715278059244e-05
-3.157019455102272e-05,3.257156640756875e-05,-1.8318371076020412e-05,-9.607098036212847e-06,5.231255272519775e-05
-3.7280155083863065e-05,3.808109977398999e-05,-2.6740704925032333e-05,-1.3714295164390933e-05,4.951926530338824e-05
-3.4419008443364874e-05,4.7490782890236005e-05,-2.868742376449518e-05,-1.7000942534650676e-05,5.3877320169704035e-05
-2.7077157938038e-05,5.256688018562272e-05,-2.4757198843872175e-05,-1.67730850080261e-05,6.068565198802389e-05
-2.4532468160032295e-05,4.963038009009324e-05,-1.672078542469535e-05,-1.4136996469460428e-05,6.46880071144551e-05
-3.1796029361430556e-05,4.086869739694521e-05,-6.85986333337496e-06,-1.0415380529593676e-05,6.319086969597265e-05
-3.745489084394649e-05,3.393894439795986e-05,-1.4137095831756596e-06,-1.0213047971774358e-05,5.983021401334554e-05
-3.886601916747168e-05,2.866355498554185e-05,2.0285006030462682e-06,-1.1069437277910765e-05,5.9928090195171535e-05
-3.8081056118244305e-05,2.552771729824599e-05,6.767867489543278e-06,-1.3660890544997528e-05,6.23532832833007e-05
-3.492823088890873e-05,2.367068373132497e-05,1.1682454896799754e-05,-1.831710869737435e-05,6.479868170572445e-05
-2.87348866550019e-05,2.0637837224057876e-05,1.3863957065041177e-05,-2.0707198927993886e-05,6.58896824461408e-05
-2.363803105254192e-05,1.8866190657718107e-05,1.197850451717386e-05,-1.8916764020104893e-05,6.331805343506858e-05
-2.255716572108213e-05,2.1637886675307527e-05,1.0429507710796315e-05,-1.6444815628346987e-05,6.080945240682922e-05
-2.7732638045563363e-05,2.5719782570376992e-05,1.1578711564652622e-05,-1.56614350999007e-05,6.0979447880527005e-05
-3.444209505687468e-05,2.9033870305283926e-05,1.2952994438819587e-05,-1.527253152744379e-05,6.235737237147987e-05
-3.5688972275238484e-05,2.967820364574436e-05,9.574826435709838e-06,-1.4632985767093487e-05,6.305493297986686e-05
-3.128568278043531e-05,2.7744263206841424e-05,2.934210215244093e-06,-1.3294511518324725e-05,6.35122851235792e-05
-2.5980851205531508e-05,2.454299828968942e-05,-3.455285195741453e-07,-1.385582800139673e-05,6.287075666477904e-05
-2.3400449208565988e-05,2.193149884988088e-05,2.448886107231374e-07,-1.893001899588853e-05,6.046639464329928e-05
-2.4281915102619678e-05,2.01401471713325e-05,2.5840977286861744e-06,-2.5265444492106326e-05,5.942862844676711e-05
-2.7686870453180745e-05,1.6769343346823007e-05,6.432635927922092e-06,-2.4413566279690713e-05,5.880427488591522e-05
-2.9112685297150165e-05,1.354481173621025e-05,1.0597951586532872e-05,-1.4550527339451946e-05,5.708868047804572e-05
-2.5859701054287143e-05,8.847481694829185e-06,1.5100386917765718e-05,-2.3850382149248617e-06,5.7357312471140176e-05
-1.967032949323766e-05,2.337479600100778e-06,1.7760705304681323e-05,4.508349320531124e-06,5.842083919560537e-05
-1.6272373613901436e-05,3.5876778383681085e-06,2.1111778551130556e-05,4.945411092194263e-06,5.530474300030619e-05
-1.3570621376857162e-05,1.1315212759654969e-05,2.327194124518428e-05,2.6678055746742757e-06,5.187763963476755e-05
-1.1751160855055787e-05,1.2738938494294416e-05,2.0893870896543376e-05,4.261213689460419e-06,5.122970469528809e-05
-1.1743413779186085e-05,1.0147135981242172e-05,2.0737394152092747e-05,5.933226020715665e-06,5.520774720935151e-05
-1.590601823409088e-05,1.3869786926079541e-05,1.894895831355825e-05,9.11287497729063e-06,5.948299076408148e-05
-2.0265164494048804e-05,2.3609060008311644e-05,1.653742219787091e-05,1.3109389328747056e-05,5.983981827739626e-05
-2.34581675613299e-05,4.1055511246668175e-05,1.6014364518923685e-05,1.0060462955152616e-05,5.6872315326472744e-05
-2.3472543034586124e-05,6.359311373671517e-05,1.687285111984238e-05,4.096238626516424e-06,5.6027682148851454e-05
-1.4952512174204458e-05,8.022906695259735e-05,1.9575527403503656e-05,-5.568486358242808e-06,6.016623956384137e-05
-7.640446710865945e-06,8.656297723064199e-05,1.8121403627446853e-05,-1.4411687516258098e-05,6.11405266681686e-05
-3.221991619284381e-06,8.413692557951435e-05,1.3533514902519528e-05,-2.0126248273300007e-05,5.654420965583995e-05
1.3081463521302794e-06,8.230146340792999e-05,1.1416939742048271e-05,-2.5409102818230167e-05,5.35873587068636e-05
6.7551477513916325e-06,7.633523637196049e-05,1.2846500794694293e-05,-2.8591706723091193e-05,5.7316621678182855e-05
8.244924174505286e-06,5.956422319286503e-05,1.4852319509373046e-05,-2.8822492822655477e-05,6.185166421346366e-05
5.900993983232183e-06,3.6151868698652834e-05,1.5819043255760334e-05,-2.7503969249664806e-05,5.881461765966378e-05
3.5000330171897076e-06,1.9064716980210505e-05,1.415214592270786e-05,-2.6192894438281655e-05,5.1291881391080096e-05
-1.940500169439474e-06,1.3740470421907958e-05,1.0791663953568786e-05,-2.5394529075128958e-05,5.053027780377306e-05
-1.3911084352002945e-05,1.2463139682949986e-05,8.193228495656513e-06,-2.3621121727046557e-05,5.577994670602493e-05
-3.212493902537972e-05,1.3373184629017487e-05,6.748491614416707e-06,-2.4007362299016677e-05,5.8398676628712565e-05
-4.8338843043893576e-05,1.78114787559025e-05,5.519423666555667e-06,-3.135000224574469e-05,5.748722833232023e-05
-5.429644079413265e-05,2.209492595284246e-05,5.4407264542533085e-06,-4.014709702460095e-05,5.6131204473786056e-05
-4.8347374104196206e-05,2.096147545671556e-05,5.763543413195293e-06,-4.338939470471814e-05,5.737825995311141e-05
-3.663415918708779e-05,1.7740001567290165e-05,3.826780357485404e-06,-4.18028466810938e-05,6.064869376132265e-05
-2.3991144189494662e-05,1.734442776069045e-05,1.5866191915847594e-06,-3.725100395968184e-05,6.423839658964425e-05
-1.7405438484274782e-05,2.050332295766566e-05,6.858969072709442e-07,-2.825283991114702e-05,6.488414510386065e-05
-1.8758717487799004e-05,2.364453030168079e-05,-9.481570373282011e-07,-2.081454476865474e-05,6.430785288102925e-05
-2.308072362211533e-05,2.1682237274944782e-05,-3.273542461101897e-06,-1.7512644262751564e-05,6.621760985581204e-05
-2.5796287445700727e-05,1.305571186094312e-05,-3.6027654459758196e-06,-1.4412477867153939e-05,6.709190347464755e-05
-3.0419329050346278e-05,6.476251655840315e-06,-2.002168685066863e-06,-1.1558651749510318e-05,6.43640523776412e-05
-3.501862011034973e-05,1.2225764294271357e-05,1.615462963400205e-07,-7.547881523350952e-06,6.110801041359082e-05
-3.2245818147202954e-05,2.707819476199802e-05,1.629817916182219e-06,-2.1056433041621858e-08,6.222885713214055e-05
-2.9371642085607164e-05,3.524213389027864e-05,3.381925353096449e-06,4.0245017771667335e-06,6.456136179622263e-05
-3.0497501938953064e-05,3.294156340416521e-05,4.410860128700733e-06,2.0512266019068193e-06,6.59551442367956e-05
-3.0318082281155512e-05,2.7532669264473952e-05,7.087409812811529e-06,2.5485849164397223e-07,6.695621414110065e-05
-2.7175634386367165e-05,2.4327770006493665e-05,1.091114154405659e-05,-1.0069527434097836e-06,6.889091309858486e-05
-2.3173388399300165e-05,2.3347265596385114e-05,1.2058409083692823e-05,-2.134328269676189e-06,7.106080738594756e-05
-1.7302267224295065e-05,2.535936982894782e-05,1.2309473277127836e-05,-5.919853720115498e-06,7.016577728791162e-05
-1.5473498933715746e-05,2.9319593522814102e-05,1.0917012332356535e-05,-1.1891927897522692e-05,6.59614524920471e-05
-1.9189361410099082e-05,3.196796387783252e-05,9.585452062310651e-06,-1.4608458513976075e-05,6.31248694844544e-05
-2.2948235709918663e-05,3.357198147568852e-05,9.027922715176828e-06,-1.4365438801178243e-05,6.3449697336182e-05
-2.3672080715186894e-05,2.8793410820071585e-05,1.0167093023483176e-05,-1.2255142792128026e-05,6.517776637338102e-05
-2.2075631932239048e-05,1.7180467693833634e-05,1.1631981578830164e-05,-1.1913217349501792e-05,6.487337668659166e-05
-2.150101681763772e-05,7.647565325896721e-06,1.1892755537701305e-05,-1.5188978068181314e-05,6.058536018826999e-05
-2.253482489322778e-05,7.842555532988627e-06,1.0445703992445488e-05,-2.1348281734390184e-05,5.7121054851450026e-05
-2.310358286194969e-05,1.7221200323547237e-05,7.87756926001748e-06,-2.775450047920458e-05,5.414988481788896e-05
-2.3765076548443176e-05,2.9100385290803388e-05,6.770324944227468e-06,-3.0498349588015117e-05,5.264321225695312e-05
-2.880710962926969e-05,3.624828968895599e-05,5.021798642701469e-06,-2.766967190837022e-05,5.5133597925305367e-05
-3.539871977409348e-05,3.6485784221440554e-05,1.9153821995132603e-06,-1.9331559087731875e-05,5.949704791419208e-05
-3.645783363026567e-05,3.6166453355690464e-05,1.5296184301405447e-06,-1.0442892744322307e-05,6.111720722401515e-05
-3.1368257623398677e-05,4.164201891398989e-05,3.4402235087327426e-06,-3.999526597908698e-06,6.0414164181565866e-05
-2.6716017600847408e-05,4.769884981215e-05,4.489916591410292e-06,-1.197946403408423e-06,6.109836976975203e-05
-2.6053621695609763e-05,4.502343654166907e-05,7.70035603636643e-06,-1.461802867197548e-06,6.547795055666938e-05
-2.851713725249283e-05,3.1265437428373843e-05,9.83758127404144e-06,-1.2487732874433277e-06,7.126931450329721e-05
-2.9946002541691996e-05,1.6984720787149854e-05,6.296662377280882e-06,-1.6682671457601828e-06,7.809935050318018e-05
-2.9819097107974812e-05,9.757494808582123e-06,-1.4447385865423712e-06,-2.905948576881201e-06,8.185160550056025e-05
-2.9819282644893974e-05,6.090639089961769e-06,-5.513576525117969e-06,-1.504707029198471e-06,7.671343337278813e-05
-2.836831299646292e-05,5.059667273599189e-06,-2.131672545147012e-06,2.852774059647345e-06,6.703304097754881e-05
-2.9489317967090756e-05,1.133771820605034e-05,8.758068361203186e-06,3.783670535995043e-06,6.0485454014269635e-05
-3.6288263800088316e-05,2.1903235392528586e-05,1.2842018804803956e-05,-1.9764543139899615e-06,5.6775970733724535e-05
-4.499820715864189e-05,2.7231189960730262e-05,5.798257916467264e-06,-9.18752539291745e-06,5.296298331813887e-05
-4.193800123175606e-05,3.108059536316432e-05,3.6132560126134194e-06,-1.0356850907555781e-05,5.119150227983482e-05
-3.065390046685934e-05,3.899500006809831e-05,6.03092757955892e-06,-3.422985628276365e-06,5.172082455828786e-05
-2.5827122954069637e-05,5.494735887623392e-05,7.354008630500175e-06,1.9056143401030567e-06,5.546643296838738e-05
-2.3356968085863627e-05,7.35151770641096e-05,4.57833948530606e-06,2.646437224029796e-06,5.512168718269095e-05
-2.0256402422091924e-05,7.546780398115516e-05,5.1495840125426184e-06,3.747647951968247e-06,5.2911636885255575e-05
-1.7805868992581964e-05,5.218818478169851e-05,6.416364612960024e-06,6.9092920966795646e-06,5.264028732199222e-05
-2.0792174836969934e-05,1.6501966456416994e-05,3.1682072858529864e-06,6.909580406500027e-06,5.3606701840180904e-05
-2.5471050321357325e-05,-1.1076694136136211e-05,-8.410254395130323e-07,2.886539505198016e-06,5.594253889285028e-05
-2.8177872081869282e-05,-2.0535822841338813e-05,-1.7312429463345325e-06,-4.651058134186314e-06,5.736836465075612e-05
-3.05525136354845e-05,-1.8695567632676102e-05,6.727406685058668e-07,-1.540560151624959e-05,5.763316585216671e-05
-3.1830128136789426e-05,-1.6924137526075356e-05,3.023682893399382e-06,-2.4450800992781296e-05,5.73510151298251e-05
-3.1125935493037105e-05,-1.8246188119519502e-05,3.6754026950802654e-06,-2.5532808649586514e-05,5.579720527748577e-05
-2.933368341473397e-05,-1.705630165815819e-05,2.7202149794902653e-06,-1.915765278681647e-05,5.39017710252665e-05
-2.9073791665723547e-05,-7.626646947755944e-06,2.179868033636012e-06,-1.3324117389856838e-05,5.502426211023703e-05
-3.156786260660738e-05,1.0224481229670346e-05,1.960595909622498e-06,-1.1469758646853734e-05,5.593987225438468e-05
-3.7344463635236025e-05,3.433063830016181e-05,2.580239424787578e-06,-1.2070976481481921e-05,5.569738641497679e-05
-4.0434588299831375e-05,5.753548248321749e-05,2.628356241984875e-06,-1.3686432794202119e-05,5.250085814623162e-05
-3.394843952264637e-05,6.552306149387732e-05,4.0930526665761136e-06,-1.7794558516470715e-05,4.727010309579782e-05
-2.3874728867667727e-05,4.838130917050876e-05,6.966879482206423e-06,-2.2986860130913556e-05,4.596317739924416e-05
-2.160393887606915e-05,2.4941422452684492e-05,7.57932139094919e-06,-2.802185554173775e-05,4.866601011599414e-05
-2.6055853595607914e-05,2.465261786710471e-05,5.9691042224585544e-06,-3.0475011953967623e-05,5.2670351578854024e-05
-3.1120882340474054e-05,4.154592897975817e-05,4.966371307091322e-06,-2.973545815621037e-05,5.494578363141045e-05
-3.2148422178579494e-05,4.3669268052326515e-05,3.7350728234741837e-06,-2.47003208642127e-05,5.0548183935461566e-05
-3.447603739914484e-05,2.6778148821904324e-05,2.7189773845748277e-06,-1.8418642866890877e-05,4.488481135922484e-05
-3.356303204782307e-05,1.3475158993969671e-05,1.7977532706936472e-06,-1.758789767336566e-05,4.789372542290948e-05
-2.7082465749117546e-05,1.3316866898094304e-05,-3.6046304785486427e-07,-1.8797602024278603e-05,5.43125242984388e-05
-2.7070360374636948e-05,2.1828431272297166e-05,-1.3782483847535332e-06,-1.7167178157251328e-05,5.61805754841771e-05
-2.8097565518692136e-05,3.338869646540843e-05,-5.019127229388687e-07,-1.456774498365121e-05,5.619368312181905e-05
-2.3715383576927707e-05,4.223279393045232e-05,3.6128062674833927e-06,-1.0327546988264658e-05,5.5996384617174044e-05
-1.966705713130068e-05,4.328517388785258e-05,6.849800229247194e-06,-7.330140306294197e-06,5.985003008390777e-05
-2.0306046280893497e-05,4.1886058170348406e-05,5.296662493492477e-06,-1.1197234925930388e-05,6.537061562994495e-05
-2.176787529606372e-05,4.386847649584524e-05,3.6362532682687743e-06,-1.677350519457832e-05,6.789257167838514e-05
-2.0687582946266048e-05,4.583982808981091e-05,3.1458287139685126e-06,-2.0534520444925874e-05,6.714322080370039e-05
-2.1506215489353053e-05,4.599163730745204e-05,7.438861757691484e-07,-2.230792051705066e-05,6.51961236144416e-05
-2.472546839271672e-05,4.3578002077993006e-05,-6.604310328839347e-06,-2.1522519091377035e-05,6.543420749949291e-05
-2.82576002064161e-05,4.1799958125920966e-05,-1.4046046089788433e-05,-2.2359134163707495e-05,6.624295201618224e-05
-2.8623519028769806e-05,3.9364003896480426e-05,-2.064478576357942e-05,-2.5459528842475265e-05,6.54378964100033e-05
-2.5668863600003533e-05,3.307720908196643e-05,-2.602600579848513e-05,-2.6286765205441043e-05,6.1032886151224375e-05
-2.319526902283542e-05,2.7252917789155617e-05,-2.4902150471461937e-05,-2.2435693608713336e-05,5.492998388945125e-05
-2.366610715398565e-05,2.8552336516440846e-05,-1.69034865393769e-05,-1.6124231478897855e-05,5.0214508519275114e-05
-2.7855490770889446e-05,3.222420855308883e-05,-8.081622581812553e-06,-1.0889782060985453e-05,5.1453473133733496e-05
-3.1110212148632854e-05,2.9762422855128534e-05,-3.515328444336774e-06,-7.806490430084523e-06,5.7092347560683265e-05
-2.873196717700921e-05,2.39356577367289e-05,-9.370917268824996e-07,-5.660755959979724e-06,6.08559166721534e-05
-2.0960205802111886e-05,2.1500547518371604e-05,3.0611929560109274e-06,-2.863758709281683e-06,5.866122228326276e-05
-1.6134865290950984e-05,2.3697288270341232e-05,7.547449968114961e-06,9.650451602283283e-07,5.503644570126198e-05
-1.702955887594726e-05,2.4425922674709e-05,5.714749022445176e-06,5.743742349295644e-06,5.577386400545947e-05
-1.72428808582481e-05,2.143532947229687e-05,7.673840229927009e-08,1.1288160749245435e-05,5.7726141676539555e-05
-1.5670644643250853e-05,2.21233149204636e-05,-8.808368079371576e-07,1.9268385585746728e-05,5.4736712627345696e-05
-1.6098367268568836e-05,3.3784199331421405e-05,5.9768462961073965e-06,2.519123700039927e-05,5.120538844494149e-05
-1.4891181308485102e-05,4.9489546654513106e-05,1.5238174455589615e-05,2.2991558580542915e-05,5.015710121369921e-05
-1.1241126230743248e-05,5.390423029894009e-05,2.092243084916845e-05,1.5508063370361924e-05,4.9277132347924635e-05
-1.3231884622655343e-05,4.833417187910527e-05,2.2488093236461282e-05,5.821526883664774e-06,4.797143628820777e-05
-2.085328560497146e-05,4.4403597712516785e-05,2.3327191229327582e-05,1.8734561990640941e-06,5.045599755248986e-05
-2.5269077013945207e-05,3.9776903577148914e-05,2.5997855118475854e-05,9.157479894383869e-07,5.730635530198924e-05
-2.672928894753568e-05,3.5790781112154946e-05,3.057186768273823e-05,-1.8170421753893606e-06,6.283943366724998e-05
-2.8860884413006715e-05,3.275090784882195e-05,3.207858026144095e-05,-3.640349859779235e-06,6.623905937885866e-05
-3.0846720619592816e-05,2.2295580492937006e-05,2.911328374466393e-05,-1.0006254342442844e-05,6.469365325756371e-05
-3.2611296774121e-05,1.0984338587149978e-05,2.3407361368299462e-05,-1.578741466801148e-05,6.181449862197042e-05
-3.60448939318303e-05,1.1807625924120657e-05,1.7815042156144045e-05,-1.7774160369299352e-05,5.679450259776786e-05
-4.146328501519747e-05,1.9301724023534916e-05,1.750263436406385e-05,-1.9588500435929745e-05,5.1467734010657296e-05
-4.4066040572943166e-05,2.3773205612087622e-05,1.874482950370293e-05,-2.1109352019266225e-05,4.92800390929915e-05
-4.631295087165199e-05,2.1939460566500202e-05,1.804234489100054e-05,-1.9849252566928044e-05,4.8812686145538464e-05
-4.8230289394268766e-05,1.8695720427786e-05,1.5383469872176647e-05,-1.601109943294432e-05,4.9036971176974475e-05
-4.7042747610248625e-05,1.7207805285579525e-05,1.3422658412309829e-05,-1.2486514606280252e-05,4.868919131695293e-05
-4.44550059910398e-05,1.7583584849489853e-05,1.3707538528251462e-05,-1.1360129064996727e-05,4.802931289304979e-05
-4.4250034989090636e-05,1.889427403511945e-05,1.4406426998903044e-05,-1.3145492630428635e-05,4.893954610452056e-05
-4.500701470533386e-05,1.3336990377865732e-05,1.3187028343963902e-05,-1.5037411685625557e-05,5.2015690016560256e-05
-4.004467336926609e-05,2.0112161109864246e-06,1.0436151569592766e-05,-1.353252082481049e-05,5.670037353411317e-05
-2.5813062165980227e-05,-1.5869682101765648e-06,8.128916306304745e-06,-8.070534022408538e-06,6.172453140607104e-05
-5.219600097916555e-06,1.1265657121839467e-05,4.915667432214832e-06,-2.085654841721407e-06,6.500071322079748e-05
9.848425179370679e-06,3.40101178153418e-05,4.608035339970229e-07,-6.262333727136138e-07,6.718994700349867e-05
1.2081896784366108e-05,5.7155357353622094e-05,-4.209449343761662e-06,-4.820493359147804e-06,6.619572377530858e-05
5.4804513638373464e-06,7.348308281507343e-05,-7.117644145182567e-06,-9.906211744237226e-06,6.365437729982659e-05
-7.494803412555484e-06,7.887004903750494e-05,-7.29098519514082e-06,-1.281257482332876e-05,6.367836613208055e-05
-2.4351300453417934e-05,7.903645018814132e-05,-4.953647930960869e-06,-1.642868301132694e-05,6.405514432117343e-05
-3.11029507429339e-05,7.732620724709705e-05,-2.7646769922284875e-06,-1.9384482584428042e-05,6.250378646655008e-05
-2.55287995969411e-05,7.34521308913827e-05,-5.539680387300905e-06,-1.5545179849141277e-05,5.959614281891845e-05
-2.1133626432856545e-05,6.794767978135496e-05,-6.159047188702971e-06,-1.3482515896612313e-05,5.6772190873743966e-05
-2.3457878342014737e-05,5.268266613711603e-05,3.0009177862666547e-06,-1.8883589291363023e-05,6.0717957239830866e-05
-2.581405897217337e-05,2.389286964898929e-05,9.604440492694266e-06,-2.135137765435502e-05,6.59107172396034e-05
-2.474226857884787e-05,-1.0420914804853965e-05,6.449341071856907e-06,-2.198348011006601e-05,6.694970943499357e-05
-2.6955407520290464e-05,-2.7341444365447387e-05,2.6573718514555367e-07,-2.894267345254775e-05,6.594698061235249e-05
-3.2419553463114426e-05,-1.8161676052841358e-05,-4.2805099838005845e-06,-3.5433298762654886e-05,6.548361852765083e-05
-3.254077091696672e-05,3.4390184282528935e-06,-6.023242349328939e-06,-3.434069731156342e-05,6.670814036624506e-05
-2.986071922350675e-05,2.0474710254347883e-05,-1.0002796443586703e-05,-2.9793091016472317e-05,6.536883302032948e-05
-2.902969572460279e-05,2.4023709556786343e-05,-1.8003878722083755e-05,-2.976998257508967e-05,6.239477806957439e-05
-2.942724313470535e-05,1.9281915228930302e-05,-2.281171146023553e-05,-2.7667178073897958e-05,5.974261148367077e-05
-3.130182813038118e-05,1.72057916643098e-05,-2.205539021815639e-05,-1.884602170321159e-05,6.121174374129623e-05
-3.5489742003846914e-05,2.0493014744715765e-05,-1.8983824702445418e-05,-8.75618206919171e-06,6.198429764481261e-05
-4.3679039663402364e-05,2.5347337214043364e-05,-1.4984039808041416e-05,7.252410938463072e-08,5.7043362176045775e-05
-5.3175663197180256e-05,2.879192106775008e-05,-8.644118679512758e-06,7.789265509927645e-06,5.275414150673896e-05
-6.13604424870573e-05,2.8516535167000256e-05,2.7555740871321177e-06,1.4582446056010667e-05,5.304985825205222e-05
-6.707146530970931e-05,2.7950214644079097e-05,1.5325971617130563e-05,1.7722933989716694e-05,5.259838144411333e-05
-6.793520151404664e-05,2.510982631065417e-05,2.4622398996143602e-05,1.8078679204336368e-05,4.956509292242117e-05
-6.313102494459599e-05,1.8014914530795068e-05,2.983114063681569e-05,1.516617885499727e-05,4.9248035793425515e-05
-5.6638535170350224e-05,1.0383078006270807e-05,3.1962310458766297e-05,1.0635646503942553e-05,4.9560538172954693e-05
-5.1663850172189996e-05,3.385288664503605e-06,3.081289105466567e-05,5.629326096823206e-06,4.844310024054721e-05
-4.9294831114821136e-05,-8.730275112611707e-06,2.6596550014801323e-05,1.3650161463374388e-06,4.993232505512424e-05
-4.863520007347688e-05,-2.18888781091664e-05,2.3171640350483358e-05,-6.637409910581482e-07,5.406662603490986e-05
-4.682478174800053e-05,-1.9539473214535974e-05,2.0071189283044077e-05,-1.3033817367613665e-06,5.8114346757065505e-05
-4.37284579675179e-05,1.3170571264708997e-06,1.5180155060079414e-05,-4.385817078400578e-07,6.346845475491136e-05
-4.0585724491393194e-05,2.315644087502733e-05,1.0525026482355315e-05,7.392342808998364e-07,6.579787441296503e-05
-3.425160321057774e-05,3.57383796654176e-05,8.997390978038311e-06,2.9008542696828954e-06,6.285993731580675e-05
-2.2085527234594338e-05,3.928743535652757e-05,9.373134162160568e-06,8.109762347885408e-06,6.075868077459745e-05
-1.0678801118046977e-05,3.458190622041002e-05,8.494438588968478e-06,1.0203802048636135e-05,6.076176941860467e-05
-6.96706274538883e-06,2.5871966499835253e-05,7.723980161244981e-06,5.355096163839335e-06,6.363465217873454e-05
-7.119184374460019e-06,2.098467666655779e-05,7.725187970208935e-06,1.6644750076011405e-06,6.452547677326947e-05
-4.3333361645636614e-06,2.056645098491572e-05,8.243096090154722e-06,2.8512672543001827e-06,6.298317748587579e-05
9.438816732654232e-07,2.0678506189142354e-05,6.178216608532239e-06,2.315069195901742e-06,6.583543290616944e-05
5.7176698646799196e-06,2.1138037482160144e-05,4.282706868252717e-06,-9.939552825244391e-08,6.884799222461879e-05
5.231695013208082e-06,2.578640305728186e-05,5.048343155067414e-06,-6.131578629720025e-06,6.794137880206108e-05
-1.7450601035307045e-06,3.464276232989505e-05,3.340912371641025e-06,-1.3367304745770525e-05,6.377737008733675e-05
-1.274522946914658e-05,3.95431270590052e-05,9.425174312127638e-07,-1.4245254533307161e-05,6.10522401984781e-05
-2.2397371139959432e-05,3.4604363463586196e-05,1.916424480441492e-06,-1.107969910663087e-05,6.123285857029259e-05
-2.6129509933525696e-05,2.39515102293808e-05,6.0729566939699e-06,-8.487240847898647e-06,6.315530481515452e-05
-2.655033313203603e-05,2.344856875424739e-05,5.876628165424336e-06,-9.40358131629182e-06,6.308559386525303e-05
-2.3404454623232596e-05,3.92556466977112e-05,-2.866714510219026e-07,-1.1582779734453652e-05,6.0981037677265704e-05
-1.9187100406270474e-05,5.955075175734237e-05,-6.204722012626007e-06,-1.1208067007828504e-05,6.047654096619226e-05
-1.7472872059443034e-05,6.656158802798018e-05,-6.3465131461271085e-06,-7.7101394708734e-06,6.188941915752366e-05
-1.840524419094436e-05,5.796858749818057e-05,-4.460060608835192e-06,-6.4610212575644255e-06,6.349166505970061e-05
-2.017175756918732e-05,4.106003325432539e-05,-4.0173040360969026e-06,-8.966162567958236e-06,6.263862451305613e-05
-2.1384041247074492e-05,2.3419443095917813e-05,-2.7410712846176466e-06,-1.228543169418117e-05,6.058935105102137e-05
-2.234052590210922e-05,7.452239060512511e-06,4.788436172020738e-07,-1.2989179595024325e-05,5.8761088439496234e-05
-2.2685992007609457e-05,-6.133759143267525e-06,2.5838078272499843e-06,-1.1675017958623357e-05,5.950267950538546e-05
-2.438053343212232e-05,-1.5984214769559912e-05,2.110085915774107e-06,-1.0361025488236919e-05,6.197160109877586e-05
-2.6456469640834257e-05,-2.1728308638557792e-05,2.148123712686356e-06,-9.830720046011265e-06,6.33199597359635e-05
-2.6322670237277634e-05,-2.752393629634753e-05,5.982176389807137e-06,-8.840213013172615e-06,6.067830327083357e-05
-2.4336086426046677e-05,-3.01685904560145e-05,1.307470301981084e-05,-7.2829002419894096e-06,5.930164479650557e-05
-1.928207348100841e-05,-1.791448266885709e-05,1.580928983457852e-05,-6.0896359173057135e-06,6.258943176362664e-05
-1.4243629266275093e-05,9.249318281945307e-06,1.4830080544925295e-05,-3.0010730824869825e-06,6.359394319588318e-05
-1.4124054359854199e-05,4.4835745939053595e-05,1.2527068065537605e-05,5.372285613702843e-06,6.033578756614588e-05
-1.626175617275294e-05,6.817973189754412e-05,9.220294487022329e-06,1.0358375220675953e-05,5.925526420469396e-05
-1.890529711090494e-05,6.93731926730834e-05,6.911602213222068e-06,4.0866525523597375e-06,6.128049426479265e-05
-2.347812733205501e-05,6.834027590230107e-05,4.895709480479127e-06,-5.8364357755635865e-06,6.239169306354597e-05
-2.909140312112868e-05,7.507434929721057e-05,4.06685740017565e-06,-1.8331442333874293e-05,6.271080928854644e-05
-2.91065480269026e-05,7.968202407937497e-05,4.052773874718696e-06,-2.871522337954957e-05,6.433596718125045e-05
-2.6240253646392375e-05,8.539309055777267e-05,1.3100764135742793e-06,-2.9190530767664313e-05,6.42200539004989e-05
-2.5908917450578883e-05,9.182078792946413e-05,-6.422840783670836e-07,-2.5416709831915796e-05,5.817947385367006e-05
-2.6694029656937346e-05,8.400487422477454e-05,1.2656317949222284e-06,-2.1568623196799308e-05,4.8983707529259846e-05
-2.6675550543586724e-05,6.088285954319872e-05,3.1304127787734615e-06,-1.606820114830043e-05,4.524644464254379e-05
-2.522444810892921e-05,3.8418947951868176e-05,3.324463477838435e-06,-1.1555428500287235e-05,5.080385017208755e-05
-2.5287850803579204e-05,3.217686389689334e-05,1.6311707895511063e-06,-7.89352270658128e-06,5.7680634199641645e-05
-2.4946555640781298e-05,3.671930971904658e-05,-3.1709291761217173e-06,-5.045755187893519e-06,6.013395977788605e-05
-2.5516910682199523e-05,3.6332996387500316e-05,-8.879893357516266e-06,-1.6494526562382816e-06,5.920472540310584e-05
-2.7838201276608743e-05,2.8271444534766488e-05,-1.0574714906397276e-05,5.2078253247600514e-06,5.793640229967423e-05
-2.9622886358993128e-05,2.158243842131924e-05,-6.952398962312145e-06,1.1982855539827142e-05,5.9335186961106956e-05
-3.175789606757462e-05,2.257311098219361e-05,-3.0102216896921163e-07,1.2359949323581532e-05,6.10517745371908e-05
-3.4714696084847674e-05,2.8224669222254306e-05,3.762602091228473e-06,5.267810138320783e-06,5.988884004182182e-05
-3.638882117229514e-05,3.5127064620610327e-05,3.3596254525036784e-06,-4.50063180323923e-06,6.055395715520717e-05
-3.5604309232439846e-05,4.35128495155368e-05,1.1083080835305736e-06,-1.1349226042511873e-05,6.332767952699214e-05
-3.163103974657133e-05,5.6305892940144986e-05,-1.6858007256814744e-06,-1.390424858982442e-05,6.524617492686957e-05
-2.5343653760501184e-05,6.79508302710019e-05,-3.6116098272032104e-06,-1.4357860891323071e-05,6.656834011664614e-05
-2.2774744138587266e-05,6.7789078457281e-05,-3.0979497296357295e-06,-1.4113228644418996e-05,6.692833994748071e-05
-2.6383295335108414e-05,5.750804484705441e-05,-6.388331712514628e-07,-1.4854425899102353e-05,6.569205288542435e-05
-3.0667866667499766e-05,5.0565620767883956e-05,1.684916810518189e-07,-1.8589478713693097e-05,6.339987157844007e-05
-3.1162922823568806e-05,5.1964230806333944e-05,-1.041133714352327e-06,-2.284275251440704e-05,6.192456930875778e-05
-2.610408773762174e-05,4.8898560635279864e-05,-2.151513399439864e-06,-2.1884752641199157e-05,6.09380476817023e-05
-1.6160525774466805e-05,3.5027493140660226e-05,-3.4092506666638656e-06,-1.6705396774341352e-05,6.087632573326118e-05
-1.0458625183673576e-05,1.9215091015212238e-05,-2.3764434899931075e-06,-1.3735521861235611e-05,6.0343463701428846e-05
-1.0362570719735231e-05,1.0602363545331173e-05,2.600304014777066e-06,-1.7231575839105062e-05,5.844618135597557e-05
-1.3208503332862165e-05,6.91416335030226e-06,7.804433153069112e-06,-1.93740470422199e-05,5.809733920614235e-05
-1.7833355741458945e-05,3.952573024434969e-06,1.1618117241596337e-05,-1.6227746527874842e-05,5.728013638872653e-05
-2.2227757654036395e-05,3.4044151107082143e-06,1.4254483176046051e-05,-1.6658557797200046e-05,5.491433330462314e-05
-2.4415548978140578e-05,2.6294153485650895e-06,1.6133080862346105e-05,-1.9324485037941486e-05,5.350156789063476e-05
-2.345343273191247e-05,-3.363209089002339e-06,1.5070635527081322e-05,-2.028662129305303e-05,5.340983625501394e-05
-2.2265903680818155e-05,-7.0972337198327295e-06,1.3369820408115629e-05,-2.096428033837583e-05,5.290854096529074e-05
-1.982907451747451e-05,3.267685087848804e-06,1.4005207958689425e-05,-1.7328049580100924e-05,5.4586580517934635e-05
-1.9708584659383632e-05,2.1033127268310636e-05,1.6473055438837036e-05,-1.3971736734674778e-05,6.0972241044510156e-05
-2.2169953808770515e-05,3.409225246286951e-05,1.811618494684808e-05,-1.7420317817595787e-05,6.814212974859402e-05
-2.293553734489251e-05,3.67210668628104e-05,1.640016125747934e-05,-2.417707582935691e-05,7.053856825223193e-05
-1.894673732749652e-05,3.087880395469256e-05,1.3757683518633712e-05,-2.8700729671982117e-05,6.974329880904406e-05
-1.01872146842652e-05,2.2351510779117234e-05,1.1575957614695653e-05,-2.6231096853734925e-05,7.178192026913166e-05
-3.7654422158084344e-06,1.5679326679673977e-05,1.1071915650973096e-05,-2.023888737312518e-05,7.534579344792292e-05
-3.2175478281715186e-06,1.2046089068462607e-05,1.2075077393092215e-05,-1.5070759218360763e-05,7.564812403870746e-05
-6.805765224271454e-06,1.0134672265849076e-05,1.3089691492496058e-05,-1.36406642923248e-05,7.273675146279857e-05
-1.1152626939292531e-05,1.0007182936533354e-05,1.2394696568662766e-05,-1.5196959793684073e-05,6.95969647495076e-05
-1.3496728570316918e-05,1.0876210581045598e-05,1.093177888833452e-05,-1.6633306586300023e-05,6.605729140574113e-05
-1.3232812307251152e-05,1.3884929103369359e-05,9.616381248633843e-06,-1.7374910385115072e-05,6.220069917617366e-05
-1.8343042029300705e-05,1.9652443370432593e-05,7.889446351327933e-06,-2.0003837562398985e-05,5.926870653638616e-05
-3.260796802351251e-05,2.4628885512356646e-05,7.877186362748034e-06,-2.3245067495736293e-05,5.939995753578842e-05
-4.505445031099953e-05,2.5394789190613665e-05,8.82487165654311e-06,-2.634748670971021e-05,5.7031091273529455e-05
-4.549217919702642e-05,2.473201857355889e-05,6.337042577797547e-06,-2.9819546398357488e-05,5.0697832193691283e-05
-4.3969808757537976e-05,2.397310163360089e-05,-1.3873923307983205e-06,-2.99740659102099e-05,4.875653758062981e-05
-5.018920637667179e-05,2.483599200786557e-05,-5.481984317157185e-06,-2.828680408129003e-05,4.989195440430194e-05
-5.4494928917847574e-05,2.893521377700381e-05,-7.685570153626031e-07,-3.0088089260971174e-05,4.9563062930246815e-05
-5.5848489864729345e-05,3.1929313990985975e-05,3.476172423688695e-06,-3.499710510368459e-05,5.0413324061082676e-05
-5.7102581195067614e-05,3.38735080731567e-05,5.5905211411300115e-06,-3.718674634001218e-05,4.86261305923108e-05
-5.455427526612766e-05,4.0907078073360026e-05,3.879750238411361e-06,-3.317801747471094e-05,4.6377379476325586e-05
-4.7877423639874905e-05,5.321520075085573e-05,8.65316508225078e-07,-2.5494331566733308e-05,5.3057556215208024e-05
-3.596553870011121e-05,6.441096775233746e-05,4.5349838728725445e-07,-2.090883754135575e-05,6.439439312089235e-05
-2.261206645925995e-05,6.911003583809361e-05,2.6897839688899694e-07,-1.7777885659597814e-05,7.187286973930895e-05
-1.7057109289453365e-05,7.151832687668502e-05,-3.0676383744321356e-07,-1.6999321815092117e-05,6.905467307660729e-05
-1.855962909758091e-05,6.694925104966387e-05,-4.147209438087884e-06,-1.9910061382688582e-05,6.0187812778167427e-05
-2.0215302356518805e-05,5.7959685364039615e-05,-8.044612513913307e-06,-2.1729945729020983e-05,5.5452528613386676e-05
-1.761309613357298e-05,4.7171204641927034e-05,-8.0576901382301e-06,-1.789432280929759e-05,5.703884380636737e-05
-1.4263533557823393e-05,2.585269248811528e-05,-7.115430435078451e-06,-1.1209999684069771e-05,5.540193524211645e-05
-1.566360515425913e-05,-1.512236394773936e-06,-8.732540663913824e-06,-5.9908811635978054e-06,5.1753966545220464e-05
-1.834804606914986e-05,-3.203160667908378e-05,-9.58439522946719e-06,-2.4291700810863404e-06,5.1465733122313395e-05
-1.7687829313217662e-05,-6.053623292245902e-05,-6.79830964145367e-06,-1.6668370790284825e-06,5.291947309160605e-05
-1.4772246686334256e-05,-7.096619083313271e-05,-4.818138222617563e-06,-2.6273535240761703e-06,5.457034058053978e-05
-1.3109609426464885e-05,-4.910103598376736e-05,-5.6342551033594646e-06,-1.3828326927978196e-06,5.207446156418882e-05
-1.4864455806673504e-05,-8.195008376787882e-06,-3.2372865916840965e-06,1.4768593246117234e-06,4.5763965317746624e-05
-2.2010219254298136e-05,2.6468940632184967e-05,5.131739726493834e-06,2.462846623529913e-06,4.197885937173851e-05
-3.241625381633639e-05,4.349091977928765e-05,1.5168357094808016e-05,2.787815674309968e-06,4.355638156994246e-05
-3.7626679841196164e-05,4.933910895488225e-05,2.2127725969767198e-05,2.431123903079424e-06,4.468280531000346e-05
-3.37056080752518e-05,4.988662840332836e-05,2.501300878066104e-05,-8.202911772059451e-07,4.289855496608652e-05
-2.5472634661127813e-05,4.5717344619333744e-05,2.508201214368455e-05,-7.3641081144160125e-06,4.404452920425683e-05
-2.274861435580533e-05,3.8535359635716304e-05,2.5893739802995697e-05,-1.1774063750635833e-05,5.093021900393069e-05
-2.3549127945443615e-05,3.287287472630851e-05,2.802749804686755e-05,-1.2960933418071363e-05,5.663378397002816e-05
-2.0866480554104783e-05,3.187890979461372e-05,2.744243283814285e-05,-1.1216517123102676e-05,5.765040623373352e-05
-1.7697411749395542e-05,3.1353385566035286e-05,2.3622484150109813e-05,-6.97365976520814e-06,5.620090814772993e-05
-1.4785358871449716e-05,2.6225930923828855e-05,2.1229505364317447e-05,-1.4244203612179263e-06,5.6863656936911866e-05
-1.631329723750241e-05,1.7101589037338272e-05,2.263874193886295e-05,5.580426659435034e-06,6.068012226023711e-05
-2.3794145818101242e-05,1.589614839758724e-05,2.2127174815977924e-05,1.4483915037999395e-05,6.460556323872879e-05
-2.731887434492819e-05,2.6037299903691746e-05,1.990220152947586e-05,2.1777197616756894e-05,6.605864473385736e-05
-2.699319702514913e-05,4.0089002141030505e-05,1.899804556160234e-05,2.4105675038299523e-05,6.135487637948245e-05
-2.5563012968632393e-05,5.2017381676705554e-05,1.590015017427504e-05,2.465962097630836e-05,5.538521145354025e-05
-2.5235229259124026e-05,5.374668398872018e-05,1.4837242815701757e-05,2.3901035092421807e-05,5.47330710105598e-05
-2.9012353479629382e-05,4.861145498580299e-05,1.4632804777647834e-05,2.1990053937770426e-05,5.893076377105899e-05
-2.944236075563822e-05,4.506211189436726e-05,1.0931466931651812e-05,1.9158364011673257e-05,6.342243432300165e-05
-2.4881790523068048e-05,3.869444117299281e-05,6.488259259640472e-06,1.4620696674683131e-05,6.356174708344042e-05
-1.715902726573404e-05,3.078656300203875e-05,4.281089331925614e-06,6.873960501252441e-06,6.22909064986743e-05
-1.2229544154251926e-05,2.775383836706169e-05,7.013752565399045e-06,1.436467755411286e-06,6.342306005535647e-05
-1.4010086488269735e-05,2.903546737798024e-05,1.1097040442109574e-05,1.465228365304938e-06,6.640992796747014e-05
-2.0268982552806847e-05,2.7473795853438787e-05,1.2491599591157865e-05,3.907867721864022e-06,6.789389590267092e-05
-2.6921308744931594e-05,2.0340728951850906e-05,7.845131221984047e-06,2.346316250623204e-06,6.889819633215666e-05
-3.062191535718739e-05,1.1540563718881458e-05,1.6307697023876244e-06,-7.128643119358458e-06,6.966981163714081e-05
-2.9050946977804415e-05,1.5544310372206382e-06,-1.8203198806077125e-06,-2.0905970814055763e-05,6.999979814281687e-05
-2.4096545530483127e-05,-1.0910707715083845e-05,-6.330264113785233e-06,-3.123704300378449e-05,6.875226245028898e-05
-1.9848936062771827e-05,-1.9701696146512404e-05,-1.5383138816105202e-05,-3.454072430031374e-05,6.817809480708092e-05
-1.727061317069456e-05,-2.0560242774081416e-05,-2.3060259991325438e-05,-3.505234781187028e-05,6.717537326039746e-05
-1.8848746549338102e-05,-1.710707692836877e-05,-2.283186768181622e-05,-3.2863299566088244e-05,6.353886419674382e-05
-2.4026527171372436e-05,-1.2229385902173817e-05,-1.7807649783208035e-05,-2.5806008125073276e-05,5.761638021795079e-05
-3.0940587748773396e-05,-2.1838079078406736e-07,-1.1519548934302293e-05,-1.4344601368065923e-05,5.244210478849709e-05
-3.714186095749028e-05,2.2639349481323734e-05,-2.914225660788361e-06,-3.1833496905164793e-06,5.234109630691819e-05
-3.963023846154101e-05,4.728467683889903e-05,9.109482562053017e-06,5.163839432498207e-06,5.6212189520010725e-05
-3.700716479215771e-05,5.948554098722525e-05,1.8017648471868597e-05,5.520578270079568e-06,5.996211984893307e-05
-3.201223807991482e-05,6.0069742175983265e-05,2.16622393054422e-05,3.33960679199663e-06,5.865470666321926e-05
-3.12247866531834e-05,6.081126048229635e-05,2.4872017093002796e-05,7.877805728639942e-06,5.6970635341713205e-05
-3.682590977405198e-05,6.571510311914608e-05,2.5131937945843674e-05,1.6326461263815872e-05,5.777447222499177e-05
-4.050998904858716e-05,7.485516835004091e-05,1.5976962458807975e-05,2.2671254555461928e-05,5.976877946523018e-05
-4.485666431719437e-05,7.860375626478344e-05,1.585781774338102e-06,2.213961306551937e-05,6.195572495926172e-05
-5.1733539294218644e-05,7.281267608050257e-05,-3.2051138987299055e-06,1.5464853277080692e-05,6.301423127297312e-05
-5.0712467782432213e-05,6.274876795941964e-05,-1.6206174677790841e-06,7.644433026143815e-06,6.204575038282201e-05
-4.0588151023257524e-05,5.927418533246964e-05,-6.505325700345566e-07,-7.02918725892232e-07,6.123885395936668e-05
-3.131900666630827e-05,6.0208378272363916e-05,3.809501095020096e-06,-8.275816981040407e-06,5.9162990510230884e-05
-2.567158117017243e-05,5.785741814179346e-05,8.506945050612558e-06,-1.0199632015428506e-05,5.807969137094915e-05
-2.272531492053531e-05,5.302244608174078e-05,1.283235087612411e-05,-1.2123464330215938e-05,5.811530354549177e-05
-2.6034840630018152e-05,4.773079854203388e-05,1.7581596694071777e-05,-1.7073294657166116e-05,6.0089532780693844e-05
-3.221815495635383e-05,4.660251215682365e-05,1.9813682229141705e-05,-2.191463681811001e-05,6.137067248346284e-05
-3.386403477634303e-05,5.022452387493104e-05,1.767698267940432e-05,-2.406431121926289e-05,6.099691745475866e-05
-3.04645855067065e-05,5.7314908190164715e-05,1.6333684470737353e-05,-2.2458145394921303e-05,6.116438453318551e-05
-2.719724398048129e-05,6.1029018979752436e-05,1.687449730525259e-05,-1.9799925212282687e-05,6.073560507502407e-05
-2.6827079636859708e-05,5.670519021805376e-05,1.7516706066089682e-05,-2.1532923710765317e-05,5.8512283430900425e-05
-2.9261887902976014e-05,4.39614595961757e-05,1.4495076356979553e-05,-2.5161871235468425e-05,5.5110045650508255e-05
-3.4948825486935675e-05,2.857935214706231e-05,9.29595626075752e-06,-2.3245140255312435e-05,5.3983083489583805e-05
-3.9153139368863776e-05,1.7041160390363075e-05,6.641627805947792e-06,-1.668654840614181e-05,5.412167593021877e-05
-3.553728311089799e-05,1.1702128176693805e-05,6.337802460620878e-06,-1.2876535947725642e-05,5.269484972814098e-05
-2.6217076083412394e-05,5.978407898510341e-06,5.2776017582800705e-06,-1.4219919648894574e-05,4.989308581571095e-05
-1.6872329069883563e-05,-2.1471266791195376e-06,2.3505954231950454e-06,-1.7759593902155757e-05,4.8869300371734425e-05
-8.67649941937998e-06,-4.314124907978112e-06,2.3323120785789797e-06,-1.9848015654133633e-05,5.087222598376684e-05
-4.794413143827114e-06,-3.3663195608824026e-07,5.3582248256134335e-06,-1.7765296433935873e-05,5.2837807743344456e-05
-8.459431228402536e-06,5.103127477923408e-06,7.557041044492507e-06,-1.647844874241855e-05,5.1085433369735256e-05
-1.25977039715508e-05,8.228443221014459e-06,7.152974376367638e-06,-1.7033225958584808e-05,4.9630838475422934e-05
-1.3086909348203335e-05,1.20242839329876e-05,7.449952590832254e-06,-1.6685287846485153e-05,5.021287506679073e-05
-1.452525430067908e-05,2.191747807955835e-05,1.1903322956641205e-05,-1.814284041756764e-05,5.1700728363357484e-05
-1.6538620911887847e-05,3.20379258482717e-05,1.723757668514736e-05,-2.2170714146341197e-05,5.4820960940560326e-05
-1.723748391668778e-05,3.357616878929548e-05,1.1607308806560468e-05,-2.793258499877993e-05,5.730229167966172e-05
-1.984990194614511e-05,2.7976857381872833e-05,-2.216900838902802e-06,-3.070451566600241e-05,5.8264668041374534e-05
-1.9232847989769652e-05,2.5141967853414826e-05,-1.0554931577644311e-05,-2.4497545382473618e-05,6.227091216715053e-05
-1.4953046047594398e-05,2.1277226551319472e-05,-1.0291159924236126e-05,-1.2870831596956123e-05,6.751882028765976e-05
-1.3651240806211717e-05,3.2502980502613354e-06,-5.544453415495809e-06,-3.6104054288443876e-06,6.972581468289718e-05
-1.3903290891903453e-05,-1.5671004803152755e-05,-3.991820847204508e-07,-3.7578647607006133e-06,6.64051913190633e-05
-1.097185395337874e-05,-1.4247178114601411e-05,4.331281616032356e-06,-8.136828000715468e-06,6.135702278697863e-05
-1.1057059055019636e-05,-1.3803331739836722e-06,6.696755008306354e-06,-1.0069111340271775e-05,5.8280704251956195e-05
-1.4578657101083081e-05,5.353765573090641e-06,6.390992894012015e-06,-1.0841990842891391e-05,5.862381658516824e-05
-1.6282006981782615e-05,7.545822882093489e-06,5.8575355978973676e-06,-1.1842752428492531e-05,5.753455843660049e-05
-2.3026492272038013e-05,7.868419743317645e-06,4.057776550325798e-06,-1.4459224075835664e-05,5.560668068937957e-05
-3.298068622825667e-05,9.077450158656575e-06,4.2554799506433483e-07,-1.666590105742216e-05,5.371251609176397e-05
-3.2609616027912125e-05,1.651263482926879e-05,-2.3413799681293312e-06,-1.6466174201923423e-05,5.1521084969863296e-05
-1.7088377717300318e-05,3.091362668783404e-05,-3.1517008665105095e-06,-1.5781786714796908e-05,5.10227691847831e-05
3.143107051073457e-06,4.286572220735252e-05,-2.9584462026832625e-06,-1.550193155708257e-05,4.9806014430942014e-05
1.489807982579805e-05,4.491986328503117e-05,-2.7334888272889657e-06,-1.5112844266695902e-05,4.827296652365476e-05
1.3644525097333826e-05,4.3554660805966705e-05,-5.553307346417569e-06,-1.5806192095624283e-05,4.98256049468182e-05
1.2168853800176294e-06,4.597664883476682e-05,-1.1231042662984692e-05,-1.7791458958527073e-05,5.0651360652409494e-05
-1.9574905309127644e-05,4.6079192543402314e-05,-1.5803198039066046e-05,-2.0386547475936823e-05,4.7704750613775104e-05
-4.550219091470353e-05,3.391372229089029e-05,-1.7533078789711e-05,-2.3268952645594254e-05,4.468212500796653e-05
-6.878574640722945e-05,1.1811589502030984e-05,-1.5601144696120173e-05,-2.4561997634009458e-05,4.168902523815632e-05
-7.937695045256987e-05,-3.7557365430984646e-06,-9.428160410607234e-06,-2.1561356334132142e-05,4.134832488489337e-05
-7.683428702875972e-05,2.463959390297532e-06,-5.9227586461929604e-06,-1.5823285139049403e-05,4.4348194933263585e-05
-6.643828237429261e-05,2.718830728554167e-05,-7.26825464880676e-06,-9.9746312116622e-06,4.897817052551545e-05
-5.342413714970462e-05,5.074243381386623e-05,-6.942358595551923e-06,-4.828943474421976e-06,5.178224091650918e-05
-4.514021202339791e-05,5.6007593229878694e-05,-1.826171796892595e-06,-2.3829122710594675e-06,5.2376690291566774e-05
-4.3602434743661433e-05,4.987267675460316e-05,4.684867690230021e-06,-3.2561963507760083e-06,5.361333751352504e-05
-4.6256871428340673e-05,4.085872569703497e-05,8.206486199924257e-06,-8.03815510153072e-06,5.900622272747569e-05
-4.617622835212387e-05,2.7840798793477006e-05,9.103227966988925e-06,-1.6500216588610783e-05,6.751740875188261e-05
-4.020250344183296e-05,1.8101502064382657e-05,5.550806235987693e-06,-2.220632268290501e-05,7.435482257278636e-05
-3.333862332510762e-05,1.2869467354903463e-05,4.6977422130112245e-07,-2.3467722712666728e-05,7.434913277393207e-05
-2.9526636353693902e-05,6.500980816781521e-06,-4.661447974285693e-07,-2.125373066519387e-05,7.02002362231724e-05
-2.9786928280373104e-05,-3.880656549881678e-06,1.1794913916673977e-06,-1.651670208957512e-05,6.798322283430025e-05
-2.537386171752587e-05,-2.191771454818081e-05,1.061293005477637e-06,-1.311325377173489e-05,6.92819885443896e-05
-1.6805055565782823e-05,-3.872643719660118e-05,2.053182015515631e-06,-1.17830759336357e-05,7.003024802543223e-05
-1.2395968951750547e-05,-4.1613126086303964e-05,5.65891241421923e-06,-9.141471309703775e-06,7.161951361922547e-05
-1.4273112356022466e-05,-3.273705442552455e-05,8.19832075649174e-06,-6.6409761529939715e-06,7.256066601257771e-05
-2.021539148699958e-05,-2.410398519714363e-05,9.126946679316461e-06,-6.635041700064903e-06,7.175753853516653e-05
-2.5774328605621122e-05,-1.2096544196538161e-05,7.99531517259311e-06,-6.688241683150409e-06,6.911178206792101e-05
-2.692113775992766e-05,1.26554150483571e-05,7.375361292361049e-06,-7.3468336267978884e-06,6.678196950815618e-05
-2.180193769163452e-05,4.2030264012282714e-05,8.467315637972206e-06,-8.982859981188085e-06,6.709047011099756e-05
-1.562406396260485e-05,7.4163603130728e-05,1.1042314326914493e-05,-9.597280040907208e-06,6.570693221874535e-05
-1.462462023482658e-05,0.00012089536903658882,1.3382270481088199e-05,-8.508272912877146e-06,6.160899647511542e-05
-1.819285716919694e-05,0.00017020896484609693,1.2294358384679072e-05,-6.17586783846491e-06,6.162757199490443e-05
-2.227552431577351e-05,0.00018467310292180628,8.461708603135776e-06,-3.233992856621626e-06,6.665052933385596e-05
-2.2145894035929814e-05,0.0001438284234609455,3.235666326872888e-06,-1.3828345117872232e-06,6.840675632702187e-05
-1.7966005543712527e-05,7.093383464962244e-05,-1.507272031631146e-06,-3.6446915601118235e-06,6.482586468337104e-05
-1.3745219803240616e-05,2.063824467768427e-05,-3.5251960071036592e-06,-7.649237886653282e-06,5.870323002454825e-05
-1.0386138455942273e-05,1.835293005569838e-05,-3.341154979352723e-06,-9.66788866207935e-06,5.429629891295917e-05
-6.66732785248314e-06,3.4104217775166035e-05,-3.5582199870987097e-06,-1.2589252946781926e-05,5.2757499361177906e-05
-7.0680953285773285e-06,3.765359360841103e-05,-4.768209862504591e-07,-1.5494473700528033e-05,5.5441021686419845e-05
-1.1739143701561261e-05,3.0708273698110133e-05,2.809579882523394e-06,-1.8271884982823394e-05,5.720189437852241e-05
-1.7566200767760165e-05,2.080715785268694e-05,2.6302986952941865e-06,-1.964445982594043e-05,5.5982221965678036e-05
-2.2025666112313047e-05,1.3339957149582915e-05,3.347938218212221e-06,-1.589386010891758e-05,5.5816442909417674e-05
-1.8215640011476353e-05,1.1151661055919249e-05,4.809022811969044e-06,-1.0460475095896982e-05,5.540902930079028e-05
-1.9629103917395696e-05,7.979798283486161e-06,5.2187674555170815e-06,-6.147676231194055e-06,5.005587081541307e-05
-2.881981163227465e-05,3.5556179227569373e-06,2.7635180686047534e-06,-6.021508397680009e-06,4.257107502780855e-05
-3.858375202980824e-05,8.490604272992641e-07,-8.772365163167706e-07,-1.2758036064042244e-05,4.054591408930719e-05
-4.6589320845669135e-05,-1.0291901162418071e-06,-2.882322860386921e-06,-1.7169873899547383e-05,4.6465993364108726e-05
-5.232652620179579e-05,3.0845246783428593e-06,-8.479896678181831e-07,-1.3751377082371619e-05,5.0391670811222866e-05
-5.2837807743344456e-05,1.8244529201183468e-05,2.185146740885102e-06,-9.532042895443738e-06,5.166905248188414e-05
-4.7421170165762305e-05,3.6252251447876915e-05,1.3531177955883322e-06,-5.76587081013713e-06,5.213039185036905e-05
-4.2676401790231466e-05,4.5262029743753374e-05,-3.4625184071046533e-06,-4.2076690078829415e-06,5.355792018235661e-05
-3.959537571063265e-05,4.6416294935625046e-05,-8.141460057231598e-06,-4.880837877863087e-06,5.683596828021109e-05
-3.907993595930748e-05,4.4516953494166955e-05,-8.48023501021089e-06,-3.4983313526026905e-06,5.9456877352204174e-05
-3.556773663149215e-05,4.292378798709251e-05,-4.778316451847786e-06,-6.611871299355698e-07,6.122695049270988e-05
-3.0538285500369966e-05,4.265855022822507e-05,-7.215903110591171e-07,4.258774026766332e-07,6.085338827688247e-05
-2.6485828129807487e-05,4.11242144764401e-05,2.3246991531777894e-06,-5.350814262783388e-07,6.036187187419273e-05
-2.2251928385230713e-05,3.5166871384717524e-05,5.5578539104317315e-06,-1.0456017207616242e-06,5.946395322098397e-05
-1.5738207366666757e-05,2.8823511456721462e-05,8.542106115783099e-06,-3.989167908002855e-06,5.9343219618313015e-05
-9.312969268648885e-06,2.9188222470111214e-05,1.0663298780855257e-05,-1.0365933121647686e-05,6.1033450037939474e-05
-6.031938937667292e-06,3.085902062593959e-05,1.1997368346783333e-05,-1.6794223483884707e-05,6.426748586818576e-05
-1.025883830152452e-05,2.7062202207162045e-05,1.2679875908361282e-05,-1.9343813619343564e-05,6.770015897927806e-05
-2.526867319829762e-05,1.9658235032693483e-05,1.1909689419553615e-05,-1.9430110114626586e-05,6.940398452570662e-05
-4.363426342024468e-05,8.975800483312923e-06,1.121161494666012e-05,-1.960027111636009e-05,6.58273056615144e-05
-5.3898998885415494e-05,-7.654875844309572e-06,1.3976515219837893e-05,-1.746184534567874e-05,6.22813604422845e-05
-5.6537737691542134e-05,-2.293933357577771e-05,1.844587859523017e-05,-1.3588140973297413e-05,6.288784061325714e-05
-5.775702084065415e-05,-1.986014649446588e-05,2.0481233150349e-05,-1.3063027836324181e-05,6.407649925677106e-05
-6.482260505435988e-05,1.1424817785155028e-05,1.920448266901076e-05,-1.3845066860085353e-05,6.402673170669004e-05
-8.62933520693332e-05,6.525683420477435e-05,1.423187495674938e-05,-1.0627736628521234e-05,6.28143097856082e-05
-0.00010683511209208518,0.0001205233929795213,1.3983995813759975e-05,-2.3832041051718988e-07,6.149557157186791e-05
-0.00010482114885235205,0.00016266907914541662,1.797856566554401e-05,1.6712081560399383e-05,5.678427987731993e-05
-8.117034303722903e-05,0.00017509279132355005,1.7424978068447672e-05,3.951500912080519e-05,5.2962448535254225e-05
-5.289556065690704e-05,0.00014899738016538322,1.8230435671284795e-05,6.591691635549068e-05,5.267784945317544e-05
-3.371071579749696e-05,9.800365660339594e-05,2.094006231345702e-05,8.21241264929995e-05,5.1911010814365e-05
-2.2616281057707965e-05,5.463308116304688e-05,2.3765634978190064e-05,8.057003287831321e-05,5.411872916738503e-05
-9.330939974461216e-06,3.8922149542486295e-05,2.7307349228067324e-05,6.585528171854094e-05,5.718522152164951e-05
6.221192961675115e-06,1.808462548069656e-05,2.5112145522143692e-05,5.206388595979661e-05,5.84256777074188e-05
1.9863282432197593e-05,-2.4783330445643514e-05,1.9373352188267745e-05,4.364769483800046e-05,5.876449358765967e-05
2.9108043236192316e-05,-6.993275019340217e-05,1.5130209249036852e-05,3.176866812282242e-05,5.97720718360506e-05
3.5041794035350904e-05,-0.00010587961151031777,1.275988597626565e-05,9.710591257316992e-06,6.08441696385853e-05
4.026585884275846e-05,-0.00014545771409757435,1.0960030522255693e-05,-2.3418971977662295e-05,6.0930538893444464e-05
4.266456380719319e-05,-0.00017791362188290805,1.1097396964032669e-05,-5.4124335292726755e-05,5.868197695235722e-05
3.687002390506677e-05,-0.00017531249613966793,9.698828762338962e-06,-6.760723772458732e-05,5.401173257268965e-05
2.247600059490651e-05,-0.000125955804833211,2.1264675069687655e-06,-6.643091182922944e-05,4.8320056521333754e-05
6.750780357833719e-06,-4.925024040858261e-05,-8.252100997196976e-06,-5.961005808785558e-05,4.338975122664124e-05
-3.3630687994445907e-06,1.1756529602280352e-05,-1.3677939023182262e-05,-4.970267036696896e-05,4.1851373680401593e-05
-5.642017185891746e-06,3.3949356293305755e-05,-1.1973798791586887e-05,-3.839976488961838e-05,4.6167253458406776e-05
-2.766195166259422e-06,3.4784083254635334e-05,-9.8187338153366e-06,-2.9206279577920213e-05,5.315371527103707e-05
1.8093581957145943e-06,4.4037758925696835e-05,-8.890589015209116e-06,-2.6098006856045686e-05,5.683964627678506e-05
3.8835105442558415e-06,6.32363953627646e-05,-6.251920694921864e-06,-2.8683118216576986e-05,5.494150900631212e-05
9.09020684503048e-07,8.038680243771523e-05,-2.2706874460709514e-06,-3.233478491893038e-05,5.053003042121418e-05
-7.882121280999854e-06,8.175864786608145e-05,8.947400260694849e-07,-3.199272759957239e-05,5.004014747100882e-05
-1.8857468603528105e-05,6.544972711708397e-05,3.3859366794786183e-06,-2.823332579282578e-05,5.315221278578974e-05
-2.5485282094450668e-05,4.7747867938596755e-05,5.323399363987846e-06,-2.5392720999661833e-05,5.5614895245525986e-05
-3.110211400780827e-05,5.4213211114984006e-05,6.853726063127397e-06,-2.3532880732091144e-05,5.455277641885914e-05
-4.161046308581717e-05,8.005206473171711e-05,7.867790372984018e-06,-2.2883790734340437e-05,5.233205229160376e-05
-4.9748745368560776e-05,9.785424481378868e-05,1.1959091352764517e-05,-2.3716218493063934e-05,5.2713596232933924e-05
-4.967611312167719e-05,8.529446495231241e-05,1.453930508432677e-05,-2.709238833631389e-05,5.676201544702053e-05
-4.658123725675978e-05,5.180747029953636e-05,1.4898827430442907e-05,-2.7620735636446625e-05,5.926786252530292e-05
-4.6484394260914996e-05,3.459915387793444e-05,1.3396689610090107e-05,-2.551344186940696e-05,5.786300971521996e-05
-4.602390617947094e-05,4.064993845531717e-05,8.815143701212946e-06,-2.792727536871098e-05,5.38489839527756e-05
-4.4474887545220554e-05,5.383333336794749e-05,6.948975624254672e-06,-2.9456106858560815e-05,5.062914715381339e-05
-4.5071639760863036e-05,6.050201045582071e-05,6.948799637029879e-06,-2.712195782805793e-05,4.994973278371617e-05
-4.780288873007521e-05,5.304905425873585e-05,5.730756129196379e-06,-2.623410000524018e-05,4.940255166729912e-05
-4.858231477555819e-05,3.8587109884247184e-05,2.766475290627568e-06,-2.753272383415606e-05,4.9547415983397514e-05
-4.656775126932189e-05,2.7183110432815738e-05,8.071761499195418e-07,-2.6593303118715994e-05,5.419288936536759e-05
-4.110865847906098e-05,2.375231997575611e-05,-1.580771709086548e-06,-2.4844826839398593e-05,6.151543493615463e-05
-3.039032526430674e-05,2.4631064661662094e-05,-4.580753738991916e-06,-2.5064440706046298e-05,6.778736133128405e-05
-2.076070086332038e-05,2.4292703528772108e-05,-5.674470230587758e-06,-2.6059224182972685e-05,7.191022450570017e-05
-1.569568303239066e-05,2.255188337585423e-05,-5.256483746052254e-06,-2.456842048559338e-05,7.383566116914153e-05
-1.6820733435451984e-05,2.0569743355736136e-05,-3.778619202421396e-06,-1.954866456799209e-05,7.449956319760531e-05
-1.997166509681847e-05,1.757000973157119e-05,-2.167669663322158e-06,-1.4943519090593327e-05,7.483796798624098e-05
-2.1436033421196043e-05,1.6597643480054103e-05,-1.9727181097550783e-06,-1.546801286167465e-05,7.654737419215962e-05
-2.0271609173505567e-05,2.575093094492331e-05,-3.100320554949576e-06,-1.7266851500608027e-05,8.048412564676255e-05
-1.8398137399344705e-05,4.1017559851752594e-05,-2.103330871250364e-06,-1.3242954992165323e-05,8.441079990006983e-05
-1.6899844922591e-05,4.737323979497887e-05,1.3695938605451374e-06,-3.4804143069777638e-06,8.754697773838416e-05
-1.735370278765913e-05,3.990917684859596e-05,4.8539113777223974e-06,5.414948645920958e-06,8.877825894160196e-05
-2.0220966689521447e-05,2.880610372812953e-05,9.824782864598092e-06,1.0374636076448951e-05,8.515196532243863e-05
-2.3506718207499944e-05,2.2125308532849886e-05,1.6660645997035317e-05,1.641430935706012e-05,7.974090840434656e-05
-2.7569087251322344e-05,2.2561791411135346e-05,2.044541724899318e-05,2.587319067970384e-05,7.620177348144352e-05
-3.5612141800811514e-05,2.6335654183640145e-05,1.891161264211405e-05,2.8275604563532397e-05,7.516984624089673e-05
-4.452928260434419e-05,2.8785079848603345e-05,1.521025478723459e-05,1.8384105715085752e-05,7.276122050825506e-05
-4.568861550069414e-05,2.9029246434220113e-05,1.1122464457002934e-05,7.067084879963659e-06,6.888339703436941e-05
-3.689082222990692e-05,2.592939927126281e-05,6.678050795017043e-06,4.5463666538125835e-06,6.657496851403266e-05
-2.0118874090258032e-05,3.0037750548217446e-05,4.395797986944672e-06,4.869397344009485e-06,6.379680417012423e-05
-1.2142270861659199e-05,3.8580205000471324e-05,2.1282990019244608e-06,3.523742577726807e-07,5.927636084379628e-05
-1.7333077266812325e-05,4.854512371821329e-05,-5.51945049664937e-06,-9.508415246273216e-07,5.3952222515363246e-05
-2.890882569772657e-05,6.932901305845007e-05,-1.842381061578635e-05,3.0891396818333305e-07,4.8856167268240824e-05
-3.8472477172035724e-05,8.928722672862932e-05,-2.8759433917002752e-05,4.6167798473106814e-08,4.539102883427404e-05
-4.324743349570781e-05,9.626564860809594e-05,-2.8579936042660847e-05,-2.8134568452742315e-08,4.427741441759281e-05
-4.5412685722112656e-05,9.058234718395397e-05,-1.9821623936877586e-05,9.501072781858966e-07,4.417781383381225e-05
-4.978083961759694e-05,8.128994522849098e-05,-7.096591616573278e-06,7.136753765735193e-07,4.0480157622369006e-05
-6.37778066447936e-05,6.705577834509313e-05,3.3018534395523602e-06,9.627626695873914e-08,3.758585444302298e-05
-7.61999108362943e-05,5.363407399272546e-05,1.0253997970721684e-05,-1.3433062804324436e-06,4.044628076371737e-05
-7.669363549211994e-05,4.954019095748663e-05,1.6890484403120354e-05,-4.940289272781229e-06,4.704988168668933e-05
-6.718281656503677e-05,5.547745604417287e-05,2.492139901733026e-05,-1.0357387509429827e-05,5.337032780516893e-05
-5.632149986922741e-05,5.868537846254185e-05,3.367123281350359e-05,-1.2805689038941637e-05,5.792220326839015e-05
-4.6498757001245394e-05,3.535125506459735e-05,3.738279337994754e-05,-1.0586692951619625e-05,6.255947664612904e-05
-3.74787014152389e-05,-1.789697853382677e-05,3.593255678424612e-05,-7.090994131431216e-06,6.574911822099239e-05
-2.779292299237568e-05,-7.20130919944495e-05,3.315531284897588e-05,-4.748155333800241e-06,6.862066948087886e-05
-1.6542478988412768e-05,-9.095056157093495e-05,3.051842577406205e-05,-3.954417934437515e-06,7.194309000624344e-05
-7.418593668262474e-06,-7.138414366636425e-05,2.660547943378333e-05,-2.1564424059761222e-06,7.165081478888169e-05
-6.609609044971876e-06,-3.4567339753266424e-05,2.2913893189979717e-05,-4.811867597709352e-07,6.583607319043949e-05
-1.1560132406884804e-05,4.859008413404808e-07,2.1213038053247146e-05,-1.2225220871187048e-06,5.753732693847269e-05
-1.3748640412813984e-05,2.5394410840817727e-05,2.108813168888446e-05,-5.264563696982805e-06,5.14280291099567e-05
-1.353026345896069e-05,3.3192474802490324e-05,2.1206249584793113e-05,-9.71761801338289e-06,5.344996679923497e-05
-1.2136384611949325e-05,2.7627927920548245e-05,2.1308454961399548e-05,-1.4210600966180209e-05,5.8576053561409935e-05
-9.716898603073787e-06,2.2341353542287834e-05,2.2412938051274978e-05,-1.7780283087631688e-05,5.838411016156897e-05
-5.974974556011148e-06,2.4060733267106116e-05,2.2141020963317715e-05,-1.9711946151801385e-05,5.498462269315496e-05
-2.2203830667422153e-06,2.7877455067937262e-05,1.8174354408984073e-05,-2.1405870938906446e-05,5.4190069931792095e-05
2.2243802959565073e-06,3.2835883757798e-05,1.2160500773461536e-05,-2.030131327046547e-05,5.4856511269463226e-05
5.368637175706681e-06,3.558839671313763e-05,9.39055644266773e-06,-1.9102491933153942e-05,5.230910028330982e-05
6.806381520618743e-07,3.474679760984145e-05,7.745753464405425e-06,-2.447495899104979e-05,5.0688748160609975e-05
-6.57669761494617e-06,3.713328260346316e-05,6.358924565574853e-06,-2.9827649996150285e-05,5.233896808931604e-05
-9.850183232629206e-06,4.0911381802288815e-05,3.401174353712122e-06,-2.8715126973111182e-05,5.643751137540676e-05
-1.5438159607583657e-05,3.8073987525422126e-05,-4.2060387386300135e-06,-2.5491497581242584e-05,6.13781958236359e-05
-2.551483703427948e-05,2.5588957214495167e-05,-1.0586401913315058e-05,-2.7161455363966525e-05,6.096153083490208e-05
-3.212627416360192e-05,1.6050807971623726e-05,-1.246335705218371e-05,-2.5077453756239265e-05,5.6883221986936405e-05
-3.016333357663825e-05,2.187722384405788e-05,-1.0829831808223389e-05,-1.609002356417477e-05,5.2510458772303537e-05
-2.6338604584452696e-05,3.4742941352305934e-05,-7.397192803182406e-06,-5.705336661776528e-06,5.0448874389985576e-05
-2.824380499077961e-05,4.311038719606586e-05,-2.310262289029197e-06,2.0375036910991184e-06,5.39481989108026e-05
-3.506128996377811e-05,3.910834129783325e-05,2.6111113129445584e-06,4.328355771576753e-06,5.7714682043297216e-05
-3.831472713500261e-05,2.4545948690501973e-05,7.629283572896384e-06,3.0443814011960058e-06,5.793252421426587e-05
-4.1070696170208976e-05,1.02085041362443e-05,1.12593124867999e-05,-6.371881795530498e-07,5.4762796935392544e-05
-5.499309554579668e-05,9.382109965372365e-06,9.956323992810212e-06,-5.045586931373691e-06,5.242700717644766e-05
-7.355540583375841e-05,1.2910349141748156e-05,5.935607077844907e-06,-9.135574146057479e-06,5.1062117563560605e-05
-8.321657514898106e-05,2.0930901882820763e-06,3.047047584914253e-06,-1.2650108146772254e-05,5.086280725663528e-05
-8.326617535203695e-05,-1.289294050366152e-05,2.6524567147134803e-06,-1.6930553101701662e-05,5.307589526637457e-05
-7.723637827439234e-05,-9.385529665451031e-06,4.646925845008809e-06,-2.0524365027085878e-05,5.343707016436383e-05
-6.872879021102563e-05,1.336863624601392e-05,6.4181799643847626e-06,-2.2678328605252318e-05,5.2491996029857546e-05
-6.335625948850065e-05,3.527403168845922e-05,3.6636358800024027e-06,-2.2531710783368908e-05,5.527105531655252e-05
-5.9190460888203233e-05,4.3317653762642294e-05,-1.2670733440245385e-06,-1.943698043760378e-05,6.222768570296466e-05
-5.1398987125139683e-05,3.3651853300398216e-05,-2.9577556688309414e-06,-1.2475305084080901e-05,6.66679407004267e-05
-4.1605107981013134e-05,1.3765589756076224e-05,-4.76002213645188e-07,-5.624093319056556e-06,6.614018639083952e-05
-3.5568158637033775e-05,-5.161648459761636e-06,3.4611719001986785e-06,-7.324005764530739e-06,6.369435141095892e-05
-2.9884022296755575e-05,-1.7337422832497396e-05,6.265664978855057e-06,-1.881470780062955e-05,6.15563039900735e-05
-2.0929373931721784e-05,-1.9365412299521267e-05,5.7689981076691765e-06,-2.0258787117199972e-05,5.8748777519213036e-05
-1.3535638572648168e-05,-8.952463758760132e-06,6.601453605981078e-07,-5.387581950344611e-06,5.4697185987606645e-05
-9.847761248238385e-06,8.25435472506797e-06,-6.587972620764049e-06,2.5880278826662106e-06,4.75063243356999e-05
-7.85858958352037e-07,8.784472811385058e-06,-7.4470626714173704e-06,-3.932520030502928e-06,3.9038721297401935e-05
2.0470177332754247e-05,3.692627501550305e-07,-1.3934403568782727e-06,-9.690395017969422e-06,3.658658897620626e-05
4.3740194087149575e-05,1.3539805877371691e-05,6.193167337187333e-06,-8.239509952545632e-06,4.106336200493388e-05
5.853005495737307e-05,3.6918969271937385e-05,9.843363841355313e-06,-1.668242930463748e-06,4.637886740965769e-05
5.480987601913512e-05,4.6988508984213695e-05,4.538927896646783e-06,9.739575943967793e-06,5.255901123746298e-05
3.1351697543868795e-05,4.679246558225714e-05,-3.6715014175570104e-06,1.0692157957237214e-05,5.920397234149277e-05
5.04228773934301e-06,5.711565972887911e-05,-7.268968147400301e-06,-1.1963815268245526e-05,6.203910015756264e-05
-8.487379091093317e-06,7.913910667411983e-05,-7.87468616181286e-06,-3.806983295362443e-05,6.549663521582261e-05
-7.175086921051843e-06,0.00010896873573074117,-8.686546607350465e-06,-4.6618402848253027e-05,7.16646172804758e-05
-1.3126334579283139e-06,0.0001376852742396295,-8.689681635587476e-06,-4.0078906749840826e-05,7.898335752543062e-05
-3.077610926993657e-06,0.00015537928265985101,-7.025730610621395e-06,-2.618875623738859e-05,8.248125959653407e-05
-1.1309812180115841e-05,0.00014720435137860477,-4.8773022172099445e-06,-1.1721827831934206e-05,7.997019565664232e-05
-1.3633355592901353e-05,9.69186658039689e-05,-3.302775212432607e-06,1.0144801763090072e-06,7.471774006262422e-05
-9.639443305786699e-06,1.9207938748877496e-05,-1.2393521728881751e-06,1.3030702575633768e-05,6.707193824695423e-05
-1.2858120499004144e-05,-3.4374410461168736e-05,1.1843879974549054e-06,2.118295742548071e-05,5.711797348340042e-05
-2.684051105461549e-05,-2.915492768806871e-05,3.4805582345143193e-06,1.9090744899585843e-05,4.89116100652609e-05
-3.723482950590551e-05,1.4698912309540901e-05,4.867548796028132e-06,1.0992170246026944e-05,4.564972914522514e-05
-3.820608617388643e-05,5.33898601133842e-05,3.3306093882856658e-06,3.162591838190565e-06,4.594916754285805e-05
-3.818579716607928e-05,6.160157499834895e-05,-6.209874641172064e-07,-5.502786734723486e-06,4.617413287633099e-05
-3.7981022614985704e-05,5.02035218232777e-05,-2.1147857296455186e-06,-1.2113977390981745e-05,4.6485722123179585e-05
-3.425398244871758e-05,3.742946501006372e-05,-9.903372983899317e-07,-1.1995594832114875e-05,5.2094550483161584e-05
-2.8734879379044287e-05,3.854496026178822e-05,-1.0857263532670913e-06,-1.0722655133577064e-05,5.982551010674797e-05
-2.3983975552255288e-05,4.8616231651976705e-05,-3.960869889851892e-06,-1.300816256843973e-05,6.103301348048262e-05
-2.2439591703005135e-05,3.251659290981479e-05,-1.0117995770997368e-05,-1.7119109543273225e-05,5.648455771734007e-05
-1.4108231880527455e-05,-2.5801851734286174e-05,-1.545799932500813e-05,-2.8496006052591838e-05,5.701201735064387e-05
-3.7214329040580196e-07,-8.20149653009139e-05,-1.4804400052526034e-05,-4.25938269472681e-05,6.210703577380627e-05
6.549403792632802e-07,-8.972560317488387e-05,-8.95301673153881e-06,-4.6216264308895916e-05,6.415925599867478e-05
-5.255586529528955e-06,-5.237592995399609e-05,-5.703684564650757e-06,-4.413543501868844e-05,6.270272569963709e-05
-9.606710591469891e-06,-1.0152029972232413e-05,-2.6149455152335577e-06,-3.86015344702173e-05,5.6162058172049e-05
-1.6350762962247245e-05,1.936888111231383e-05,2.8983197353227297e-06,-2.8961754651390947e-05,4.998111762688495e-05
-2.4320597731275484e-05,4.231833008816466e-05,5.495199275173945e-06,-1.9704542864928953e-05,5.086185774416663e-05
-2.676231633813586e-05,6.063216278562322e-05,8.726894520805217e-06,-1.3004310858377721e-05,5.828284702147357e-05
-2.313408549525775e-05,6.857657717773691e-05,1.2600111404026393e-05,-1.128174062614562e-05,6.637530168518424e-05
-1.9606977730290964e-05,6.653618765994906e-05,1.406784122082172e-05,-9.143911483988632e-06,6.385575397871435e-05
-1.4930102224752773e-05,6.222428055480123e-05,1.4654268852609675e-05,-3.664423502414138e-06,5.5637548939557746e-05
-1.086060638044728e-05,6.028010830050334e-05,1.6524743841728196e-05,3.3806513783929404e-06,5.13147097080946e-05
-1.1774227459682152e-05,6.109165406087413e-05,1.693586091278121e-05,6.483365268650232e-06,5.142689769854769e-05
-2.1293884856277145e-05,5.999113272991963e-05,1.5037688172014896e-05,2.713177082114271e-06,5.342687290976755e-05
-4.516685294220224e-05,5.494998913491145e-05,1.2819258699892089e-05,-4.037625330965966e-06,5.471726763062179e-05
-8.061542030191049e-05,4.512375744525343e-05,1.231869919138262e-05,-8.633351171738468e-06,5.4136846301844344e-05
-0.00010810530511662364,3.355226726853289e-05,1.532430360384751e-05,-8.73752469487954e-06,5.308462641551159e-05
-0.00010928775736829266,2.3539350877399556e-05,2.0014615074614994e-05,-8.089211405604146e-06,5.3376446885522455e-05
-9.131904516834766e-05,1.5791356418048963e-05,2.187699283240363e-05,-1.03646580100758e-05,5.453493577078916e-05
-6.969687092350796e-05,1.3557109923567623e-05,1.8013810404227115e-05,-1.1337413525325246e-05,5.457853330881335e-05
-4.986259591532871e-05,3.109467797912657e-05,1.256179984920891e-05,-5.426796633400954e-06,5.263139246380888e-05
-3.2709551305742934e-05,7.237602403620258e-05,9.670501640357543e-06,2.191366547776852e-06,5.074370710644871e-05
-1.866492129920516e-05,0.0001171906478703022,7.648382052138913e-06,6.090526312618749e-06,5.0252208893653005e-05
-9.495351150690112e-06,0.0001451205025659874,5.521060302271508e-06,7.5577809184324e-06,4.987281499779783e-05
-9.079560186364688e-06,0.00015208842523861676,2.8767412914021406e-06,6.808933903812431e-06,4.7136854846030474e-05
-1.32244240376167e-05,0.00013555742043536156,3.070070988542284e-06,1.9347103261679877e-06,4.608143717632629e-05
-1.2522178622020874e-05,9.924841288011521e-05,6.484543064289028e-06,-8.629800504422747e-06,5.3114246838958934e-05
-8.880784662324004e-06,5.200132727622986e-05,4.738962161354721e-06,-2.352627234358806e-05,6.334757927106693e-05
-1.0148735782422591e-05,-3.7658091969206e-06,1.2275817198315053e-06,-3.875967377098277e-05,6.821451825089753e-05
-8.336651262652595e-06,-6.631334690609947e-05,1.401549070578767e-06,-4.7561872634105384e-05,6.813215441070497e-05
-4.616418802783073e-09,-0.00011434836778789759,3.5630062029667897e-06,-3.587731407606043e-05,6.782162381568924e-05
2.6055515718326205e-06,-0.00014869277947582304,1.878790953924181e-06,-9.98589166556485e-06,6.786888843635097e-05
1.2764154462274746e-06,-0.00018373719649389386,-4.564255505101755e-06,9.094370398088358e-06,7.154288323363289e-05
1.2549386383398087e-06,-0.00019724595767911524,-8.674393939145375e-06,1.8250497305416502e-05,8.395424811169505e-05
5.537782271858305e-06,-0.00017256781575269997,-8.027381227293517e-06,2.42049773078179e-05,8.935346704674885e-05
3.110292527708225e-05,-0.0001051650324370712,-4.791316769114928e-06,2.8810452931793407e-05,8.489150059176609e-05
7.468702824553475e-05,-4.5136250264476985e-05,9.241881002708396e-07,2.9898041248088703e-05,7.827262015780434e-05
0.0001012670254567638,-4.6865519834682345e-05,7.013245522102807e-06,2.5612649551476352e-05,7.057450420688838e-05
8.79405124578625e-05,-6.0802820371463895e-05,1.125681956182234e-05,1.4120924788585398e-05,6.08206755714491e-05
4.588026786223054e-05,-9.978024536394514e-06,1.097799395211041e-05,9.242856435776048e-07,5.325577876647003e-05
-1.56693738517788e-06,7.896531315054744e-05,9.654842870077118e-06,-7.67119308875408e-06,5.285353836370632e-05
-3.804592415690422e-05,0.00011643859761534259,1.0452911737957038e-05,-1.0743656275735702e-05,5.524053267436102e-05
-5.899664029129781e-05,8.631031232653186e-05,1.1601057849475183e-05,-1.0168990229431074e-05,5.875853821635246e-05
-6.900808512000367e-05,5.4298659961204976e-05,1.3866285371477716e-05,-7.710290446993895e-06,6.16788529441692e-05
-7.295500836335123e-05,5.8883426390821114e-05,1.642871939111501e-05,-5.476860678754747e-06,6.323225534288213e-05
-7.061391806928441e-05,6.651179137406871e-05,1.761145358614158e-05,-4.799228463525651e-06,6.286978896241635e-05
-6.701467646053061e-05,4.467232429306023e-05,1.6987516573863104e-05,-3.3245278245885856e-06,5.926181620452553e-05
-7.027573883533478e-05,1.0503138582862448e-05,1.6827085346449167e-05,-2.8055001166649163e-07,5.165366383153014e-05
-7.56569643272087e-05,-2.1654707325069467e-06,1.751149284245912e-05,1.8783771338348743e-06,4.490029459702782e-05
-7.601264223922044e-05,9.558570127410349e-06,1.979271837626584e-05,1.7429524632461835e-06,4.401472324389033e-05
-7.191338227130473e-05,2.9491031455108896e-05,2.0053521438967437e-05,1.3693497749045491e-06,4.871644341619685e-05
-6.73703252687119e-05,4.736000482807867e-05,1.7364689483656548e-05,-1.4330078101920662e-07,5.642741234623827e-05
-6.064740591682494e-05,6.400617712642998e-05,1.3846949514118023e-05,-3.868173735099845e-06,6.578259490197524e-05
-4.69111510028597e-05,7.600037497468293e-05,1.0197380106546916e-05,-7.071169875416672e-06,7.168513548094779e-05
-3.0620547477155924e-05,8.208480721805245e-05,6.30460772299557e-06,-8.630498996353708e-06,7.306710904231295e-05
-2.206890712841414e-05,8.893333142623305e-05,4.884641839453252e-06,-8.500570402247831e-06,7.453624129993841e-05
-2.67743398580933e-05,9.45326974033378e-05,4.874121259490494e-06,-9.735972525959369e-06,7.139598892536014e-05
-3.929269587388262e-05,8.953069482231513e-05,6.840418791398406e-07,-1.560756572871469e-05,6.227986159501597e-05
-3.4902230254374444e-05,8.241737668868154e-05,-2.005599071708275e-06,-2.0653102183132432e-05,5.757431063102558e-05
-1.100942517950898e-05,8.398569480050355e-05,-8.800196127367599e-08,-1.8928436475107446e-05,5.901651456952095e-05
5.28314194525592e-06,8.555549720767885e-05,2.3949296519276686e-06,-1.484722179156961e-05,6.178016337798908e-05
3.557266609277576e-06,8.011281170183793e-05,2.6877362415689277e-06,-1.6159539882210083e-05,6.39241116004996e-05
7.491602787013107e-07,6.557481538038701e-05,1.520982209513022e-06,-1.939207322720904e-05,6.813731306465343e-05
5.1966703722428065e-06,4.7873832954792306e-05,1.195136746900971e-06,-2.0324907382018864e-05,7.132247264962643e-05
3.436681481616688e-06,4.34280518675223e-05,2.153083642042475e-06,-2.1530613594222814e-05,7.340059528360143e-05
-2.205996679549571e-05,5.7660632592160255e-05,3.922777068510186e-06,-2.1427717001643032e-05,7.217926759039983e-05
-7.347849168581888e-05,7.406606164295226e-05,2.8577364901138935e-06,-1.8748598449747078e-05,6.68404099997133e-05
-0.0001138637016993016,7.395261491183192e-05,-8.962484230323753e-07,-1.896797948575113e-05,6.076492718420923e-05
-0.00012108712689951062,5.441902976599522e-05,-5.312464963935781e-06,-2.965742714877706e-05,5.454436904983595e-05
-0.00010917126201093197,3.338538954267278e-05,-6.930698418727843e-06,-5.1497867389116436e-05,5.285243605612777e-05
-9.095763380173594e-05,1.8932576494989917e-05,-5.552628863370046e-06,-7.078031921992078e-05,5.669210077030584e-05
-7.281088619492948e-05,-9.659243914938997e-06,-5.1671713663381524e-06,-7.265603926498443e-05,6.178667536005378e-05
-6.227691483218223e-05,-6.402866711141542e-05,-7.454826572939055e-06,-6.316501094261184e-05,6.149771070340648e-05
-6.333465717034414e-05,-0.00011680039460770786,-9.384630175190978e-06,-5.787794725620188e-05,5.7275603467132896e-05
-6.525335629703477e-05,-0.00012213169247843325,-6.6884231273434125e-06,-6.036581544321962e-05,5.6557473726570606e-05
-5.948603211436421e-05,-6.585375376744196e-05,8.249286764794306e-08,-6.0545433370862156e-05,6.265637057367712e-05
-4.7082237870199606e-05,1.651826278248336e-05,6.602656412724173e-06,-4.020515552838333e-05,6.659815699094906e-05
-3.3013842767104506e-05,8.451683970633894e-05,1.176811201730743e-05,3.262595328124007e-06,6.384782318491489e-05
-1.9761388102779165e-05,0.00012477343261707574,1.9935148884542286e-05,4.757098213303834e-05,6.105461943661794e-05
-1.0035700142907444e-05,0.00013229252363089472,2.949863664980512e-05,7.267118780873716e-05,6.396332901204005e-05
-1.2273022775843856e-06,0.00013327569467946887,3.5821478377329186e-05,7.48971215216443e-05,7.368937804130837e-05
5.578007858275669e-06,0.00016942157526500523,3.729852687683888e-05,6.342950655380264e-05,8.544283627998084e-05
4.575730145006673e-06,0.00020515643700491637,3.723470217664726e-05,4.100456862943247e-05,9.167531243292615e-05
