-2.781136026897002e-05,3.718534208019264e-05,3.177540565957315e-05,-6.772790584363975e-06,6.0604688769672066e-05
-3.0121951567707583e-05,4.720385550172068e-05,3.393365477677435e-05,-3.9732899494993035e-06,5.999472341500223e-05
-3.399835986783728e-05,5.338923438102938e-05,3.25469663948752e-05,-4.969641622665222e-07,6.018437125021592e-05
-3.579808253562078e-05,4.9132228014059365e-05,2.615799894556403e-05,-3.2873538202693453e-06,6.000983921694569e-05
-3.146813833154738e-05,3.647916310001165e-05,1.9354540199856274e-05,-5.174433226784458e-06,6.0157341067679226e-05
-2.661419057403691e-05,2.7306517949909903e-05,1.5874411474214867e-05,-4.4553817133419216e-06,6.143817154224962e-05
-2.5706563974381424e-05,2.466274418111425e-05,1.7505723008071072e-05,-1.411104790349782e-06,6.184959784150124e-05
-2.8836682758992538e-05,2.7638412575470284e-05,1.8619804905029014e-05,-1.1288743735349271e-06,5.953110667178407e-05
-3.4660766687011346e-05,2.5632585675339215e-05,1.4483838640444446e-05,-2.16565717892081e-06,5.8766716392710805e-05
-3.580073462217115e-05,1.8302353055332787e-05,8.488430466968566e-06,-2.9175337203923846e-06,6.0268397646723315e-05
-3.412476507946849e-05,1.2124011846026406e-05,6.500792096630903e-06,-5.1735796660068445e-06,6.260954978642985e-05
-3.289307278464548e-05,1.2441109902283642e-05,6.6397665250406135e-06,-8.854910447553266e-06,6.291471800068393e-05
-3.1582414521835744e-05,1.4047202967049088e-05,3.5474056403472787e-06,-1.2446963410184253e-05,6.211795698618516e-05
-2.863902409444563e-05,1.0790801752591506e-05,-1.1475867012222807e-07,-1.7042082617990673e-05,6.251984450500458e-05
-2.5760049538803287e-05,8.698637429915834e-06,-1.3093207371639437e-06,-1.878465809568297e-05,6.204109376994893e-05
-2.4446977477055043e-05,1.0573571671557147e-05,-1.541719825581822e-06,-1.5619372788933106e-05,5.8640423958422616e-05
-2.1185935111134313e-05,1.1476561667222995e-05,-3.914703484042548e-06,-1.1086909580626525e-05,5.6087312259478495e-05
-1.6809406588436104e-05,8.014182640181389e-06,-5.755734491685871e-06,-8.682679435878526e-06,5.689698446076363e-05
-1.4518091120407917e-05,6.2101603361952584e-06,-6.074459179217229e-06,-1.0599241250019986e-05,5.96840945945587e-05
-1.4791805369895883e-05,9.45154079090571e-06,-5.592621619143756e-06,-1.6312944353558123e-05,6.285041308728978e-05
-1.6652995327604003e-05,1.7641004887991585e-05,-4.4173998503538314e-06,-2.2168358555063605e-05,6.417909025913104e-05
-1.820431134547107e-05,3.3228185202460736e-05,-3.8846078496135306e-06,-2.4127981305355206e-05,6.306188879534602e-05
-1.6289686755044386e-05,5.378958667279221e-05,-3.1997305995901115e-06,-2.1920041035627946e-05,6.0134851082693785e-05
-1.3113847671775147e-05,6.710484012728557e-05,1.465297430058854e-07,-1.762016472639516e-05,5.624204277410172e-05
-1.1212630852242e-05,7.344404002651572e-05,3.1195388601190643e-06,-1.3569007933256216e-05,5.45586044609081e-05
-1.3051485439063981e-05,6.883058085804805e-05,2.364019564993214e-06,-7.056165486574173e-06,5.498294558492489e-05
-1.9368140783626586e-05,5.6956312619149685e-05,3.2817993087519426e-06,2.9300767891982105e-06,5.63669964321889e-05
-2.56777730101021e-05,4.496352266869508e-05,8.62776050780667e-06,1.0090395335282665e-05,6.048613431630656e-05
-2.710725129873026e-05,3.926536737708375e-05,1.1655424714263063e-05,1.5096056813490577e-05,5.934123328188434e-05
-2.6143668947042897e-05,3.6264849768485874e-05,1.3851026778866071e-05,1.4035450476512779e-05,5.406106720329262e-05
-2.3407805201713927e-05,2.498945286788512e-05,1.626967241463717e-05,8.9179748101742e-06,4.9616312026046216e-05
-2.1926181943854317e-05,1.71249957929831e-05,1.4664743503089994e-05,5.522821993508842e-06,4.741811062558554e-05
-2.1885705791646615e-05,1.4321907656267285e-05,1.1394129614927806e-05,3.5143791592417983e-06,4.792497929884121e-05
-2.287512324983254e-05,1.428122504876228e-05,9.351608241559006e-06,2.3906773094495293e-06,4.594214988173917e-05
-2.281244633195456e-05,1.5855957826715894e-05,1.2519907613750547e-05,-5.604448688245611e-06,4.526009797700681e-05
-1.8506825654185377e-05,1.5952575267874636e-05,1.6291798601741903e-05,-1.4591792023566086e-05,4.884780719294213e-05
-1.1407427336962428e-05,1.9914719814551063e-05,1.4932940757717006e-05,-1.6775738913565874e-05,5.173042882233858e-05
-6.9378461375890765e-06,2.634094562381506e-05,1.1742358765332028e-05,-1.38094892463414e-05,4.9463404138805345e-05
-8.422554856224451e-06,3.1895753636490554e-05,8.855563464749139e-06,-1.1775671737268567e-05,4.467019971343689e-05
-1.409742071700748e-05,3.255691262893379e-05,6.240688890102319e-06,-9.454260180064011e-06,4.4263182644499466e-05
-2.4316545022884384e-05,2.994101851072628e-05,5.647191755997483e-06,-6.372223651851527e-06,4.865596929448657e-05
-3.3844691643025726e-05,2.8711290724459104e-05,8.565911230107304e-06,-4.8820124902704265e-06,5.062604395789094e-05
-4.1106421122094616e-05,3.159745756420307e-05,1.2069556760252453e-05,-6.377485078701284e-06,4.786194767802954e-05
-4.603550041792914e-05,3.558275057002902e-05,1.1497610103106126e-05,-1.0457582902745344e-05,4.783529584528878e-05
-4.90665333927609e-05,3.666387783596292e-05,8.109229383990169e-06,-1.4653220205218531e-05,5.182410677662119e-05
-4.900473868474364e-05,3.32085692207329e-05,5.479107130668126e-06,-1.808827255445067e-05,5.5610929848626256e-05
-4.769490260514431e-05,2.7952359232585877e-05,3.598783905545133e-06,-2.307669637957588e-05,5.9310008509783074e-05
-4.6659370127599686e-05,2.6415284082759172e-05,-2.759661015261372e-07,-3.362506322446279e-05,6.468898936873302e-05
-4.513250678428449e-05,2.5967559849959798e-05,-3.884293619194068e-06,-4.3568285036599264e-05,7.050728891044855e-05
-4.0155249735107645e-05,2.5148770873784088e-05,-6.199749805091415e-06,-4.701517173089087e-05,7.310529326787218e-05
-3.610443673096597e-05,2.626228342705872e-05,-1.4154799828247633e-05,-4.6455861593130976e-05,7.019691111054271e-05
-3.778520112973638e-05,2.9122622436261736e-05,-2.8890359317301773e-05,-4.581669418257661e-05,6.127206870587543e-05
-3.7802641600137576e-05,3.442575325607322e-05,-3.8033285818528384e-05,-4.8325033276341856e-05,5.146326293470338e-05
-3.430664219195023e-05,3.470559386187233e-05,-3.9725753595121205e-05,-5.178324499865994e-05,4.565528070088476e-05
-2.8393493266776204e-05,2.3464957848773338e-05,-3.7547346437349916e-05,-4.961740705766715e-05,4.360287493909709e-05
-2.6308245651307516e-05,1.8343213014304638e-05,-3.1154806492850184e-05,-4.552107930066995e-05,4.560196248348802e-05
-2.9668566639884375e-05,2.5358463972224854e-05,-2.9991673727636226e-05,-4.017114406451583e-05,4.730341970571317e-05
-3.270638262620196e-05,3.2869953429326415e-05,-3.0177863663993776e-05,-3.484897388261743e-05,5.1851111493306234e-05
-3.30994589603506e-05,3.35221084242221e-05,-2.2560332581633702e-05,-3.149938129354268e-05,6.305396527750418e-05
-3.27831476170104e-05,2.9809758416377008e-05,-9.935276466421783e-06,-2.916362245741766e-05,7.402096525765955e-05
-3.276610732427798e-05,2.675673931662459e-05,-2.986320168929524e-07,-2.5757857656572014e-05,8.284312207251787e-05
-3.055761771975085e-05,2.557289190008305e-05,5.736768343922449e-06,-2.049829527095426e-05,8.739009354030713e-05
-3.0055847673793323e-05,2.268325442855712e-05,1.2587775927386247e-05,-1.183168660645606e-05,8.342352521140128e-05
-2.9526785510824993e-05,2.0451072487048805e-05,2.114071867254097e-05,4.603463423791254e-07,7.338933210121468e-05
-2.7452568247099407e-05,2.184519689762965e-05,2.8999813366681337e-05,1.0740044672274962e-05,6.654168828390539e-05
-2.6626632461557165e-05,2.4185559595935047e-05,3.3236869057873264e-05,1.619270733499434e-05,6.512777326861396e-05
-2.448670784360729e-05,2.6167761461692862e-05,3.367173485457897e-05,1.8583819837658666e-05,6.546809891005978e-05
-2.1857207684661262e-05,2.6718689696281217e-05,3.266069325036369e-05,1.63611530297203e-05,6.814015068812296e-05
-2.181496711273212e-05,2.4837159799062647e-05,3.3489825000287965e-05,3.5968228075944353e-06,7.187712617451325e-05
-2.5091323550441302e-05,2.2589227228309028e-05,3.265934356022626e-05,-1.6140951629495248e-05,7.253878720803186e-05
-2.677638258319348e-05,2.23978167923633e-05,2.8602224119822495e-05,-3.065695273107849e-05,7.060756615828723e-05
-2.3824492018320598e-05,2.3642507585464045e-05,2.3535882064606994e-05,-3.391605059732683e-05,6.555868458235636e-05
-1.645135307626333e-05,2.7818652597488835e-05,1.8081193047692068e-05,-2.896775731642265e-05,6.168329127831385e-05
-1.0264107913826592e-05,3.487018693704158e-05,1.1691678992065135e-05,-2.124013553839177e-05,6.202184886205941e-05
-9.880945071927272e-06,3.852377994917333e-05,5.974148734821938e-06,-1.6608124496997334e-05,6.179670890560374e-05
-1.3932213732914533e-05,3.54125295416452e-05,1.7232429172509e-06,-1.5927480490063317e-05,6.0439284425228834e-05
-1.9537223124643788e-05,3.244228719267994e-05,-2.2033523237041663e-06,-1.339777918474283e-05,6.0153088270453736e-05
-2.5435079805902205e-05,3.4764092561090365e-05,-6.708302407787414e-06,-4.7207863644871395e-06,6.099475285736844e-05
-3.0140656235744245e-05,3.863568417727947e-05,-1.1581540093175136e-05,9.080056770471856e-06,6.264175317483023e-05
-3.163129076710902e-05,3.7154724850552157e-05,-1.8703300156630576e-05,2.3614913516212255e-05,6.354190554702654e-05
-3.243175888201222e-05,3.111789919785224e-05,-2.356001095904503e-05,3.275797644164413e-05,6.336411024676636e-05
-3.410467616049573e-05,2.6618110496201552e-05,-2.2011608962202445e-05,3.5360422771191224e-05,6.0647184000117704e-05
-3.6850982723990455e-05,2.8646958526223898e-05,-1.6680698536220007e-05,2.9903911126893945e-05,5.795923061668873e-05
-3.802743958658539e-05,3.596259557525627e-05,-8.322207577293739e-06,1.8387037926004268e-05,6.489013321697712e-05
-3.168659532093443e-05,3.930490856873803e-05,1.0491381772226305e-06,6.7858322836400475e-06,7.612790795974433e-05
-2.726858110690955e-05,3.6100256693316624e-05,1.0674789336917456e-05,-1.4050078789296094e-06,8.456462091999128e-05
-2.728562139964197e-05,3.464411565801129e-05,2.315742676728405e-05,-4.425144197739428e-06,8.98199577932246e-05
-2.5664781787781976e-05,3.6211098631611094e-05,3.39843136316631e-05,-3.7355155200202717e-06,9.175756713375449e-05
-2.5034432837856002e-05,3.764910434256308e-05,3.789772745221853e-05,-7.368599654000718e-06,8.79116341820918e-05
-2.4124858100549318e-05,3.9538594137411565e-05,4.134436312597245e-05,-1.9802533643087372e-05,7.841419574106112e-05
-2.4486775146215223e-05,3.959148671128787e-05,3.997595558757894e-05,-3.35108743456658e-05,6.936900899745524e-05
-2.5147845008177683e-05,3.428618947509676e-05,3.23212007060647e-05,-3.708511940203607e-05,6.532605766551569e-05
-2.5935003577615134e-05,2.725469494180288e-05,2.371127084188629e-05,-2.6572954084258527e-05,6.006511830491945e-05
-2.467505146341864e-05,2.203758413088508e-05,1.782474464562256e-05,-1.0688158909033518e-05,4.24659920099657e-05
-2.2033127606846392e-05,1.8813125279848464e-05,1.7019929146044888e-05,-1.7303406707469549e-07,2.052578747679945e-05
-1.8775594071485102e-05,1.686165160208475e-05,1.949858597072307e-05,4.384668955026427e-06,1.3660299373441376e-05
-1.7828924683271907e-05,1.7328229660051875e-05,2.0156903701717965e-05,1.1193546924914699e-05,2.3682796381763183e-05
-2.021462751145009e-05,2.039737591985613e-05,1.6042857168940827e-05,2.45635583269177e-05,3.464387191343121e-05
-2.093595321639441e-05,2.4951457817223854e-05,1.2493732356233522e-05,3.770582043216564e-05,3.8708119973307475e-05
-1.9491724742692895e-05,2.8051999834133312e-05,1.5016179531812668e-05,4.1793555283220485e-05,4.1299092117697e-05
-2.046501322183758e-05,2.623850741656497e-05,1.6635251085972413e-05,3.461891537881456e-05,4.530833030003123e-05
-2.401176607236266e-05,2.261775080114603e-05,9.58575401455164e-06,1.8089604054694064e-05,4.952710878569633e-05
-2.7363230401533656e-05,2.151231819880195e-05,1.995083266592701e-06,-3.5704213132703444e-06,5.3312262025428936e-05
-2.969027445942629e-05,2.32267575484002e-05,-7.544100526502007e-07,-2.4377872250624932e-05,5.35163635504432e-05
-2.946857966890093e-05,2.4201595806516707e-05,4.318759181387577e-07,-4.517251727520488e-05,5.0056431064149365e-05
-2.548284101067111e-05,2.212776234955527e-05,2.0791778752027312e-06,-6.878085696371272e-05,4.8414072807645425e-05
-2.165188197977841e-05,1.9342085579410195e-05,1.700513081459576e-07,-8.688468369655311e-05,5.251348193269223e-05
-2.1649155314662494e-05,2.0209496142342687e-05,-6.385974302247632e-06,-9.073709225049242e-05,5.754566882387735e-05
-2.106235479004681e-05,2.6730876925284974e-05,-1.6513751688762568e-05,-7.730437209829688e-05,5.876869909116067e-05
-2.287540519319009e-05,3.26307381328661e-05,-2.0193874661345035e-05,-5.190519368625246e-05,5.7898792874766514e-05
-2.5201046810252592e-05,3.585468220990151e-05,-1.5940267985570244e-05,-2.8575506803463213e-05,5.817514829686843e-05
-3.095904321526177e-05,3.719648884725757e-05,-1.0482145626156125e-05,-9.040965778694954e-06,5.932632848271169e-05
-3.65751184290275e-05,3.544533683452755e-05,-8.573952072765678e-06,1.0531623047427274e-05,6.0856807976961136e-05
-4.0430088120047e-05,3.6488145269686356e-05,-8.293804967252072e-06,2.4824103093123995e-05,6.232297891983762e-05
-4.217301830067299e-05,3.8117083022370934e-05,-3.5940779525844846e-06,3.104386632912792e-05,5.8786743466043845e-05
-3.6139485018793494e-05,3.502370236674324e-05,5.967524430161575e-07,3.053038381040096e-05,5.1048409659415483e-05
-2.7999405574519187e-05,2.2675600121147e-05,5.633454748021904e-06,2.2152722522150725e-05,4.775944762513973e-05
-2.4982051400002092e-05,7.570672096335329e-06,1.0289006240782328e-05,5.897225491935387e-06,5.05018288095016e-05
-3.11882613459602e-05,8.518270533386385e-07,1.5428990082000382e-05,-7.143578841350973e-06,5.182777385925874e-05
-3.763275526580401e-05,4.9732775551092345e-06,1.9380811863811687e-05,-5.660788701788988e-06,5.0511509471107274e-05
-3.872358502121642e-05,1.4443628970184363e-05,1.9026256268261932e-05,7.346924121520715e-06,5.027629231335595e-05
-3.647813718998805e-05,2.1542406102526e-05,1.5820234693819657e-05,1.6680683984304778e-05,5.4659645684296265e-05
-3.5750777897192165e-05,2.4140776076819748e-05,1.3227482668298762e-05,2.0337936803116463e-05,6.0767295508412644e-05
-3.6159886803943664e-05,2.5737928808666766e-05,1.3581254279415589e-05,2.906877671193797e-05,6.386928725987673e-05
-3.622157601057552e-05,2.8640271921176463e-05,1.6749678252381273e-05,4.60832379758358e-05,6.391940405592322e-05
-3.4267271985299885e-05,2.962664257211145e-05,1.87807745533064e-05,6.068133734515868e-05,6.343350833049044e-05
-3.020171971002128e-05,2.9621089197462425e-05,1.7965116057894193e-05,6.4092266256921e-05,6.336964725051075e-05
-2.7485901227919385e-05,3.243908940930851e-05,2.0160023268545046e-05,5.7253862905781716e-05,6.191695865709335e-05
-2.889235838665627e-05,3.521683902363293e-05,2.547086842241697e-05,4.1639996197773144e-05,5.7313507568323985e-05
-3.297701550764032e-05,3.483585896901786e-05,2.7786089049186558e-05,1.5232315490720794e-05,5.274997965898365e-05
-3.386999378562905e-05,3.4458083973731846e-05,2.2773347154725343e-05,-1.3092168046568986e-05,5.4582666052738205e-05
-3.61755010089837e-05,3.350305269123055e-05,1.533977047074586e-05,-2.7019204935641028e-05,5.606497506960295e-05
-4.085311229573563e-05,3.25848777720239e-05,1.010467985906871e-05,-2.547824442444835e-05,5.261574551695958e-05
-3.8959813537076116e-05,3.2113508495967835e-05,9.294926712755114e-06,-2.094101182592567e-05,5.2232124289730564e-05
-3.2366366212954745e-05,3.076344364671968e-05,3.870681211992633e-06,-2.412942922092043e-05,5.7793789892457426e-05
-2.6326686565880664e-05,2.807063538057264e-05,-7.460058441211004e-06,-2.7703266823664308e-05,6.0654929256998e-05
-2.018136547121685e-05,2.685450090211816e-05,-1.4441924577113241e-05,-2.080463855236303e-05,5.940973642282188e-05
-1.511942537035793e-05,2.7161438993061893e-05,-1.6678579413564876e-05,-1.1135934073536191e-05,5.998569031362422e-05
-1.1409822946006898e-05,2.463864439050667e-05,-1.502246959717013e-05,-9.390077138959896e-06,6.166960520204157e-05
-8.876480023900513e-06,2.352554292883724e-05,-9.987698831537273e-06,-8.709663234185427e-06,6.0285197832854465e-05
-1.066119148163125e-05,2.8769534765160643e-05,-3.160199412377551e-06,-7.602899586345302e-06,5.487794624059461e-05
-2.2331993022817187e-05,3.4627417335286736e-05,4.57368150819093e-06,-6.017196483298903e-06,5.1413746405160055e-05
-3.91767498513218e-05,3.573441063053906e-05,8.925329893827438e-06,-6.78033438816783e-06,5.131736907060258e-05
-4.7157442168099806e-05,3.308245140942745e-05,1.1819607607321814e-05,-9.711558050184976e-06,5.195248013478704e-05
-4.266588803147897e-05,3.205109533155337e-05,1.3509060408978257e-05,-1.3426540135696996e-05,5.239663369138725e-05
-3.498576916172169e-05,3.1006988137960434e-05,1.6519828932359815e-05,-1.8474545868230052e-05,5.309481639415026e-05
-3.0493096346617676e-05,2.9096116122673266e-05,1.7987402316066436e-05,-2.2876927687320858e-05,5.405880438047461e-05
-2.8882233891636133e-05,2.860530003090389e-05,1.4230770830181427e-05,-2.53495618380839e-05,5.5363765568472445e-05
-2.9129172617103904e-05,2.9810145861119963e-05,7.1686126830172725e-06,-2.8216762075317092e-05,5.785758185083978e-05
-2.904115717683453e-05,3.3115444239228964e-05,2.4566822958149714e-06,-3.133356221951544e-05,6.0601712903007865e-05
-2.7645755835692398e-05,3.6431643820833415e-05,2.367479282838758e-06,-3.144817674183287e-05,6.451968511100858e-05
-2.6473222533240914e-05,3.848209235002287e-05,3.835658390016761e-06,-3.097581793554127e-05,7.135695341276005e-05
-2.4201322958106175e-05,3.520354221109301e-05,4.02106297769933e-06,-2.983616286655888e-05,7.404096686514094e-05
-2.151467379007954e-05,2.5134975658147596e-05,7.210546186797728e-07,-2.770701757981442e-05,6.941566243767738e-05
-1.9806675481959246e-05,1.3870112525182776e-05,-1.620550960979017e-06,-2.6901963792624883e-05,6.501338066300377e-05
-1.8181364794145338e-05,8.967050234787166e-06,-1.5032777582746348e-06,-2.941236198239494e-05,6.390691123669967e-05
-1.9285394955659285e-05,1.0230271982436534e-05,-2.705354518184322e-06,-3.284134072600864e-05,6.317294901236892e-05
-2.288881478307303e-05,1.4217683201422915e-05,-5.617594069917686e-06,-3.56883138010744e-05,6.129565736046061e-05
-2.607393980724737e-05,1.4639623259427026e-05,-5.1293286560394336e-06,-3.623483280534856e-05,6.011350342305377e-05
-2.895525176427327e-05,1.0022305104939733e-05,-3.3225226161448518e-06,-3.667343480628915e-05,5.9890688135055825e-05
-2.8711623599519953e-05,9.049682375916746e-06,-3.605126948968973e-06,-3.6915531381964684e-05,6.134591967565939e-05
-2.74448193522403e-05,1.6248917745542713e-05,-2.5191159238602268e-06,-3.381293936399743e-05,6.275297346292064e-05
-2.7886069801752456e-05,2.4466820832458325e-05,7.100108518898196e-07,-2.872747791116126e-05,5.8776571677299216e-05
-2.784234493447002e-05,2.7097972633782774e-05,9.208330311594182e-07,-2.808554745570291e-05,5.554631934501231e-05
-2.5222536351066083e-05,2.7184514692635275e-05,5.293499043546035e-07,-2.7782585675595328e-05,5.728773248847574e-05
-1.8530341549194418e-05,2.8729011319228448e-05,-2.81355795550553e-07,-2.5567005650373176e-05,5.789902206743136e-05
-1.575866735947784e-05,3.0610488465754315e-05,2.1283794922055677e-06,-2.4133341867127456e-05,5.7408877182751894e-05
-1.7861240849015303e-05,3.157366518280469e-05,7.037992872938048e-06,-2.4473998564644717e-05,5.7640641898615286e-05
-1.8483749954611994e-05,3.063343683606945e-05,8.099127626337577e-06,-2.519745430618059e-05,5.8247442211722955e-05
-1.5465951946680434e-05,2.925847002188675e-05,5.432912985270377e-06,-2.2104131858213805e-05,5.751940989284776e-05
-1.1310066838632338e-05,3.0135977794998325e-05,3.0964554298407165e-06,-1.7079495592042804e-05,5.564538878388703e-05
-9.525665518594906e-06,3.1276093068299815e-05,1.3638453992825816e-06,-1.4623176866734866e-05,5.440960012492724e-05
-9.191628123517148e-06,2.9792303394060582e-05,8.077239499471034e-07,-1.3417043192021083e-05,5.5935164709808305e-05
-1.0296970685885753e-05,2.5674948119558394e-05,2.2553399503522087e-06,-1.2483339560276363e-05,5.447769217425957e-05
-1.3301432773005217e-05,2.3732040062895976e-05,4.446392267709598e-06,-1.4129898772807792e-05,5.0252721848664805e-05
-1.892468389996793e-05,2.4799268430797383e-05,6.6439638430892956e-06,-1.4922972695785575e-05,4.9231937737204134e-05
-2.4572993424953893e-05,2.6939418603433296e-05,9.04432909010211e-06,-1.3121332813170739e-05,5.2698746003443375e-05
-2.7926978873438202e-05,2.7647405659081414e-05,1.1722791896318085e-05,-9.285932719649281e-06,5.67407114431262e-05
-2.8952123102499172e-05,2.784906973829493e-05,1.2582902854774147e-05,-6.854213552287547e-06,5.774733654106967e-05
-2.6442916350788437e-05,2.8205180569784716e-05,1.0361871318309568e-05,-1.0113920325238723e-05,5.570615394390188e-05
-2.0187964764772914e-05,2.936784403573256e-05,3.269228727731388e-06,-1.9984252503491007e-05,5.22118789376691e-05
-1.659472764004022e-05,3.2634245144436136e-05,-4.307675226300489e-06,-3.295732312835753e-05,5.136146864970215e-05
-2.2253601855481975e-05,3.846219624392688e-05,-7.5727211878984235e-06,-4.4515065383166075e-05,5.546210377360694e-05
-3.081317481701262e-05,4.203288699500263e-05,-8.097133104456589e-06,-4.7351382818305865e-05,5.9820085880346596e-05
-3.330535764689557e-05,4.0127080865204334e-05,-7.897417162894271e-06,-3.993896098108962e-05,5.8284731494495645e-05
-2.9204156817286275e-05,3.767164525925182e-05,-3.2962784644041676e-06,-2.8262085834285244e-05,5.496570156537928e-05
-2.2374510081135668e-05,4.0311399061465636e-05,8.053481224123971e-07,-1.6767522538430057e-05,5.249749665381387e-05
-2.1472898879437707e-05,4.3783336877822876e-05,-6.92760238507617e-07,-1.1363722478563432e-05,5.3164745622780174e-05
-2.398588549112901e-05,3.915578417945653e-05,-4.399226327223005e-06,-8.01723581389524e-06,5.6675558880669996e-05
-2.284925722051412e-05,3.1528812542092055e-05,-6.3881566347845364e-06,6.9259463089110795e-06,5.9413170674815774e-05
-2.3079854145180434e-05,2.9234719477244653e-05,-3.885350906784879e-06,2.768463127722498e-05,5.7490222388878465e-05
-2.4290608052979223e-05,3.063975600525737e-05,2.5661570361990016e-06,4.1595951188355684e-05,5.652945765177719e-05
-2.5605375412851572e-05,2.760156712611206e-05,6.426125764846802e-06,4.530521255219355e-05,5.846180647495203e-05
-2.42011301452294e-05,2.441670949338004e-05,5.406611762737157e-06,4.0705323044676334e-05,5.778974446002394e-05
-2.4881799618015066e-05,2.4263768864329904e-05,4.963069386576535e-06,3.497681609587744e-05,5.399990186560899e-05
-2.46748259087326e-05,2.4799493985483423e-05,7.333312623813981e-06,3.364562144270167e-05,5.291567140375264e-05
-2.1960397134535015e-05,1.9073278963332996e-05,1.152502136392286e-05,3.5328572266735137e-05,5.489241812028922e-05
-2.1922445739619434e-05,1.3082287296128925e-05,1.685297320364043e-05,3.570146145648323e-05,5.6106389820342883e-05
-2.1032670701970346e-05,2.170922016375698e-05,2.254466926387977e-05,3.424283568165265e-05,5.935370427323505e-05
-2.459835923218634e-05,3.791356721194461e-05,2.4363562260987237e-05,3.2976291549857706e-05,6.167904211906716e-05
-3.0247321774368174e-05,4.884426743956283e-05,2.188339931308292e-05,3.2442807423649356e-05,6.0900652897544205e-05
-3.20335675496608e-05,5.361298462958075e-05,2.0158662664471194e-05,2.928188223449979e-05,5.925720324739814e-05
-2.617400423332583e-05,5.6167846196331084e-05,2.0572764697135426e-05,2.207768557127565e-05,5.9499368944671005e-05
-1.7860671505331993e-05,5.3984073019819334e-05,2.074259282380808e-05,1.1376616384950466e-05,5.889143722015433e-05
-1.373937902826583e-05,3.797529643634334e-05,1.798142329789698e-05,3.0353014608408557e-06,5.743992733187042e-05
-1.5303356121876277e-05,8.600767614552751e-06,1.3872862837160937e-05,2.825343017320847e-06,5.936207890044898e-05
-1.827852611313574e-05,-7.943822311062831e-06,1.2904161849291995e-05,6.972526989557082e-06,6.205023237271234e-05
-2.0183962988085113e-05,7.789368282828946e-06,1.3584773114416748e-05,6.552511422341922e-06,6.260794907575473e-05
-2.1980176825309172e-05,3.766665031434968e-05,1.1270140930719208e-05,-1.8216630905953934e-06,6.0717760788975284e-05
-2.1683907107217237e-05,5.184085966902785e-05,5.4480960898217745e-06,-1.3786840099783149e-05,5.978943590889685e-05
-2.038117600022815e-05,4.59079492429737e-05,-4.3563582039496396e-06,-2.3558119210065342e-05,6.0087055317126215e-05
-1.8373209968558513e-05,3.405286406632513e-05,-1.6959991626208648e-05,-2.7150616006110795e-05,5.849539957125671e-05
-1.7104817743529566e-05,2.57587216765387e-05,-2.7625515940599144e-05,-2.498451249266509e-05,5.790332579636015e-05
-1.895261084428057e-05,1.9705579688888974e-05,-3.2495383493369445e-05,-2.229004712717142e-05,5.735948798246682e-05
-2.0294275600463152e-05,1.543470352771692e-05,-3.2237800041912124e-05,-2.4708999262657017e-05,5.5475509725511074e-05
-2.031651820288971e-05,1.607650119694881e-05,-2.7225485609960742e-05,-2.61939949268708e-05,5.5005693866405636e-05
-1.8897369955084287e-05,1.9632954717963003e-05,-1.8456843463354744e-05,-1.8960332454298623e-05,5.9115591284353286e-05
-2.1686773834517226e-05,1.9959412384196185e-05,-1.1140869901282713e-05,-1.0499812560738064e-05,6.527244840981439e-05
-2.761986615951173e-05,1.4619929061154835e-05,-2.6113730200449936e-06,-8.335704478668049e-06,7.001236372161657e-05
-2.9496181014110334e-05,8.041809451242443e-06,4.002953573944978e-06,-5.979836259939475e-06,7.115396874723956e-05
-3.152681529172696e-05,3.7220643207547255e-06,5.644501470669638e-06,3.2132099931914127e-06,6.958872108953074e-05
-3.490926246740855e-05,-7.135618488973705e-06,6.411853064491879e-06,5.317090653988998e-06,6.935904093552381e-05
-3.8411570130847394e-05,-2.1726371414843015e-05,4.50783909400343e-06,-2.006712747970596e-06,6.793587817810476e-05
-3.452307646512054e-05,-2.0556270101224072e-05,4.438007636053953e-06,-8.693558811501134e-06,6.871970981592312e-05
-2.91950891551096e-05,-1.509139224253886e-06,8.231930223701056e-06,-1.39987314469181e-05,7.266532338690013e-05
-2.7671809220919386e-05,1.7826347175287083e-05,9.76337742031319e-06,-1.672759208304342e-05,7.556925993412733e-05
-2.918787686212454e-05,2.786948243738152e-05,1.0223059689451475e-05,-1.9358758436283097e-05,7.276226097019389e-05
-2.902296546380967e-05,3.503115294734016e-05,1.2880317626695614e-05,-2.2317490220302716e-05,6.609711999772117e-05
-2.8629196094698273e-05,4.141494719078764e-05,1.4244718840927817e-05,-2.4560515157645568e-05,6.217743793968111e-05
-2.927629066107329e-05,4.108217035536654e-05,1.4563987861038186e-05,-2.5091021598200314e-05,6.43633320578374e-05
-2.773938831523992e-05,3.54961484845262e-05,1.5644613085896708e-05,-2.5955174351111054e-05,6.92579778842628e-05
-2.6762094421428628e-05,3.2076983188744634e-05,1.6179110389202833e-05,-2.751221472863108e-05,7.0528345531784e-05
-2.9768347303615883e-05,3.251235466450453e-05,1.4761571037524845e-05,-3.0320372388814576e-05,6.92863977747038e-05
-3.302951517980546e-05,3.134645885438658e-05,1.2082949979230762e-05,-3.2819843909237534e-05,6.687962013529614e-05
-2.866847353288904e-05,2.667421540536452e-05,1.0841309631359763e-05,-3.289701999165118e-05,6.513443804578856e-05
-2.173774191760458e-05,2.589362338767387e-05,1.145499754784396e-05,-3.068251317017712e-05,6.354930519592017e-05
-1.985618109756615e-05,3.204230961273424e-05,9.743866030476056e-06,-2.8206181013956666e-05,6.137838499853387e-05
-2.114168819389306e-05,4.103158789803274e-05,2.5657316200522473e-06,-2.65066628344357e-05,5.961242277408019e-05
-1.9946512111346237e-05,4.844027716899291e-05,-8.091359632089734e-06,-2.413665788481012e-05,6.087865767767653e-05
-1.7453672626288608e-05,5.2227856940589845e-05,-1.7547106835991144e-05,-2.1474026652867906e-05,6.556579319294542e-05
-1.4602950614062138e-05,5.020831304136664e-05,-1.9013663404621184e-05,-1.967585012607742e-05,6.726007268298417e-05
-1.3419942661130335e-05,4.473844819585793e-05,-1.2542514014057815e-05,-1.8710808944888413e-05,6.2831852119416e-05
-1.4686325812363066e-05,4.1134280763799325e-05,-4.8306324060831685e-06,-1.9495842934702523e-05,5.4299260227708146e-05
-1.6894326108740643e-05,3.96588584408164e-05,3.2114801342686405e-06,-2.2943788280826993e-05,4.570661985781044e-05
-2.0571409550029784e-05,3.6803074181079865e-05,1.2186930689495057e-05,-2.417803079879377e-05,4.6085959183983505e-05
-2.446808503009379e-05,3.512186594889499e-05,1.858322684711311e-05,-2.9712064133491367e-05,5.1362247177166864e-05
-2.2291618734016083e-05,3.6952907976228744e-05,2.255974686704576e-05,-4.4227672333363444e-05,5.6287444749614224e-05
-2.120880344591569e-05,3.5844383091898635e-05,2.4495275283697993e-05,-6.360811676131561e-05,5.972067447146401e-05
-2.1682941223843955e-05,3.456375270616263e-05,2.2077465473557822e-05,-7.675715460209176e-05,5.6030181440291926e-05
-2.0678970031440258e-05,3.739607200259343e-05,1.5797231753822416e-05,-7.477772305719554e-05,5.158046042197384e-05
-2.1138652300578542e-05,4.086538319825195e-05,1.0608129741740413e-05,-6.529966776724905e-05,5.244620479061268e-05
-2.558358210080769e-05,4.1629649786045775e-05,8.56525821291143e-06,-5.483470158651471e-05,5.650896855513565e-05
-2.746517930063419e-05,4.119827281101607e-05,6.90399065206293e-06,-4.835646541323513e-05,6.0837457567686215e-05
-2.3763337594573386e-05,4.082836676388979e-05,3.238745193812065e-06,-4.450669075595215e-05,6.247180135687813e-05
-2.1031279175076634e-05,3.729972377186641e-05,1.1590457233978668e-06,-3.826503234449774e-05,6.223896343726665e-05
-2.103739279846195e-05,3.2501251553185284e-05,2.9363548037508735e-06,-2.928324101958424e-05,6.276714702835307e-05
-2.3097256416804157e-05,3.302548793726601e-05,5.327475264493842e-06,-1.7097660020226613e-05,6.491671956609935e-05
-2.5787077902350575e-05,3.946687502320856e-05,3.506193252178491e-06,-2.9092370823491365e-06,6.611186836380512e-05
-2.841804234776646e-05,4.368505688034929e-05,-8.73559258707246e-07,8.65502624947112e-06,6.464179750764742e-05
-2.7954321922152303e-05,4.25154939875938e-05,-1.697974312264705e-06,1.6693147699697874e-05,6.367763126036152e-05
-2.6897754651145078e-05,3.887074126396328e-05,1.7760452237780555e-06,2.3874121325206943e-05,6.270399899221957e-05
-2.9000377253396437e-05,3.6663986975327134e-05,5.14873318024911e-06,2.6425170290167443e-05,6.0533489886438474e-05
-3.0991752282716334e-05,3.442779052420519e-05,6.984999345149845e-06,2.2383235773304477e-05,5.785106623079628e-05
-2.986702020280063e-05,2.9416125471470878e-05,9.403265721630305e-06,1.689834607532248e-05,5.399624569690786e-05
-2.88658520730678e-05,2.6417445042170584e-05,1.1204270776943304e-05,1.4875558917992748e-05,4.9793641665019095e-05
-2.4423976356047206e-05,2.785036303976085e-05,1.2325611351116095e-05,1.4483561244560406e-05,5.01563299621921e-05
-2.1256291802274063e-05,3.0263614462455735e-05,1.3663859135704115e-05,1.5646195606677793e-05,5.134930688655004e-05
-2.243328526674304e-05,3.1718900572741404e-05,1.4029211342858616e-05,1.661023634369485e-05,5.189096191315912e-05
-2.3080885512172244e-05,3.028013998118695e-05,1.2578263522300404e-05,1.3678932191396598e-05,5.3319581638788804e-05
-2.572951234469656e-05,2.3909769879537635e-05,1.2912219062855002e-05,8.842316674417816e-06,5.155860344530083e-05
-2.8580197977134958e-05,2.3109914764063433e-05,1.3817185390507802e-05,-4.046678895974765e-06,4.7456458560191095e-05
-3.181756255798973e-05,3.52206188836135e-05,1.0956228834402282e-05,-2.0389015844557434e-05,4.6060864406172186e-05
-4.1814419091679156e-05,4.535163316177204e-05,9.530034731142223e-06,-2.989498170791194e-05,4.922613879898563e-05
-5.3316915000323206e-05,4.875284503214061e-05,8.42551889945753e-06,-3.266927524236962e-05,5.136600520927459e-05
-5.7561712310416624e-05,4.805857315659523e-05,4.904662091576029e-06,-3.062143150600605e-05,5.419385342975147e-05
-5.381166556617245e-05,4.092746530659497e-05,1.3492460766428849e-06,-2.739321644185111e-05,5.90427553106565e-05
-4.586982322507538e-05,3.422274676267989e-05,-7.79139440965082e-07,-1.9434981368249282e-05,6.172145367600024e-05
-3.642326919361949e-05,3.078008376178332e-05,1.680978698459512e-06,-8.394366886932403e-06,6.228011625353247e-05
-3.039548209926579e-05,2.677574047993403e-05,4.103713763470296e-06,1.1881433010785258e-06,6.288455915637314e-05
-3.059134178329259e-05,2.199833579652477e-05,2.822203441610327e-06,9.481459528615233e-06,6.0626302001765e-05
-3.270661545684561e-05,1.6146568668773398e-05,-4.786096724274103e-06,1.8498185454518534e-05,5.642097312374972e-05
-3.303024641354568e-05,7.150211786211003e-06,-1.2908358257845975e-05,2.5486393496976234e-05,5.339942799764685e-05
-3.243172250222415e-05,-3.9010619730106555e-06,-1.4666145034425426e-05,2.6875386538449675e-05,5.067982419859618e-05
-3.12939882860519e-05,-1.7442771422793157e-05,-1.0130722330359276e-05,2.4538496290915646e-05,4.761890522786416e-05
-2.8333894078969024e-05,-2.9516751965275034e-05,-2.7922831122850766e-06,2.0458586732274853e-05,4.418586831889115e-05
-2.2724783775629476e-05,-3.0977927963249385e-05,5.77623814024264e-06,1.200511360366363e-05,4.4486394472187385e-05
-1.795425487216562e-05,-2.0532508642645553e-05,1.352044546365505e-05,-8.421349093623576e-07,4.738871575682424e-05
-1.6896165107027628e-05,-8.689681635587476e-06,1.689547389105428e-05,-1.1168557648488786e-05,4.7496625484200194e-05
-1.6134061297634616e-05,-1.4032153785592527e-06,1.6724003216950223e-05,-1.638017965888139e-05,4.654693839256652e-05
-1.3219131687947083e-05,5.097094799566548e-06,1.6537947885808535e-05,-1.8304230252397247e-05,4.926717883790843e-05
-1.1412974345148541e-05,1.6115131074911915e-05,1.8600387193146162e-05,-1.9513992810971104e-05,5.3036852477816865e-05
-1.5583518688799813e-05,2.824753028107807e-05,2.0907240468659438e-05,-2.0101873815292493e-05,5.296999734127894e-05
-2.4623424906167202e-05,3.5391720302868634e-05,2.4010552806430496e-05,-1.7585529349162243e-05,5.113832594361156e-05
-2.9485279810614884e-05,3.711248064064421e-05,2.7074653189629316e-05,-1.3744107491220348e-05,5.0200873374706134e-05
-2.556486833782401e-05,3.1311254133470356e-05,2.593385215732269e-05,-1.0860501788556576e-05,4.823242488782853e-05
-1.967427488125395e-05,2.244832103315275e-05,1.9676410374813713e-05,-5.609489562630188e-06,4.8861256800591946e-05
-1.5555067875538953e-05,2.2528955014422536e-05,1.5865767636569217e-05,1.0745656027211226e-06,5.0393999117659405e-05
-1.735316800477449e-05,3.231636947020888e-05,1.455206802347675e-05,7.069865205266979e-06,5.5197935580508783e-05
-2.1484143871930428e-05,4.1756353311939165e-05,1.2125323337386362e-05,1.125379822042305e-05,6.149759428808466e-05
-2.0362762370496057e-05,4.9416958063375205e-05,9.40117024583742e-06,1.466308913222747e-05,6.338705861708149e-05
-1.5911053196759894e-05,5.3473802836379036e-05,8.463799531455152e-06,1.4221842320694122e-05,6.498760922113433e-05
-1.6405312635470182e-05,5.480974868987687e-05,1.0118739737663418e-05,1.0827186997630633e-05,6.534425483550876e-05
-2.2112488295533694e-05,5.422417234512977e-05,1.1158062989125028e-05,8.338610314240213e-06,6.339976243907586e-05
-2.607044552860316e-05,5.080473783891648e-05,6.486088750534691e-06,3.1577608297084225e-06,5.973151564830914e-05
-2.3668822905165143e-05,4.625063593266532e-05,-2.7650698939396534e-06,-6.3496654547634535e-06,5.701616464648396e-05
-2.033437522186432e-05,3.715212733368389e-05,-7.4841996138275135e-06,-1.5839486877666786e-05,5.514371514436789e-05
-2.3394557501887903e-05,3.09471033688169e-05,-6.003991984471213e-06,-2.6151685233344324e-05,5.723174035665579e-05
-2.502796269254759e-05,3.374252628418617e-05,-7.624226782354526e-06,-4.164896745351143e-05,6.174902227940038e-05
-2.202069117629435e-05,4.692258153227158e-05,-1.3209220924181864e-05,-5.667090954375453e-05,6.309213495114818e-05
-2.0652520106523298e-05,6.515881977975368e-05,-1.5517529391217977e-05,-6.391920032911003e-05,6.371486961143091e-05
-2.3510032406193204e-05,7.71686973166652e-05,-1.1438910405559e-05,-5.98981132498011e-05,6.810489867348224e-05
-3.106538861175068e-05,7.917262701084837e-05,-3.894783731084317e-06,-4.738306597573683e-05,7.236059900606051e-05
-3.9865117287263274e-05,7.804840424796566e-05,3.0889914341969416e-06,-4.0797011024551466e-05,7.305394683498889e-05
-4.0787417674437165e-05,8.085937588475645e-05,5.952548235654831e-06,-4.9092348490376025e-05,7.20439275028184e-05
-3.1545037927571684e-05,8.248497033491731e-05,6.5467347667436115e-06,-5.9728670748881996e-05,7.066677062539384e-05
-2.4158069209079258e-05,7.259396079462022e-05,7.640892363269813e-06,-5.607637649518438e-05,7.019380427664146e-05
-2.7206193408346735e-05,4.943168460158631e-05,1.097018139262218e-05,-3.470789670245722e-05,6.914974073879421e-05
-3.308395389467478e-05,1.767699905030895e-05,1.8354690837441012e-05,-5.03899946124875e-06,6.931344978511333e-05
-3.5168832255294546e-05,-2.66905171883991e-05,2.4094410036923364e-05,1.827233973017428e-05,6.950570968911052e-05
-3.348873360664584e-05,-7.494289457099512e-05,2.3196775146061555e-05,2.5935860321624205e-05,6.865405885037035e-05
-2.9481439923984e-05,-9.910626249620691e-05,1.9952594811911695e-05,2.2970141799305566e-05,6.803919677622616e-05
-2.5049090254469775e-05,-7.92875507613644e-05,2.011891410802491e-05,2.16578791878419e-05,6.60848745610565e-05
-2.0624505850719288e-05,-3.2796389859868214e-05,2.1022424334660172e-05,2.7329029762768187e-05,6.181638309499249e-05
-1.8475695469533093e-05,4.754878773383098e-06,1.9702880308614112e-05,3.018672941834666e-05,5.955593951512128e-05
-1.960560621228069e-05,2.5896308216033503e-05,1.6110199794638902e-05,2.5887193260132335e-05,5.761425200034864e-05
-2.2184061890584417e-05,3.437899431446567e-05,1.4946165720175486e-05,2.6018717107945122e-05,5.689590034307912e-05
-2.5052009732462466e-05,3.394581290194765e-05,1.5261470252880827e-05,3.1165040127234533e-05,5.8603236539056525e-05
-2.261524241475854e-05,3.314979039714672e-05,1.1918871678062715e-05,3.058122092625126e-05,5.768575647380203e-05
-2.0243200197000988e-05,3.280237069702707e-05,5.176867489353754e-06,1.8987224393640645e-05,5.759284249506891e-05
-2.806527481880039e-05,3.2036554330261424e-05,-1.959515657290467e-06,2.155139327442157e-06,5.778533159173094e-05
-3.673463288578205e-05,3.252027090638876e-05,-6.331423264782643e-06,-1.1167699994985014e-05,5.99615195824299e-05
-3.881532029481605e-05,3.6010162148159e-05,-8.522939424437936e-06,-2.0193114323774353e-05,6.10838906140998e-05
-3.791717972490005e-05,3.649322752607986e-05,-7.884343176556285e-06,-2.501177732483484e-05,5.9384161431808025e-05
-3.608237238950096e-05,3.275373819633387e-05,-6.1641630964004435e-06,-2.6957655791193247e-05,5.5525346397189423e-05
-3.373469735379331e-05,2.793596104311291e-05,-3.7768922993564047e-06,-2.9736378564848565e-05,5.103061630507e-05
-3.410942372283898e-05,2.6133535357075743e-05,-3.445424852088763e-07,-3.3658521715551615e-05,5.043787314207293e-05
-3.734759957296774e-05,2.945847882074304e-05,9.334493711321556e-07,-3.224048123229295e-05,5.179350046091713e-05
-3.766332520172e-05,3.4603475796757266e-05,1.6634655821690103e-06,-2.1504414689843543e-05,5.1683564379345626e-05
-3.2394160371040925e-05,3.728348747245036e-05,2.983895456054597e-06,-8.729375622351654e-06,4.842552152695134e-05
-2.608793874969706e-05,3.710815144586377e-05,4.557872216537362e-06,-1.0803237273648847e-06,4.5843822590541095e-05
-2.2480711777461693e-05,3.8955375202931464e-05,6.611344360862859e-06,2.3138577489589807e-06,4.534901017905213e-05
-2.2280448320088908e-05,4.3557189201237634e-05,9.711442544357851e-06,3.253211616538465e-06,4.2503990698605776e-05
-2.259340908494778e-05,4.4749071093974635e-05,1.0629006283124909e-05,2.2316301055980148e-06,3.8264926843112335e-05
-2.1824283976457082e-05,3.935775748686865e-05,7.612924946442945e-06,8.02829674739769e-07,3.713483238243498e-05
-2.1376172298914753e-05,3.48958965332713e-05,3.2945788461802294e-06,-2.405924306003726e-06,3.6744382668985054e-05
-1.9823264665319584e-05,3.504712367430329e-05,1.2268192222109064e-06,-6.555265372298891e-06,3.7465590139618143e-05
-1.9392615286051296e-05,3.451948578003794e-05,1.9619428712758236e-06,-9.275816410081461e-06,3.9171904063550755e-05
-2.1259436834952794e-05,2.9508682928280905e-05,2.232590077255736e-06,-9.766702532942872e-06,4.320524385548197e-05
-2.3430382498190738e-05,2.604460132715758e-05,7.898294143160456e-07,-9.006832442537416e-06,4.9694557674229145e-05
-2.6647943741409108e-05,2.453054730722215e-05,-2.3113193492463324e-06,-8.78392529557459e-06,5.4580363212153316e-05
-2.9218157578725368e-05,2.230485188192688e-05,-6.119332283560652e-06,-8.685191460244823e-06,5.546279498958029e-05
-2.747255530266557e-05,1.8581053154775873e-05,-4.307697054173332e-06,-8.47272440296365e-06,5.76239763177e-05
-2.501764720364008e-05,1.5810363038326614e-05,2.6391533083369723e-06,-1.164757941296557e-05,5.956599852652289e-05
-2.849971679097507e-05,1.769207119650673e-05,8.492329470755067e-06,-1.2921660527354106e-05,5.8714842452900484e-05
-3.7735320802312344e-05,1.9350445654708892e-05,1.0492435649211984e-05,-7.158877906476846e-06,5.984154995530844e-05
-4.768108919961378e-05,1.9176855857949704e-05,7.2894172262749635e-06,-2.115545157721499e-06,6.382512219715863e-05
-5.351154686650261e-05,2.0554492948576808e-05,1.983829406526638e-06,1.1592626947276585e-07,6.618616316700354e-05
-4.7850728151388466e-05,2.3067363144946285e-05,-8.427915645370376e-07,-3.800796264386008e-07,6.546301301568747e-05
-3.7480811442947015e-05,2.4108619982143864e-05,-4.307971437356173e-07,-3.901115178450709e-06,6.517305882880464e-05
-2.952340764750261e-05,2.2518206606036983e-05,-2.037136255239602e-06,-9.160823537968099e-06,6.586040399270132e-05
-2.2797372366767377e-05,2.1208201360423118e-05,-3.6477099456533324e-06,-8.65251786308363e-06,6.853092781966552e-05
-1.887945290945936e-05,1.8856570022762753e-05,-3.1078157007868867e-06,-5.2354575927893165e-06,6.816261884523556e-05
-1.6510948626091704e-05,1.4594719687011093e-05,5.1176073156966595e-08,-1.1644657206488773e-05,6.406032480299473e-05
-1.7426691556465812e-05,1.489403257437516e-05,2.7245632736594416e-06,-2.4435626983176917e-05,5.9923775552306324e-05
-2.1040390492998995e-05,2.0214425603626296e-05,1.1859814321724116e-06,-3.073997868341394e-05,5.877091098227538e-05
-2.5570154321030714e-05,2.567328374425415e-05,-1.351787773273827e-06,-2.7220197807764634e-05,5.777325350209139e-05
-2.9991046176292002e-05,2.9995027944096364e-05,-1.6806363873911323e-06,-1.9319533748785034e-05,5.655452696373686e-05
-3.34565484081395e-05,3.403423397685401e-05,-8.697856515027524e-07,-1.0579407899058424e-05,5.694469655281864e-05
-3.5723060136660933e-05,3.423410817049444e-05,-1.661327019064629e-06,-1.6201569508211833e-07,5.823912943014875e-05
-3.7183708627708256e-05,3.199815546395257e-05,-4.6718892008357216e-06,1.3535548532672692e-05,6.114020652603358e-05
-3.722585097420961e-05,3.265445775468834e-05,-7.644626748515293e-06,2.4967888748506084e-05,6.456430855905637e-05
-3.410541467019357e-05,3.6513611121336e-05,-7.263778570631985e-06,2.710190528887324e-05,6.674955511698499e-05
-2.9113132768543437e-05,4.114937473786995e-05,-4.8577003326499835e-06,2.1180940166232176e-05,6.822639261372387e-05
-2.6900119337369688e-05,4.120061203138903e-05,-1.7139529973064782e-06,1.3191248399380129e-05,6.982423656154424e-05
-2.6215035177301615e-05,3.967139127780683e-05,1.0402306998003041e-06,5.158915428182809e-06,6.701972597511485e-05
-2.7170590328751132e-05,3.751176700461656e-05,2.1995977022015722e-06,3.0972725539868406e-07,6.300093082245439e-05
-3.0168162993504666e-05,3.436106271692552e-05,1.3500352906703483e-06,-1.694280513220292e-06,6.412684888346121e-05
-3.0878181860316545e-05,3.318746166769415e-05,3.211798912161612e-06,-3.225263299100334e-06,6.786101585021242e-05
-2.830200901371427e-05,3.6687626561615616e-05,4.95913218401256e-06,-5.190619503991911e-06,7.12548426236026e-05
-2.4729697543079965e-05,4.332975368015468e-05,1.7214160834555514e-06,-7.1852186920295935e-06,7.00625532772392e-05
-2.709130239963997e-05,4.476969115785323e-05,-7.23782136446971e-07,-1.3594933079730254e-05,6.641571235377342e-05
-3.0062481528148055e-05,4.4022523070452735e-05,-2.0895624857075745e-06,-2.1946638298686594e-05,6.460713484557346e-05
-3.081381510128267e-05,4.2754822061397135e-05,-3.896438101946842e-06,-2.4045501049840823e-05,6.539529567817226e-05
-3.375575761310756e-05,4.265465395292267e-05,-3.756987325687078e-06,-2.2955393433221616e-05,6.669076537946239e-05
-3.778458267333917e-05,4.397982047521509e-05,-3.4331903862039326e-06,-1.9506540411384776e-05,6.511026731459424e-05
-4.20565229433123e-05,4.347033973317593e-05,-1.9158133000019006e-06,-1.664226147113368e-05,6.530222162837163e-05
-4.333127799327485e-05,4.044687739224173e-05,4.4452767724578734e-06,-1.59809260367183e-05,6.624359230045229e-05
-4.328034628997557e-05,3.6183089832775295e-05,1.4412798918783665e-05,-1.9150924345012754e-05,6.514876440633088e-05
-4.2605250200722367e-05,3.630695937317796e-05,2.318567749171052e-05,-2.3889528165454976e-05,6.20114806224592e-05
-4.0207338315667585e-05,4.611527037923224e-05,2.509813020878937e-05,-2.2320773496176116e-05,6.13056545262225e-05
-3.5574725188780576e-05,5.629439328913577e-05,2.437354123685509e-05,-1.840322875068523e-05,6.288615986704826e-05
-2.8775813916581683e-05,5.6132204917958006e-05,2.5499122784822248e-05,-1.8239679775433615e-05,6.530222162837163e-05
-2.4574632334406488e-05,4.434607762959786e-05,2.9104914574418217e-05,-2.0972214770154096e-05,6.515112181659788e-05
-2.546557880123146e-05,2.927130481111817e-05,3.274246410001069e-05,-2.1239624402369373e-05,6.1034232203383e-05
-2.6474448532098904e-05,2.550545468693599e-05,3.221651422791183e-05,-2.0112287529627793e-05,5.840477024321444e-05
-2.5262108465540223e-05,3.689193545142189e-05,2.516551103326492e-05,-2.1675870812032372e-05,6.0330410633469e-05
-2.6445095500093885e-05,4.9402286094846204e-05,1.2538431292341556e-05,-2.591174234112259e-05,6.484721234301105e-05
-2.9761746191070415e-05,4.3654406908899546e-05,-2.6132863695238484e-06,-3.0460147172561847e-05,6.716027564834803e-05
-2.9544509743573144e-05,1.650015292398166e-05,-1.351572518615285e-05,-3.2700205338187516e-05,6.647636473644525e-05
-2.5458097297814675e-05,-9.40514564717887e-06,-1.538965807412751e-05,-3.143471622024663e-05,6.168046820675954e-05
-1.944034011103213e-05,-4.795789209310897e-06,-1.1377273949619848e-05,-2.7781536118709482e-05,5.5553064157720655e-05
-1.2517453797045164e-05,1.8357461158302613e-05,-3.2953346362774028e-06,-2.8500231564976275e-05,5.4016694775782526e-05
-5.9353710639697965e-06,3.0608549423050135e-05,3.6277481285651447e-06,-4.061196887050755e-05,5.545758904190734e-05
-3.8457119444501586e-07,2.3447457351721823e-05,6.601163931918563e-06,-6.376859528245404e-05,5.558978227782063e-05
-9.165927394860773e-07,1.1073278074036352e-05,9.929402949637733e-06,-7.999774243216962e-05,5.4908701713429764e-05
-6.587241387023823e-06,6.9627112679881975e-06,1.425787377229426e-05,-7.872468995628878e-05,5.3407969971885905e-05
-1.1036986506951507e-05,9.613218026061077e-06,1.7906175344251096e-05,-6.450175715144724e-05,5.3071915317559615e-05
-1.3436249901133124e-05,1.3803901310893707e-05,1.8785065549309365e-05,-4.366088251117617e-05,5.222923937253654e-05
-1.5909323337837122e-05,1.2864314157923218e-05,1.6155587218236178e-05,-2.0454544937820174e-05,5.27055308339186e-05
-1.8569327949080616e-05,1.2175176379969344e-05,1.3053727343503851e-05,6.8066119638388045e-06,5.737187893828377e-05
-2.3196667825686745e-05,1.712047196633648e-05,1.2518579751485959e-05,3.18012316711247e-05,6.234955071704462e-05
-2.8091122658224776e-05,2.124442471540533e-05,1.4719683349539991e-05,4.514141983236186e-05,6.351783667923883e-05
-2.8341399229248054e-05,2.371417031099554e-05,1.7559377738507465e-05,4.488058038987219e-05,6.423510058084503e-05
-2.2142545276437886e-05,2.7977439458481967e-05,2.184041659347713e-05,3.967612792621367e-05,6.612901051994413e-05
-1.1220075066376012e-05,3.485834167804569e-05,2.369628600717988e-05,3.462567838141695e-05,6.429450149880722e-05
-5.7205056691600475e-06,4.031981370644644e-05,2.5121991711785085e-05,3.339538670843467e-05,6.032504097674973e-05
-9.0207267930964e-06,4.272773003322072e-05,2.6890405933954753e-05,2.9735343559877947e-05,5.978255649097264e-05
-1.5321556929848157e-05,4.225517113809474e-05,2.306692476850003e-05,1.5418545444845222e-05,6.173762085381895e-05
-1.936113039846532e-05,4.0798364352667704e-05,1.2126929505029693e-05,-3.978259428549791e-06,6.231777661014348e-05
-1.9076418539043516e-05,3.721696702996269e-05,1.91291724149778e-06,-1.9659297322505154e-05,6.10968709224835e-05
-1.6428419257863425e-05,3.122544148936868e-05,-4.50578727395623e-06,-2.766623583738692e-05,5.920252442592755e-05
-1.6845689970068634e-05,2.3798411348252557e-05,-9.096786925510969e-06,-3.130042023258284e-05,5.6278775446116924e-05
-2.1785945136798546e-05,1.7606345863896422e-05,-1.1716748304024804e-05,-3.0313371098600328e-05,5.305211743689142e-05
-2.630010749271605e-05,1.4422116692003328e-05,-1.182446339953458e-05,-2.2438427549786866e-05,5.162779780221172e-05
-2.8795549951610155e-05,1.2717136087303516e-05,-1.0355931408412289e-05,-1.0763664249680005e-05,4.9249538278672844e-05
-3.161170388921164e-05,1.1584534149733372e-05,-9.317930562247057e-06,-4.862004971073475e-06,4.4672415242530406e-05
-3.2431275030830875e-05,1.101883299270412e-05,-8.845217962516472e-06,-6.326064521999797e-06,4.4020995119353756e-05
-2.9511575121432543e-05,1.489387886977056e-05,-1.1600121069932356e-05,-1.1515075129864272e-05,4.87136458104942e-05
-2.6315243303542957e-05,2.305543966940604e-05,-1.5203654584183823e-05,-1.9160626834491268e-05,5.4533880756935105e-05
-2.350520298932679e-05,3.240516161895357e-05,-1.583112134539988e-05,-2.9162974897189997e-05,6.103706982685253e-05
-2.1701669538742863e-05,4.162117693340406e-05,-1.4084356735111214e-05,-3.72544200217817e-05,6.742116966051981e-05
-1.9426242943154648e-05,4.8807854909682646e-05,-1.3803674846712966e-05,-3.663495954242535e-05,6.939076411072165e-05
-1.4867810023133643e-05,4.717397678177804e-05,-1.0855750588234514e-05,-2.728334402490873e-05,7.039120828267187e-05
-1.3237261555332225e-05,3.2681968150427565e-05,-7.262993221957004e-06,-1.5351575711974874e-05,7.064826786518097e-05
-1.4421787454921287e-05,1.0376677892054431e-05,-7.519416158174863e-06,-4.921021172776818e-06,6.712317554047331e-05
-1.4631825251854025e-05,-9.902341844281182e-06,-5.2930740821466316e-06,4.794542746822117e-06,6.855412357253954e-05
-1.851544584496878e-05,-1.2784480531990994e-05,-5.223664061304589e-07,1.6076481188065372e-05,7.16161957825534e-05
-2.3440574295818806e-05,3.9963442759471945e-06,1.546729890833376e-06,2.2576057745027356e-05,7.125989213818684e-05
-2.4767696231720038e-05,1.660499765421264e-05,1.6509421811861102e-06,2.1662384824594483e-05,6.626020331168547e-05
-2.525837771827355e-05,2.1504405594896525e-05,1.8741403664535028e-06,1.8533166439738125e-05,5.866845094715245e-05
-2.999890966748353e-05,2.6611462089931592e-05,5.718617103411816e-06,1.6820296877995133e-05,5.492025229614228e-05
-3.7589827115880325e-05,3.419826680328697e-05,8.040479769988451e-06,1.5265790352714248e-05,5.651751780533232e-05
-4.1721141315065324e-05,3.917253343388438e-05,4.879258540313458e-06,7.71984468883602e-06,5.9991722082486376e-05
-4.1306328057544306e-05,3.9030339394230396e-05,-7.526133458668482e-07,-1.1367305887688417e-05,6.175496673677117e-05
-3.860749347950332e-05,3.350617771502584e-05,-4.708716460299911e-06,-3.496056524454616e-05,6.165733066154644e-05
-3.641059447545558e-05,2.3981034246389754e-05,-6.551833394041751e-06,-5.131162834004499e-05,6.165600643726066e-05
-3.356855086167343e-05,1.6398322259192355e-05,-8.30952740216162e-06,-5.488673195941374e-05,6.080835373722948e-05
-3.180918065481819e-05,1.1633442227321211e-05,-9.262369530915748e-06,-4.839334360440262e-05,5.781184518127702e-05
-3.491905954433605e-05,7.564949555671774e-06,-1.0239384209853597e-05,-3.819081757683307e-05,5.6510118156438693e-05
-3.859264688799158e-05,2.7969908842351288e-06,-1.0143859981326386e-05,-2.9398719561868347e-05,5.692618287866935e-05
-3.461424421402626e-05,4.306712071411312e-06,-6.867951924505178e-06,-2.2482769054477103e-05,5.890009560971521e-05
-2.719601252465509e-05,2.1160763935768045e-05,-1.4920290141162695e-06,-1.4604903299186844e-05,5.947286626906134e-05
-2.4332544853677973e-05,5.316431270330213e-05,1.700787265690451e-06,-6.159242275316501e-06,5.8077683206647635e-05
-2.471312109264545e-05,7.622064731549472e-05,3.3032231385732302e-06,4.651611561712343e-06,5.567761400016025e-05
-2.416686766082421e-05,6.824024603702128e-05,7.925401405373123e-06,1.346997214568546e-05,5.016983413952403e-05
-2.1447796825668775e-05,4.3381060095271096e-05,1.5497460481128655e-05,1.7540556655148976e-05,4.4936667109141126e-05
-1.7667294741841033e-05,3.063335316255689e-05,1.884454832179472e-05,1.6860409232322127e-05,4.548764991341159e-05
-1.630238512007054e-05,2.9203160011093132e-05,1.5873487427597865e-05,1.5453239029739052e-05,4.9583428335608914e-05
-1.6573520042584278e-05,2.5464041755185463e-05,3.5296320675115567e-06,1.5736286513856612e-05,5.25747673236765e-05
-1.519689158158144e-05,8.521621566615067e-06,-1.9946501197409816e-05,1.3523075722332578e-05,5.1094015361741185e-05
-1.530379449832253e-05,-9.818865692068357e-06,-3.5924727853853256e-05,1.050993159878999e-05,5.145386967342347e-05
-1.9004995920113288e-05,-9.655755093262997e-06,-3.3446107408963144e-05,6.164601018099347e-06,5.1939998229499906e-05
-2.2205002096598037e-05,-4.024282588943606e-06,-1.9594292098190635e-05,-1.3958871249997173e-06,4.863214053330012e-05
-2.4400815163971856e-05,2.241921720269602e-06,-5.444662292575231e-06,-8.315909326483961e-06,4.7680681745987386e-05
-3.455965270404704e-05,9.706073797133286e-06,3.678702114484622e-06,-1.7252283214475028e-05,5.1411156164249405e-05
-4.6831872168695554e-05,1.369609799439786e-05,1.5855453966651112e-05,-2.19789599213982e-05,5.882937693968415e-05
-4.991945388610475e-05,2.0934698113705963e-05,3.1064377253642306e-05,-2.0202489395160228e-05,6.291840691119432e-05
-4.755132249556482e-05,3.7395573599496856e-05,4.5758846681565046e-05,-1.6067509932327084e-05,6.162640056572855e-05
-4.837774395127781e-05,5.3451312851393595e-05,5.7550591009203345e-05,-1.6202458937186748e-05,5.430378223536536e-05
-5.380531001719646e-05,4.86562930746004e-05,6.502723408630118e-05,-2.909589784394484e-05,4.7346704377559945e-05
-5.8110468671657145e-05,2.5077339159906842e-05,6.401146674761549e-05,-5.107813922222704e-05,4.477140464587137e-05
-5.768806659034453e-05,-4.695057668868685e-06,5.421466630650684e-05,-6.793325883336365e-05,4.548310971586034e-05
-5.524584776139818e-05,-2.589592259027995e-05,3.977447340730578e-05,-6.718796066707e-05,4.540415102383122e-05
-5.6270444474648684e-05,-3.0281056751846336e-05,2.843640868377406e-05,-5.484476059791632e-05,4.3382711737649515e-05
-5.8839905250351876e-05,-1.6663409041939303e-05,2.290690281370189e-05,-4.1741928725969046e-05,4.209542021271773e-05
-5.7798955822363496e-05,8.435149538854603e-06,2.0530012989183888e-05,-2.8943230063305236e-05,4.3684165575541556e-05
-5.209974551689811e-05,3.16953519359231e-05,1.8836475646821782e-05,-9.594245966582093e-06,4.7479486966039985e-05
-4.642989733838476e-05,4.744778561871499e-05,1.529528344690334e-05,1.5694382454967126e-05,5.160876389709301e-05
-4.159419040661305e-05,6.080290040699765e-05,8.99353290151339e-06,3.6996098060626537e-05,5.5216634791577235e-05
-3.3492800866952166e-05,7.1948095865082e-05,2.858530251614866e-06,4.582915789796971e-05,5.7195724366465583e-05
-2.3618464183527976e-05,5.915670044487342e-05,4.700296358350897e-06,4.348745278548449e-05,5.978666013106704e-05
-1.3530029718822334e-05,1.210248410643544e-05,1.0368729817855638e-05,4.0080409235088155e-05,6.274296174524352e-05
-6.633189286731067e-07,-2.727236642385833e-05,1.26309460029006e-05,4.4069030991522595e-05,6.904181645950302e-05
1.28633819258539e-05,-1.1873953553731553e-05,1.2906147276225965e-05,4.7656878450652584e-05,7.48073507566005e-05
2.189542465202976e-05,4.2188938095932826e-05,1.3002037121623289e-05,3.8794609281467274e-05,7.595702481921762e-05
2.0510342437773943e-05,7.668824400752783e-05,9.422487892152276e-06,2.3479375158785842e-05,7.266370812430978e-05
9.156236956187058e-06,7.015801384113729e-05,6.177957857289584e-06,1.4752659808436874e-05,6.832188228145242e-05
2.9765963063255185e-06,4.499572969507426e-05,4.5413762563839555e-06,1.1127688594569918e-05,6.550071702804416e-05
3.7679067190765636e-06,1.6305213648593053e-05,4.277589596313192e-06,4.962735147273634e-06,6.333057535812259e-05
2.713313449476118e-07,6.119312729424564e-06,5.966569005977362e-06,-9.44889620768663e-07,6.459654832724482e-05
-6.624976776947733e-06,2.3721488105366006e-05,6.0177362684044056e-06,-5.631750809698133e-06,6.853813829366118e-05
-9.216532816935796e-06,5.515789598575793e-05,4.139079464948736e-06,-1.4003257092554122e-05,7.17563452781178e-05
-5.696395419363398e-06,7.62837371439673e-05,3.681395810417598e-06,-1.859514850366395e-05,7.416374137392268e-05
-8.546555250177335e-07,7.677594112465158e-05,3.279935299360659e-06,-1.8567256120149978e-05,7.578097574878484e-05
2.8084648420190206e-06,6.384462176356465e-05,1.7589708249943214e-06,-2.1787705918541178e-05,7.541184459114447e-05
2.5185054255416617e-06,5.354757377062924e-05,-5.659225053022965e-07,-2.5132498194579966e-05,7.248899055412039e-05
-1.815423615880718e-06,5.293409776641056e-05,-3.7267848256306024e-06,-2.381062768108677e-05,7.094245665939525e-05
-9.8932196124224e-06,5.657111250911839e-05,-7.105541499186074e-06,-1.903945485537406e-05,7.140301750041544e-05
-1.9793289538938552e-05,5.565618630498648e-05,-8.752424946578685e-06,-1.5923333194223233e-05,6.970211688894778e-05
-2.841820241883397e-05,4.595336577040143e-05,-7.958933565532789e-06,-1.757932477630675e-05,6.604728696402162e-05
-3.339016257086769e-05,3.728179581230506e-05,-6.670498351013521e-06,-2.1713753085350618e-05,6.268269498832524e-05
-3.658009154605679e-05,3.90000750485342e-05,-5.002402303944109e-06,-2.4447697796858847e-05,6.317412771750242e-05
-4.148801599512808e-05,4.9913815018953755e-05,-3.4474103358661523e-06,-2.3277772925212048e-05,6.758671952411532e-05
-4.3706731958081946e-05,5.8098783483728766e-05,-3.380944008313236e-06,-1.971802703337744e-05,6.815285451011732e-05
-4.102060484001413e-05,5.962183422525413e-05,-3.6563533285516314e-06,-1.6657464584568515e-05,6.253337051020935e-05
-3.755025682039559e-05,5.9772428357973695e-05,-2.725809963521897e-06,-1.6223171769524924e-05,5.88082148169633e-05
-3.566319719539024e-05,6.252493767533451e-05,-8.222839369409485e-07,-1.9478182366583496e-05,6.0584949096664786e-05
-3.3265063393628225e-05,6.06555950071197e-05,5.795308766209928e-07,-2.063558167719748e-05,6.428988126572222e-05
-3.269981607445516e-05,5.643219265039079e-05,-1.3383014163537155e-07,-1.8844968508346938e-05,6.539605237776414e-05
-3.4009499358944595e-05,5.936807792750187e-05,-1.1875226846314035e-06,-1.7068026863853447e-05,6.106717773946002e-05
-3.4910899557871744e-05,6.770539766876027e-05,-3.224885858799098e-06,-1.5871639334363863e-05,5.5442833399865776e-05
-3.323732744320296e-05,7.47175799915567e-05,-6.371735253196675e-06,-1.9343640815350227e-05,5.578139462159015e-05
-3.635834582382813e-05,7.529123831773177e-05,-6.381514594977489e-06,-2.519659756217152e-05,5.7545174058759585e-05
-4.2617699364200234e-05,6.33013914921321e-05,2.728242236571532e-07,-2.721555756579619e-05,5.6141099776141346e-05
-4.3212290620431304e-05,4.8021127440733835e-05,5.78050094190985e-06,-2.413323636574205e-05,5.6818313169060275e-05
-3.803015351877548e-05,3.835020470432937e-05,7.942751835798845e-06,-2.6284857085556723e-05,5.964138836134225e-05
-2.668941488082055e-05,2.9543909477069974e-05,6.046838279871736e-06,-4.869998883805238e-05,6.02449981670361e-05
-1.6631189282634296e-05,2.0585272068274207e-05,1.1286510925856419e-06,-7.948307757033035e-05,5.702861744794063e-05
-1.0790953638206702e-05,1.149456511484459e-05,-4.8021520342445e-06,-9.484060865361243e-05,5.3956788178766146e-05
-7.676988388993777e-06,-3.3323892694170354e-06,-1.1607811757130548e-05,-8.929954492487013e-05,5.204015542403795e-05
-5.303160378389293e-06,-3.459730214672163e-05,-1.345955297438195e-05,-7.137186912586913e-05,4.91011087433435e-05
-4.891670414508553e-06,-7.09801897755824e-05,-1.1409039871068671e-05,-4.934911339660175e-05,4.470773637876846e-05
-8.711279406270478e-06,-8.645599882584065e-05,-6.837174623797182e-06,-1.9831009922199883e-05,4.4175456423545256e-05
-1.6822421457618475e-05,-7.671693310840055e-05,-4.862852620135527e-06,1.9421877368586138e-05,4.9342455895384774e-05
-2.6531284675002098e-05,-6.005305112921633e-05,-3.851020665024407e-06,5.2101517212577164e-05,5.231592876953073e-05
-3.590182677726261e-05,-4.795324639417231e-05,1.6460181768707116e-06,5.711362246074714e-05,5.1323680963832885e-05
-3.944688069168478e-05,-3.1078638130566105e-05,1.4293805179477204e-05,3.1570467399433255e-05,5.0672450015554205e-05
-3.432962694205344e-05,-4.3152358557563275e-06,3.219429709133692e-05,3.0428170703089563e-06,5.233302726992406e-05
-2.757554830168374e-05,2.124224010913167e-05,5.0290487706661224e-05,1.4672435781903914e-06,5.319395859260112e-05
-2.5418959921807982e-05,3.679188012029044e-05,6.164106889627874e-05,2.074830626952462e-05,5.554224117076956e-05
-2.6909450753009878e-05,4.60872397525236e-05,6.083500193199143e-05,3.010073851328343e-05,5.754255107603967e-05
-2.6413188606966287e-05,5.371463703340851e-05,4.9342728743795305e-05,1.7658549040788785e-05,5.4353047744371e-05
-2.6329744287068024e-05,6.116312579251826e-05,3.0586885259253904e-05,3.888281128183735e-07,4.8533333028899506e-05
-2.8942145945620723e-05,6.343848508549854e-05,1.229028475790983e-05,-4.699069904745556e-06,4.472669024835341e-05
-3.43328392773401e-05,5.123921437188983e-05,1.8445230125507805e-06,1.130019086303946e-06,4.227699537295848e-05
-4.0352293581236154e-05,2.7388990929466672e-05,-6.588830387954658e-07,6.098222002037801e-06,4.1701674490468577e-05
-4.065579196321778e-05,8.8018332462525e-06,2.113282789650839e-06,3.3446006000303896e-06,4.4599790271604434e-05
-3.383660441613756e-05,9.830545423028525e-06,6.467494586104294e-06,-4.494960194278974e-06,4.845108924200758e-05
-2.4671820938237943e-05,2.9964450732222758e-05,7.946035111672245e-06,-8.014341801754199e-06,5.2033043175470084e-05
-1.6879897884791717e-05,5.568607957684435e-05,8.46096736495383e-06,-2.4807270619930932e-06,5.514611257240176e-05
-1.493188574386295e-05,7.265301246661693e-05,9.486174349149223e-06,5.896367838431615e-06,5.5029573559295386e-05
-1.5254932804964483e-05,7.010598346823826e-05,1.2430266906449106e-05,9.000942554848734e-06,5.058047463535331e-05
-1.4449451555265114e-05,5.240931932348758e-05,1.5587494999635965e-05,1.0083414053951856e-05,4.812249244423583e-05
-1.5236404578899965e-05,3.8529393350472674e-05,1.5030575923447032e-05,1.364289619232295e-05,4.906971662421711e-05
-1.8686545445234515e-05,2.6764850190375e-05,9.47689750319114e-06,1.5888195775914937e-05,5.139620043337345e-05
-2.4090193619485945e-05,1.5678859199397266e-05,4.269475539331324e-06,1.4887983525113668e-05,5.5918753787409514e-05
-2.835423219949007e-05,1.1090475709352177e-05,2.2272613477980485e-06,1.1679378076223657e-05,6.125396612333134e-05
-3.242347156628966e-05,1.338915535598062e-05,3.958695742767304e-06,5.111260179546662e-06,6.373153883032501e-05
-3.464784094830975e-05,1.9804587282123975e-05,6.798310096201021e-06,-2.163221552109462e-06,6.571981793968007e-05
-3.522430779412389e-05,2.604085238999687e-05,6.939154900464928e-06,-6.885365110065322e-06,6.846254109404981e-05
-3.7292888009687886e-05,2.757053152890876e-05,3.2833586374181323e-06,-8.630003321741242e-06,6.983742059674114e-05
-3.656758417491801e-05,2.5347548216814175e-05,-2.6880045425059507e-06,-1.0901406312768813e-05,6.882446905365214e-05
-2.877518090826925e-05,2.412748108326923e-05,-7.595152965222951e-06,-1.5416249880217947e-05,6.582579226233065e-05
-1.981456262001302e-05,2.4155811843229458e-05,-1.022821288643172e-05,-1.7886710338643752e-05,6.459353608079255e-05
-1.951970079971943e-05,2.4961847884696908e-05,-9.170297744276468e-06,-1.747790156514384e-05,6.4406733145006e-05
-2.675620635272935e-05,2.4087135898298584e-05,-7.285889296326786e-06,-1.7465014025219716e-05,6.272947211982682e-05
-3.367579847690649e-05,2.3432647139998153e-05,-8.798113412922248e-06,-2.2574693502974696e-05,6.144536018837243e-05
-3.682844544528052e-05,2.388240500295069e-05,-1.2222366422065534e-05,-3.178065890097059e-05,6.216428300831467e-05
-3.5058867069892585e-05,2.7143434635945596e-05,-1.2919837899971753e-05,-3.7627869460266083e-05,6.397533434210345e-05
-3.161130007356405e-05,3.2666695915395394e-05,-1.1105644261988346e-05,-3.42767198162619e-05,6.464310718001798e-05
-3.067223588004708e-05,3.641023067757487e-05,-8.223813892982434e-06,-2.481438968970906e-05,6.369746552081779e-05
-2.9062848625471815e-05,3.4612268791534007e-05,-5.658414011122659e-06,-1.5603520296281204e-05,6.184966332511976e-05
-2.6839126803679392e-05,3.077738074352965e-05,-3.902252501575276e-06,-7.251692295540124e-06,6.047305214451626e-05
-2.52691243076697e-05,3.087756340391934e-05,-6.153465164970839e-06,3.0357339255715488e-06,6.168588879518211e-05
-2.3931530449772254e-05,3.293235567980446e-05,-9.330063221568707e-06,8.291195626952685e-06,6.0795453464379534e-05
-2.281283013871871e-05,3.944788113585673e-05,-6.713409220537869e-06,-2.025068170041777e-06,5.734303704230115e-05
-2.315884739800822e-05,4.97228502354119e-05,-4.220817572786473e-06,-1.759378756105434e-05,5.526979293790646e-05
-2.7226642487221397e-05,5.8082212490262464e-05,-7.929418643470854e-06,-2.8972053769393824e-05,5.401426096796058e-05
-2.8896418371004984e-05,6.123728235252202e-05,-1.1828940841951407e-05,-3.534170173224993e-05,5.738828986068256e-05
-2.7729109206120484e-05,5.9842841437784955e-05,-1.269905078515876e-05,-3.612145155784674e-05,5.9047131799161434e-05
-2.6184008675045334e-05,5.28708660567645e-05,-1.4032553735887632e-05,-3.0439570764428936e-05,5.742261782870628e-05
-2.4765535272308625e-05,3.7628818972734734e-05,-1.7525397197459824e-05,-1.9710585547727533e-05,5.459909516503103e-05
-2.3552107450086623e-05,2.4770419258857146e-05,-1.7732718333718367e-05,-9.434689673071261e-06,5.08306038682349e-05
-2.664889871084597e-05,1.5748773876111954e-05,-1.282934499613475e-05,2.2017923129169503e-06,5.2060298912692815e-05
-3.235368785681203e-05,1.2321177564444952e-05,-6.669323738606181e-06,1.5818039173609577e-05,5.5720422096783295e-05
-3.384203591849655e-05,1.3094031601212919e-05,9.139046142081497e-07,2.8144862881163135e-05,5.842141035827808e-05
-3.1660409149480984e-05,1.1353176887496375e-05,9.372934073326178e-06,2.9253649699967355e-05,5.845037230756134e-05
-2.735089583438821e-05,6.16018041910138e-06,1.6501486243214458e-05,2.209764534200076e-05,5.901841723243706e-05
-2.5212573746102862e-05,-5.070455245004268e-06,1.8469836504664272e-05,1.6407775547122583e-05,5.99120685365051e-05
-2.3527289158664644e-05,-1.3625812243844848e-05,1.2654729289351963e-05,1.3923457117925864e-05,5.9642901760526e-05
-2.1428559193736874e-05,-8.535275810572784e-06,1.6772405615483876e-06,1.1357662515365519e-05,5.695575237041339e-05
-2.1445313905132934e-05,8.082013664534315e-06,-6.616468454012647e-06,6.263449904508889e-06,5.169145515537821e-05
-2.4316046619787812e-05,2.0479010345297866e-05,-9.32150305743562e-06,4.579394783377211e-07,4.7196645027725026e-05
-2.8548878617584705e-05,2.2499531041830778e-05,-9.834820048126858e-06,-3.1408546874445165e-06,4.691427238867618e-05
-3.229106368962675e-05,1.9790613805525936e-05,-8.476880793750752e-06,-2.588601546449354e-06,4.762424941873178e-05
-3.23674212268088e-05,2.1028523406130262e-05,-2.586653863545507e-06,-4.7386333790200297e-07,4.7284986067097634e-05
-2.8387501515680924e-05,2.594630313978996e-05,6.252866114664357e-06,2.1025387013651198e-06,4.6789526095381007e-05
-2.4527687855879776e-05,3.071424362133257e-05,1.3838342965755146e-05,4.68636517325649e-06,4.523334791883826e-05
-2.147737359337043e-05,3.769271643250249e-05,1.756450546963606e-05,6.328411927825073e-06,4.61645468021743e-05
-1.9331950170453638e-05,4.756689668283798e-05,1.7050200767698698e-05,4.392489699966973e-06,4.8826845159055665e-05
-2.0510749891400337e-05,5.759777923231013e-05,1.595559297129512e-05,1.2271495961613255e-06,4.900751810055226e-05
-2.651727663760539e-05,6.716573989251629e-05,1.6971374861896038e-05,-3.0672838420287007e-06,4.795055428985506e-05
-3.2439656934002414e-05,8.124396845232695e-05,1.733376302581746e-05,-7.301769983314443e-06,5.056492955191061e-05
-3.3921784051926807e-05,9.743611008161679e-05,1.8187101886724122e-05,-9.018570381158497e-06,5.3911280701868236e-05
-3.3886346500366926e-05,0.00010145986016141251,2.6449151846463792e-05,-8.52684024721384e-06,5.445584611152299e-05
-3.558587923180312e-05,8.630326919956133e-05,3.093142731813714e-05,-1.5745354176033288e-05,5.6806016800692305e-05
-3.399670822545886e-05,4.923955202684738e-05,2.586635855550412e-05,-3.585127342375927e-05,6.28543712082319e-05
-2.7432863134890795e-05,-1.136431183113018e-05,2.0383393348311074e-05,-5.2583513024728745e-05,6.742023106198758e-05
-2.124519960489124e-05,-7.255263335537165e-05,1.8017948605120182e-05,-6.25052853138186e-05,6.852736987639219e-05
-2.0467774447752163e-05,-8.644862100481987e-05,1.578142837388441e-05,-6.716825009789318e-05,6.512075924547389e-05
-2.5487726816209033e-05,-4.685205203713849e-05,1.0862249837373383e-05,-5.8984784118365496e-05,6.105391366872936e-05
-2.9444639949360862e-05,2.4843925530149136e-06,8.093526048469357e-06,-4.318335049902089e-05,6.093663614592515e-05
-2.8588636268978007e-05,3.1951141863828525e-05,7.88677698437823e-06,-2.6312873160350136e-05,6.474067777162418e-05
-2.2604919649893418e-05,4.166375583736226e-05,8.158679520420264e-06,-1.1375983376638032e-05,6.812330684624612e-05
-1.6278976545436308e-05,4.445673766895197e-05,7.742461093585007e-06,2.2150962308842281e-07,6.621221837121993e-05
-1.0506708349566907e-05,4.751693631988019e-05,8.374813660338987e-06,8.23598475108156e-06,6.321876571746543e-05
-5.869917913514655e-06,5.263185084913857e-05,7.155244475143263e-06,1.0725814718171023e-05,6.181868229759857e-05
-5.023771336709615e-06,5.880839307792485e-05,8.811702173261438e-06,1.0434744581289124e-05,6.212112930370495e-05
-6.741560355294496e-06,6.235916953301057e-05,1.5020123100839555e-05,1.1900896424776874e-05,6.316900544334203e-05
-9.183825568470638e-06,5.7065604778472334e-05,2.1223318981355987e-05,1.2278320355108008e-05,6.279200897552073e-05
-1.1964942132181022e-05,4.473841545404866e-05,2.221828981419094e-05,6.158204541861778e-06,6.322482659015805e-05
-1.5861754945944995e-05,3.4747656172839925e-05,1.5963705664034933e-05,-2.6693439849623246e-06,6.504800694528967e-05
-1.9949413399444893e-05,3.4037595469271764e-05,6.1514342633017804e-06,-1.0031740202975925e-05,6.807372847106308e-05
-2.742145261436235e-05,3.813297735177912e-05,-1.3703781860385789e-06,-1.4739479411218781e-05,7.124357944121584e-05
-3.4982713259523734e-05,4.040902786073275e-05,-5.696656444342807e-07,-1.4380158063431736e-05,7.264680607477203e-05
-3.7408397474791855e-05,3.67761094821617e-05,3.22302207678149e-06,-9.791961929295212e-06,7.112482853699476e-05
-3.614206434576772e-05,2.9393302611424588e-05,4.450610504136421e-06,-7.799469130986836e-06,6.581631168955937e-05
-3.2974417990772054e-05,2.4365233912249096e-05,1.338974016107386e-06,-1.2147221241320949e-05,6.151941488496959e-05
-2.8968033802811988e-05,2.231299367849715e-05,-1.3325192185220658e-06,-1.8398503016214818e-05,6.141691847005859e-05
-2.4825771106407046e-05,2.5677067242213525e-05,-1.2389468793116976e-06,-2.0923114789184183e-05,6.218503403943032e-05
-2.3610913558513857e-05,3.160399501211941e-05,4.536637163710111e-07,-1.8534017726778984e-05,6.32784649496898e-05
-2.4595297873020172e-05,3.501379251247272e-05,5.437924301077146e-06,-1.3477038010023534e-05,6.474263500422239e-05
-2.5818158974288963e-05,3.378243854967877e-05,9.055359441845212e-06,-1.0550653314567171e-05,6.620955537073314e-05
-2.6160669222008437e-05,3.072472827625461e-05,9.752000551088713e-06,-9.320300705439877e-06,6.476743874372914e-05
-2.5874081984511577e-05,3.1860894523561e-05,1.1546743735380005e-05,-9.710293852549512e-06,6.271994061535224e-05
-2.5664254280854948e-05,3.529928289935924e-05,1.3937306903244462e-05,-1.4178268429532181e-05,6.198837218107656e-05
-2.305620364495553e-05,3.599504634621553e-05,1.4797852600167971e-05,-1.8533552065491676e-05,5.952794526820071e-05
-2.2042599084670655e-05,3.269279477535747e-05,1.1738141438399907e-05,-1.773903932189569e-05,6.024495087331161e-05
-2.094637238769792e-05,3.210287832189351e-05,8.789800631348044e-06,-1.4867601748846937e-05,6.33904492133297e-05
-2.121677971445024e-05,3.0887651519151405e-05,6.792474323447095e-06,-1.4135613128019031e-05,6.5739375713747e-05
-2.4632834538351744e-05,2.564147871453315e-05,6.028019924997352e-06,-1.4837149137747474e-05,6.646518158959225e-05
-2.87208295048913e-05,2.7879556000698358e-05,2.9564746455434943e-06,-1.8942528186016716e-05,6.72193564241752e-05
-3.131358971586451e-05,4.092210656381212e-05,-3.000328433699906e-06,-2.736436545092147e-05,6.507556099677458e-05
-3.10280556732323e-05,5.439143205876462e-05,-6.700686299154768e-06,-3.9644470234634355e-05,6.064103581593372e-05
-3.012560773640871e-05,6.342860433505848e-05,-5.276721822156105e-06,-5.523324216483161e-05,5.845484702149406e-05
-2.8708747777272947e-05,7.657821697648615e-05,-3.297438070148928e-06,-6.763825513189659e-05,5.850268280482851e-05
-2.500131813576445e-05,9.352659253636375e-05,-4.96913025926915e-06,-7.176173676270992e-05,5.8663830714067444e-05
-2.0853163732681423e-05,0.00010185730207012966,-8.35580431157723e-06,-7.566147542092949e-05,5.8491066738497466e-05
-2.215815220552031e-05,9.529391536489129e-05,-1.1560086022655014e-05,-8.743842045078054e-05,5.941276322118938e-05
-2.756553476501722e-05,7.693366933381185e-05,-1.2425868590071332e-05,-0.00010187181760556996,5.987347321934067e-05
-3.0536197300534695e-05,5.574765964411199e-05,-1.2447699191397987e-05,-0.00010740403376985341,5.629401857731864e-05
-2.677389420568943e-05,3.528450906742364e-05,-1.481666822655825e-05,-9.792474884307012e-05,5.061789124738425e-05
-1.789350062608719e-05,8.001528840395622e-06,-1.7206779375555925e-05,-7.51049883547239e-05,5.26657750015147e-05
-6.050373031030176e-06,-2.555243372626137e-05,-1.1587122571654618e-05,-4.95912681799382e-05,6.006851253914647e-05
2.2806159449828556e-06,-6.090093665989116e-05,-4.012053977930918e-06,-2.9304399504326284e-05,6.231078441487625e-05
-2.3370309918391285e-06,-8.546932076569647e-05,-6.422676051442977e-06,-7.2792113314790186e-06,5.781800427939743e-05
-1.7747532183420844e-05,-8.668567897984758e-05,-1.8455673853168264e-05,1.934414467541501e-05,5.1791328587569296e-05
-2.9371693017310463e-05,-6.938738079043105e-05,-2.5321227440144867e-05,4.140826058574021e-05,5.068211612524465e-05
-3.088012817897834e-05,-3.800026388489641e-05,-1.8748720322037116e-05,5.2868766942992806e-05,5.4762971558375284e-05
-2.8060076147085056e-05,-8.508335668011568e-06,-2.869865284083062e-06,6.763209967175499e-05,5.613426765194163e-05
-2.8319002012722194e-05,1.547286956338212e-05,1.677702493907418e-05,8.604490722063929e-05,5.277169475448318e-05
-3.60760313924402e-05,4.19906027673278e-05,3.0836024961899966e-05,8.887116564437747e-05,4.915215686196461e-05
-4.7364766942337155e-05,5.918086753808893e-05,3.662573726614937e-05,7.702758739469573e-05,5.08398879901506e-05
-4.71782659587916e-05,6.240280345082283e-05,4.194862049189396e-05,6.873946404084563e-05,5.876877185073681e-05
-3.392846338101663e-05,4.775114939548075e-05,4.731096123578027e-05,7.007017120486125e-05,6.681362719973549e-05
-1.8291993910679594e-05,8.405042535741813e-06,4.681624341174029e-05,6.550808029714972e-05,6.974751886446029e-05
-1.1517774510139134e-05,-3.737406223081052e-05,4.423130303621292e-05,4.5620359742315486e-05,6.73317990731448e-05
-1.5896435797913e-05,-5.2858322305837646e-05,4.2967563786078244e-05,1.971875099116005e-05,6.373264477588236e-05
-2.5719225959619507e-05,-4.206423545838334e-05,3.855884278891608e-05,1.5869312619543052e-06,6.465034675784409e-05
-3.4850967495003715e-05,-3.348678001202643e-05,3.0253610020736232e-05,-7.729270691925194e-06,6.616461905650795e-05
-3.272905814810656e-05,-3.53082396031823e-05,2.1890629795962013e-05,-1.1662751603580546e-05,6.8331413785927e-05
-2.098494405800011e-05,-3.960208050557412e-05,1.7918213416123763e-05,-1.5189272744464688e-05,7.475701568182558e-05
-1.4514020222122781e-05,-3.9759128412697464e-05,1.5429792256327346e-05,-2.053329262707848e-05,7.821393228368834e-05
-2.172005952161271e-05,-3.1672265322413296e-05,1.0627363735693507e-05,-2.632021096360404e-05,7.374760753009468e-05
-3.377124812686816e-05,-1.3855416000296827e-05,4.375044227344915e-06,-2.986245453939773e-05,6.666537228738889e-05
-4.231408456689678e-05,8.67975722940173e-06,1.3947496313448937e-07,-2.9888153221691027e-05,6.197442417033017e-05
-4.951445589540526e-05,2.9271137464093044e-05,-6.304622388597636e-07,-2.8465681680245325e-05,5.912069900659844e-05
-6.062238026061095e-05,4.485045064939186e-05,2.745066396414586e-08,-2.786976438073907e-05,5.5083652114262804e-05
-6.951457180548459e-05,5.366741243051365e-05,1.2775828963640379e-06,-2.8475884391809814e-05,5.07265685882885e-05
-6.749456952093169e-05,5.228440204518847e-05,2.958814775411156e-06,-2.7799980671261437e-05,4.941282531945035e-05
-5.816911652800627e-05,4.8377947678091004e-05,4.3728364289563615e-06,-2.0948089513694867e-05,4.9291578761767596e-05
-4.6008117351448163e-05,4.8547244659857824e-05,5.04826402902836e-06,-7.99539793661097e-06,4.9565391236683354e-05
-3.225214095436968e-05,5.0009697588393465e-05,5.15914189236355e-06,1.2832288120989688e-06,5.079694528831169e-05
-2.1110556190251373e-05,4.834563878830522e-05,6.347977887344314e-06,1.0408131856820546e-05,5.3750092774862424e-05
-1.5262556189554743e-05,4.3343909055693075e-05,8.281504960905295e-06,2.2876529328641482e-05,5.711230187444016e-05
-1.6115263861138374e-05,4.145854472881183e-05,9.342659723188262e-06,2.6950821848004125e-05,5.76501406612806e-05
-2.3650589355384e-05,4.5146145566832274e-05,4.7530129450024106e-06,1.3437501365842763e-05,5.858344957232475e-05
-3.165347152389586e-05,4.987526699551381e-05,-1.519958459539339e-06,-1.2158408935647458e-05,6.528632366098464e-05
-3.4563236113172024e-05,5.386520206229761e-05,-6.866011972306296e-06,-3.87441941711586e-05,7.076577458065003e-05
-3.176188329234719e-05,5.6824566854629666e-05,-1.1914487913600169e-05,-5.531894203159027e-05,7.01012322679162e-05
-2.549177224864252e-05,6.366845627781004e-05,-1.0630545148160309e-05,-5.174495163373649e-05,6.69347500661388e-05
-2.0970706827938557e-05,6.453463720390573e-05,-6.667400157311931e-06,-3.6637742596212775e-05,6.472027598647401e-05
-1.971736128325574e-05,5.7748922699829563e-05,-5.19591822012444e-07,-1.9222041373723187e-05,6.044457040843554e-05
-2.0273788322811015e-05,5.288750980980694e-05,3.6471815292316023e-06,4.5276271976035787e-07,5.511727795237675e-05
-1.778517798811663e-05,5.532633076654747e-05,2.587172957646544e-06,1.1806274414993823e-05,5.261907426756807e-05
-1.724691901472397e-05,6.135865987744182e-05,-2.7141929876961512e-06,1.3710998246097006e-05,5.215595956542529e-05
-2.3605243768543005e-05,6.1029495554976165e-05,-5.790305294794962e-06,1.4093815480009653e-05,5.209010123508051e-05
-2.9877901397412643e-05,5.2615738241001964e-05,-1.9572078144847183e-06,1.6732916265027598e-05,5.1473551138769835e-05
-3.0960629374021664e-05,4.453858491615392e-05,5.53881591258687e-06,2.025020876317285e-05,5.141724250279367e-05
-2.66703063971363e-05,4.743491081171669e-05,1.1873287803609855e-05,2.176372981921304e-05,5.131353827891871e-05
-2.1768792066723108e-05,6.330550968414173e-05,1.3204728020355105e-05,1.7695279893814586e-05,5.1913983043050393e-05
-2.005613896471914e-05,7.80618647695519e-05,1.0284264135407284e-05,9.521237188891973e-06,5.263447019387968e-05
-2.4181577828130685e-05,7.293315138667822e-05,7.28463419363834e-06,1.1291468808849459e-06,5.244530620984733e-05
-3.02199405268766e-05,4.902514410787262e-05,5.689755653293105e-06,-6.352409400278702e-06,5.1980827265651897e-05
-3.320417454233393e-05,1.6759553545853123e-05,2.5791437110456172e-06,-1.15578213808476e-05,5.179933941690251e-05
-3.305530481156893e-05,-1.5766443539178e-05,-1.2072255231032614e-06,-1.54528024722822e-05,4.8499558033654466e-05
-2.9930870368843898e-05,-4.074025491718203e-05,-2.829049208230572e-06,-1.616248846403323e-05,4.4397580495569855e-05
-2.5924646251951344e-05,-5.232926196185872e-05,-1.5241654409692273e-06,-1.5120094758458436e-05,4.4835309381596744e-05
-2.7495920221554115e-05,-5.287835301714949e-05,-4.156079569384019e-07,-1.874438748927787e-05,4.995156268705614e-05
-3.2161668059416115e-05,-4.591662946040742e-05,-2.9807532087033906e-07,-2.7142854378325865e-05,5.363508535083383e-05
-3.726974318851717e-05,-3.490037124720402e-05,-7.349366910602839e-07,-3.7971225538058206e-05,5.529471309273504e-05
-4.349885421106592e-05,-2.3700193196418695e-05,-1.2414928960424731e-06,-4.788460864801891e-05,5.827500353916548e-05
-4.0932533011073247e-05,-3.1314131774706766e-05,-2.289138365085819e-06,-4.470743078854866e-05,5.939340189797804e-05
-3.110343459411524e-05,-5.532472277991474e-05,-3.2328528050129535e-06,-2.5321149223600514e-05,5.9712936490541324e-05
-2.5014998755068518e-05,-4.8337667976738885e-05,-6.081992978579365e-06,-2.78284574051213e-06,5.818546560476534e-05
-2.3144215447246097e-05,2.0440345906536095e-05,-1.2875570973847061e-05,6.921735348441871e-06,5.6997454521479085e-05
-1.8628312318469398e-05,0.00012379670806694776,-1.930781036207918e-05,3.675937023217557e-06,5.989394776406698e-05
-6.58416684018448e-06,0.0002026064321398735,-2.1054620447102934e-05,1.397202851194379e-07,6.329412281047553e-05
6.871224741189508e-06,0.00022126272961031646,-1.6411866454291157e-05,-2.032433030763059e-06,6.37550328974612e-05
1.3221300832810812e-05,0.00019454974972177297,-7.530335551564349e-06,-1.049715319823008e-05,6.120745820226148e-05
9.918534487951547e-06,0.00015050711226649582,-1.3379658980738895e-07,-3.221766382921487e-05,6.061128806322813e-05
2.443320227030199e-06,0.0001036602770909667,5.729893473471748e-06,-5.742304347222671e-05,6.216921610757709e-05
-4.064622316946043e-06,5.4226984502747655e-05,1.1585211723286193e-05,-5.6548582506366074e-05,6.092856710893102e-05
-2.614074219309259e-06,1.462924228690099e-05,1.7222964743268676e-05,-2.593295903352555e-05,5.749958290834911e-05
2.0399857021402568e-06,5.8570190049067605e-06,2.0471719835768454e-05,5.512842562893638e-06,5.523627623915672e-05
1.0388207556388807e-06,2.4201308406190947e-05,2.3060370949679054e-05,1.4082647794566583e-05,5.680747563019395e-05
-2.3882309960754355e-06,4.7307214117608964e-05,2.7033827791456133e-05,5.652898835251108e-06,6.007800766383298e-05
-5.694484570994973e-06,5.966002936474979e-05,2.9143362553440966e-05,-2.881610271288082e-06,6.237584602786228e-05
-1.0262935575156007e-05,6.30722934147343e-05,2.762604708550498e-05,-5.7068959904427174e-06,6.541641778312624e-05
-1.2615656487469096e-05,6.570123514393345e-05,2.3344793589785695e-05,-4.8482638703717384e-06,6.638339255005121e-05
-7.339530839090003e-06,7.047869439702481e-05,1.941714435815811e-05,-2.201286406489089e-06,6.391252827597782e-05
8.26873531423189e-07,6.128720997367054e-05,1.4382844710780773e-05,2.7366812105356075e-07,6.261486851144582e-05
3.981185727752745e-06,2.5581086447346024e-05,7.128616289264755e-06,-9.575311423759558e-07,6.192877481225878e-05
-2.549418468333897e-06,-1.0734938769019209e-05,2.606719363029697e-06,-7.0713235800212715e-06,5.937716196058318e-05
-1.642808820179198e-05,-1.181692277896218e-05,8.330915761689539e-07,-1.631847771932371e-05,5.691531623597257e-05
-3.057424692087807e-05,1.3601897080661729e-05,-1.2864157952208188e-06,-2.501791823306121e-05,5.443575355457142e-05
-3.959141395171173e-05,3.247303902753629e-05,-1.2339871773292543e-06,-2.576838232926093e-05,4.748263017972931e-05
-4.516146509558894e-05,3.53310679201968e-05,1.4576126261545141e-07,-1.458921906305477e-05,4.100289515918121e-05
-4.5771008444717154e-05,3.2362564525101334e-05,-1.2929277204420941e-07,-5.262081685941666e-06,4.433905633050017e-05
-4.411578629515134e-05,3.0350252927746624e-05,1.7903953448694665e-06,-1.966677473319578e-06,5.2715920901391655e-05
-4.524604810285382e-05,2.6834461095859297e-05,4.476638878259109e-06,-2.8204740374349058e-06,5.780328137916513e-05
-4.8857316869543865e-05,2.1477961126947775e-05,-5.79824813939922e-07,-4.80714334116783e-06,5.76105885556899e-05
-4.745995829580352e-05,2.578933708718978e-05,-7.792418728058692e-06,-4.363497794201976e-07,5.880348908249289e-05
-4.0648243157193065e-05,3.604989615269005e-05,-1.0298462257196661e-05,3.963844392274041e-06,6.167970423121005e-05
-3.65283849532716e-05,3.931233732146211e-05,-7.972085768415127e-06,3.555211378625245e-06,6.32373703410849e-05
-3.460941297817044e-05,3.389696576050483e-05,-5.087144018034451e-06,-4.708761935035e-06,6.371452764142305e-05
-3.3975524274865165e-05,3.15084689646028e-05,3.27404677591403e-07,-1.6662008420098573e-05,6.201909855008125e-05
-3.7398978747660294e-05,2.7459360353532247e-05,7.251996066770516e-06,-2.5251594706787728e-05,5.8218472986482084e-05
-4.054923920193687e-05,1.180619074148126e-05,7.619576990691712e-06,-3.015199581568595e-05,5.428436634247191e-05
-4.0520375478081405e-05,-1.1045902283512987e-05,2.1715245566156227e-06,-3.094794010394253e-05,5.457154838950373e-05
-4.013702709926292e-05,-3.015599759237375e-05,-3.360624077686225e-06,-3.0780698580201715e-05,5.6712739024078473e-05
-4.089992944500409e-05,-4.144944250583649e-05,-3.845889750664355e-06,-3.112930789939128e-05,5.797861376777291e-05
-3.9874012145446613e-05,-5.632792453980073e-05,-1.6972202274700976e-06,-3.3429019822506234e-05,5.516460441867821e-05
-3.675588595797308e-05,-7.065848330967128e-05,1.6325209344358882e-06,-3.5330976970726624e-05,4.960734804626554e-05
-3.576036760932766e-05,-6.426469190046191e-05,6.55870735499775e-06,-3.4217184293083847e-05,4.7190063924063e-05
-3.4342738217674196e-05,-3.487941648927517e-05,1.0338231732021086e-05,-2.8686032237601466e-05,5.2038070862181485e-05
-3.0489165510516614e-05,-7.037161594780628e-06,1.07865926111117e-05,-1.9570812582969666e-05,5.947025783825666e-05
-2.800565016514156e-05,5.227488145465031e-06,1.1983591321040876e-05,-1.1316040399833582e-05,6.371509516611695e-05
-3.0986971978563815e-05,9.378340109833516e-06,1.3209814824222121e-05,-8.454249837086536e-06,6.548142118845135e-05
-3.707557334564626e-05,1.3109121937304735e-05,1.0279514754074626e-05,-1.1829585673694964e-05,6.544964708155021e-05
-3.945414937334135e-05,1.3124866200087126e-05,3.822514827334089e-06,-1.8560389435151592e-05,6.467888306360692e-05
-3.389554694877006e-05,1.0384532288298942e-05,-5.45065859114402e-07,-2.386288542766124e-05,6.664130341960117e-05
-2.9418546546366997e-05,1.0877621207328048e-05,-3.449289920354204e-07,-2.456355286994949e-05,6.92558751325123e-05
-3.2582898711552843e-05,1.655377673159819e-05,-3.815590332578722e-08,-2.0433026293176226e-05,6.765020953025669e-05
-3.751530312001705e-05,2.4727343770791776e-05,-3.363422365509905e-06,-1.7917907825903967e-05,6.44708561594598e-05
-3.9230770198628306e-05,3.304228084743954e-05,-5.843964572704863e-06,-2.2051848645787686e-05,6.506180216092616e-05
-3.988801472587511e-05,3.7184472603257746e-05,-1.8603976741360384e-06,-2.229052006441634e-05,6.695045158267021e-05
-3.723646295838989e-05,3.787650348385796e-05,3.7992635952832643e-06,-1.4789620763622224e-05,6.391634815372527e-05
-3.191216819686815e-05,3.6102806916460395e-05,5.4314859880832955e-06,-1.212051574839279e-05,6.263836985453963e-05
-2.745277561189141e-05,4.016120146843605e-05,7.0348110057238955e-06,-2.425933416816406e-05,6.70248773531057e-05
-2.7960166335105896e-05,5.3304669563658535e-05,8.529087608621921e-06,-4.355360579211265e-05,6.850606587249786e-05
-3.280141390860081e-05,6.15818498772569e-05,4.909788458462572e-06,-5.509332913788967e-05,6.410320202121511e-05
-3.481729800114408e-05,6.31752991466783e-05,1.2828051012547803e-06,-5.6409742683172226e-05,5.883378616999835e-05
-3.531113907229155e-05,6.0718335589626804e-05,-2.91130368168524e-06,-5.917929229326546e-05,5.6410917750326917e-05
-3.6818961234530434e-05,5.4820775403641164e-05,-1.1797078514064196e-05,-6.910377851454541e-05,5.755936945206486e-05
-3.8847047107992694e-05,4.571521276375279e-05,-1.9666576918098144e-05,-6.973130803089589e-05,5.803090607514605e-05
-4.0472627006238326e-05,3.458308128756471e-05,-1.8153439668822102e-05,-4.2318297346355394e-05,5.8464800531510264e-05
-4.1900744690792635e-05,2.159942414436955e-05,-7.836762051738333e-06,5.86146143177757e-06,5.8750843891175464e-05
-4.093417737749405e-05,9.226543625118211e-06,4.500968316278886e-06,5.13209197379183e-05,5.873359623365104e-05
-3.507471046759747e-05,2.2452384200732922e-06,1.500611597293755e-05,7.68125246395357e-05,5.951360799372196e-05
-2.241846414108295e-05,1.1504751000757096e-06,2.4905093596316874e-05,8.245884964708239e-05,6.052496610209346e-05
-1.124581558542559e-05,3.3486733173049288e-06,3.295109127066098e-05,7.688469486311078e-05,6.131028203526512e-05
-1.0861654118343722e-05,6.1579626162711065e-06,3.6876092053717e-05,6.546832446474582e-05,6.214395398274064e-05
-1.858962423284538e-05,9.586546184436884e-06,3.709486918523908e-05,5.3718154958914965e-05,6.303498958004639e-05
-2.309853516635485e-05,1.3171413229429163e-05,3.510397800710052e-05,4.921599611407146e-05,6.378787657013163e-05
-2.1810174075653777e-05,1.4941293557058088e-05,3.260814992245287e-05,5.59028958377894e-05,6.21642975602299e-05
-2.127381412719842e-05,1.483420237491373e-05,3.150642805849202e-05,6.768835737602785e-05,5.670296013704501e-05
-2.454876266710926e-05,1.9376877389731817e-05,3.29861904901918e-05,7.161586836446077e-05,5.265626168693416e-05
-2.8804264729842544e-05,2.9921793611720204e-05,3.477012796793133e-05,6.126578955445439e-05,5.430392047856003e-05
-2.6997207896783948e-05,4.0770242776488885e-05,3.250198278692551e-05,4.281604560674168e-05,5.8530233218334615e-05
-1.8688422642298974e-05,4.735095353680663e-05,2.470599065418355e-05,2.3803951989975758e-05,6.236686022020876e-05
-1.060582962963963e-05,4.870499833486974e-05,1.758583493938204e-05,1.0874981853703503e-05,6.885357288410887e-05
-1.180167146230815e-05,4.989540684618987e-05,1.7969374312087893e-05,5.634062290482689e-06,7.59634785936214e-05
-1.667390824877657e-05,5.0415226723998785e-05,1.974381484615151e-05,1.1314734820189187e-06,7.731377991149202e-05
-1.4952111087040976e-05,4.615275975083932e-05,1.45426038216101e-05,-7.74159070715541e-06,7.429706602124497e-05
-1.1949631698371377e-05,3.9750095311319456e-05,6.926367404958e-06,-1.3546806258091237e-05,7.365529745584354e-05
-1.4842634300293867e-05,3.820537313004024e-05,9.290311027143616e-07,-1.4122263564786408e-05,7.192949851742014e-05
-2.2238520614337176e-05,4.036025711684488e-05,-2.36687742471986e-06,-1.9996316041215323e-05,6.841930007794872e-05
-2.9492344765458256e-05,3.918848597095348e-05,-7.867882914069924e-07,-2.6035846531158313e-05,6.610721175093204e-05
-3.1165662221610546e-05,3.62042264896445e-05,2.449057092235307e-06,-2.4498345737811178e-05,6.538342131534591e-05
-2.8595859475899488e-05,3.287576691946015e-05,2.500571554264752e-06,-2.1225790987955406e-05,6.230220606084913e-05
-2.889565257646609e-05,2.7110152586828917e-05,1.5746168173791375e-06,-2.1938114514341578e-05,5.753478399128653e-05
-3.384827869012952e-05,2.6120711481780745e-05,-1.3639105418405961e-06,-2.1942934836260974e-05,5.357704503694549e-05
-4.1396244341740385e-05,2.9682083550142124e-05,-6.180198852234753e-06,-2.0662260794779286e-05,5.265800791676156e-05
-4.7140620154095814e-05,3.204273525625467e-05,-8.609323231212329e-06,-2.1423726138891652e-05,5.3499421483138576e-05
-4.383841951494105e-05,3.3562679163878784e-05,-6.603887413803022e-06,-2.2732103388989344e-05,5.1989296480314806e-05
-3.131447374471463e-05,3.6922458093613386e-05,-3.5090722576569533e-06,-2.2518495825352147e-05,5.226770736044273e-05
-1.7134094377979636e-05,4.2443134589120746e-05,-3.009975898748962e-06,-1.8620323317009024e-05,5.436128776636906e-05
-9.210683856508695e-06,4.511815859586932e-05,-4.0341869862459134e-06,-1.396117022522958e-05,5.449220770969987e-05
-1.0459466466272715e-05,4.1553208575351164e-05,-2.617391601233976e-06,-1.4296490007836837e-05,5.241510734776966e-05
-1.649374644330237e-05,3.587054379750043e-05,-1.639164565858664e-06,-2.006175236601848e-05,4.953432289767079e-05
-2.0379848137963563e-05,3.372841456439346e-05,-7.803644621162675e-06,-2.2390626327251084e-05,4.5497170503949746e-05
-2.223969204351306e-05,3.3000447729136795e-05,-1.9207947843824513e-05,-2.0695353668997996e-05,4.2728814150905237e-05
-2.8145335818408057e-05,3.1905510695651174e-05,-2.8441862014005892e-05,-1.9591336240409873e-05,4.3981654016533867e-05
-3.9889022446004674e-05,3.031012056453619e-05,-3.2413212466053665e-05,-2.1570591343333945e-05,4.810707469005138e-05
-4.886727765551768e-05,2.8521344574983232e-05,-3.2100735552376136e-05,-2.6972758860210888e-05,5.147082993062213e-05
-4.717109914054163e-05,2.6755573344416916e-05,-2.6483145120437257e-05,-3.507207293296233e-05,5.042431803303771e-05
-3.8492366002174094e-05,2.9623168302350678e-05,-2.004688030865509e-05,-4.3035812268499285e-05,4.770380110130645e-05
-3.0360215532709844e-05,3.8223370211198926e-05,-1.2743780644086655e-05,-4.470549538382329e-05,4.873179568676278e-05
-2.665540887392126e-05,4.33004715887364e-05,-3.4155245884903707e-06,-4.2728752305265516e-05,5.050883555668406e-05
-2.3533701096312143e-05,4.043760054628365e-05,5.1182050810894e-06,-3.738247323781252e-05,5.198459984967485e-05
-2.5614190235501155e-05,3.4003631299128756e-05,1.0075616955873556e-05,-2.707493695197627e-05,4.987222564523108e-05
-3.0085253456491046e-05,3.521832331898622e-05,1.6368783690268174e-05,-2.1208588805166073e-05,4.367563087726012e-05
-2.6997053282684647e-05,4.5843295083614066e-05,2.406598832749296e-05,-2.161533666367177e-05,4.199504473945126e-05
-2.2749345589545555e-05,5.833332033944316e-05,2.9718557925662026e-05,-3.0442648494499736e-05,4.3803916923934594e-05
-2.3086508008418605e-05,7.144184201024473e-05,3.58069664798677e-05,-4.338415601523593e-05,4.5761287765344605e-05
-2.5651139367255382e-05,8.110804628813639e-05,3.896162525052205e-05,-5.095254527986981e-05,4.915093086310662e-05
-2.7195261282031424e-05,8.355058525921777e-05,3.4319073165534064e-05,-5.353618325898424e-05,5.215882629272528e-05
-3.0206467272364534e-05,8.087330934358761e-05,2.6722136681200936e-05,-4.93257975904271e-05,5.635667548631318e-05
-3.220225698896684e-05,7.607805309817195e-05,2.5158289645332843e-05,-3.980486508226022e-05,6.065796333132312e-05
-3.089603706030175e-05,6.883564492454752e-05,2.4591796318418346e-05,-2.558613778091967e-05,6.339522224152461e-05
-2.7984393454971723e-05,5.977810360491276e-05,2.0902931282762438e-05,-1.1014501069439575e-05,6.209009006852284e-05
-2.3296875951928087e-05,4.746745980810374e-05,1.6340687579941005e-05,-1.877635213531903e-06,5.873158079339191e-05
-1.5502217138418928e-05,3.3350286685163155e-05,1.4284023563959636e-05,-1.1847539553855313e-06,5.8518362493487075e-05
-1.0657645361789037e-05,1.9390192392165773e-05,1.2595003681781236e-05,-3.26475128531456e-06,5.92517462791875e-05
-1.622058880457189e-05,1.3645160379383015e-06,9.801976375456434e-06,-1.2454496811642457e-07,5.668109224643558e-05
-2.7495272661326453e-05,-2.2850221284897998e-05,8.401288141612895e-06,1.1654984518827405e-05,5.238725498202257e-05
-3.489795562927611e-05,-4.7343190090032294e-05,6.663989097432932e-06,2.2772472220822237e-05,5.1808394346153364e-05
-3.5750614188145846e-05,-5.8358273236081004e-05,2.6057889499497833e-06,1.3593497897090856e-05,5.380320726544596e-05
-3.6463541619013995e-05,-4.137438736506738e-05,-3.903780907421606e-06,-1.9042812709813006e-05,5.5920867453096434e-05
-4.0060906030703336e-05,-3.1689023671788163e-06,-9.949752893589903e-06,-5.694202991435304e-05,5.777178375865333e-05
-4.1206109017366543e-05,2.9347649615374394e-05,-1.2219492418807931e-05,-8.506081940140575e-05,6.0222300817258656e-05
-3.722623659996316e-05,4.319933941587806e-05,-8.229580089391675e-06,-9.883292659651488e-05,6.224507524166256e-05
-3.485949127934873e-05,4.8689944378566e-05,-2.883238494177931e-06,-9.070317901205271e-05,6.290478631854057e-05
-3.221447695977986e-05,6.223880336619914e-05,-3.764504299397231e-07,-6.0649661463685334e-05,6.462501914938912e-05
-2.5818473659455776e-05,7.026385719655082e-05,6.693820608916212e-08,-2.1671123249689117e-05,6.711094465572387e-05
-2.1820622350787744e-05,4.792629988514818e-05,-3.4859817787946668e-06,1.0169282177230343e-05,6.592325371457264e-05
-2.181893250963185e-05,2.237482476630248e-06,-6.501234111055965e-06,3.985232615377754e-05,6.281116657191887e-05
-1.5463678209926002e-05,-2.7131492970511317e-05,-2.9577504392364062e-06,6.600323104066774e-05,6.0749920521629974e-05
8.648393077237415e-07,-2.928432877524756e-05,3.0713035812368616e-06,7.170629396568984e-05,6.082235631765798e-05
1.856991002568975e-05,-3.852123336400837e-05,7.944027856865432e-06,6.392790237441659e-05,6.199735071277246e-05
2.6984556825482287e-05,-6.0998110711807385e-05,1.083524966816185e-05,5.402008173405193e-05,6.310678872978315e-05
2.117272379109636e-05,-6.932749965926632e-05,9.401230272487737e-06,4.5397475332720205e-05,5.928757309447974e-05
1.1861381608468946e-05,-5.557194890570827e-05,4.524038558884058e-06,3.593337532947771e-05,5.2711104217451066e-05
9.945352758222725e-06,-2.961575228255242e-05,5.842586574544839e-07,2.3132954083848745e-05,4.969217843608931e-05
1.1751611964427866e-05,5.7277957239421085e-06,-3.0022374630789272e-06,6.010444394632941e-06,4.958907811669633e-05
1.2013631931040436e-05,3.762527558137663e-05,-7.120904228941072e-06,-1.1851463568746112e-05,5.0444195949239656e-05
1.0301481779606547e-05,5.519223850569688e-05,-8.426333806710318e-06,-1.978778891498223e-05,5.214625707594678e-05
7.980528607731685e-06,6.052289973013103e-05,-1.8413865063848789e-06,-1.1631443157966714e-05,5.443349800771102e-05
7.073665983625688e-06,5.749607225880027e-05,9.522325854049996e-06,9.529891940474045e-06,5.667994264513254e-05
7.0296159719873685e-06,4.768870712723583e-05,1.9319206330692396e-05,2.864123416657094e-05,5.880649041500874e-05
2.78042716672644e-06,3.426442344789393e-05,2.354648313485086e-05,3.272120011388324e-05,5.976660395390354e-05
-9.201299690175802e-06,2.541519825172145e-05,1.858441646618303e-05,1.918471207318362e-05,5.9609534218907356e-05
-2.365868022025097e-05,2.1461521100718528e-05,6.002168447594158e-06,2.9535285648307763e-06,6.084973210818134e-05
-3.4978809708263725e-05,1.656124550208915e-05,-5.781948857475072e-06,-2.4150829176505795e-06,6.444757309509441e-05
-4.103299215785228e-05,1.2436949873517733e-05,-8.198027899197768e-06,-2.3866803076089127e-06,6.673267489532009e-05
-4.3572246795520186e-05,1.576574140926823e-05,-3.6520443700283067e-06,-1.5055330550239887e-05,6.402406870620325e-05
-4.3656382331391796e-05,2.3290867829928175e-05,-9.266907454730244e-07,-4.838808308704756e-05,5.835940828546882e-05
-4.018534309579991e-05,2.7218085961067118e-05,-3.335449491714826e-06,-8.528670150553808e-05,5.6473989388905466e-05
-3.869025385938585e-05,2.3035223421175033e-05,-5.323729055817239e-06,-0.0001008258550427854,5.776781472377479e-05
-4.3295574869262055e-05,1.1226256901863962e-05,-3.68681912732427e-06,-9.531101386528462e-05,5.7133078371407464e-05
-4.6523375203832984e-05,2.3736754428682616e-06,-1.4847789771010866e-06,-8.295929728774354e-05,5.353106098482385e-05
-4.511564111453481e-05,4.480285952013219e-06,4.850968480241136e-07,-6.455484981415793e-05,5.2637878980021924e-05
-4.4248597987461835e-05,1.1756496860471088e-05,5.82118627789896e-06,-4.004695438197814e-05,5.33845231984742e-05
-4.666126915253699e-05,2.2454816644312814e-05,1.1734104191418737e-05,-1.5168580830504652e-05,5.3369647503132e-05
-5.087942918180488e-05,3.2410862331744283e-05,1.653153776715044e-05,2.7032265279558487e-06,5.338114715414122e-05
-5.134489038027823e-05,3.809302506851964e-05,2.2753378289053217e-05,1.921967850648798e-05,5.337168840924278e-05
-4.669941699830815e-05,4.434896254679188e-05,2.8852708055637777e-05,3.481804742477834e-05,5.4656382417306304e-05
-4.19335083279293e-05,4.822171831619926e-05,3.1305589800467715e-05,4.086458284291439e-05,5.545045860344544e-05
-3.9647897210670635e-05,4.862319110543467e-05,3.152015415253118e-05,3.5772318369708955e-05,5.3421430493472144e-05
-3.636437395471148e-05,5.251223046798259e-05,2.734328700171318e-05,1.9906416127923876e-05,5.325650272425264e-05
-3.315858339192346e-05,6.0033053159713745e-05,1.8367523807683028e-05,-1.7210464875461184e-06,5.557942859013565e-05
-3.144319271086715e-05,6.374836812028661e-05,9.876433978206478e-06,-2.190794111811556e-05,5.619676812784746e-05
-2.6560990590951405e-05,6.480840966105461e-05,3.821813606919022e-06,-3.624620512709953e-05,5.528221299755387e-05
-2.192795909650158e-05,6.646854308201e-05,7.652898830201593e-07,-4.1088445868808776e-05,5.576786497840658e-05
-1.9806142518064007e-05,6.48867862764746e-05,2.793028670566855e-07,-3.095524516538717e-05,5.7662960898596793e-05
-1.7826439943746664e-05,5.700156179955229e-05,2.3514480744779576e-06,-1.1772861398640089e-05,5.75701124034822e-05
-1.4535793525283225e-05,4.531538797891699e-05,3.2053667382569984e-06,5.188432623981498e-06,5.631761086988263e-05
-1.1948923201998696e-05,3.5916222259402275e-05,1.3381823009694926e-06,1.4728081623616163e-05,5.694873834727332e-05
-1.3287325600686017e-05,2.8109554477850907e-05,-7.697875616941019e-07,1.337042613158701e-05,6.178003241075203e-05
-1.683480331848841e-05,1.8408109099254943e-05,2.2511885688913935e-08,3.4747276913549285e-06,6.825969467172399e-05
-1.9540186258382164e-05,1.2989277820452116e-05,3.314550440336461e-06,-4.425429324328434e-06,7.106728298822418e-05
-2.023995330091566e-05,1.971359051822219e-05,7.009471119090449e-06,-2.222966521969738e-08,6.879696593387052e-05
-2.0055176719324663e-05,3.4535227314336225e-05,9.375594345328864e-06,1.347448596789036e-05,6.44928149995394e-05
-2.096051503031049e-05,5.175807746127248e-05,1.0189647582592443e-05,2.091832175210584e-05,6.083468906581402e-05
-2.503530959074851e-05,7.511337025789544e-05,8.955013981903903e-06,1.3678295545105357e-05,5.6937296903925017e-05
-3.5165507142664865e-05,0.00010499706695554778,5.0707308218989056e-06,1.8006779782808735e-06,5.336078174877912e-05
-4.9191756261279806e-05,0.00012862113362643868,3.7738780065410538e-06,-1.754919480845274e-06,5.200690065976232e-05
-5.865994899068028e-05,0.00012775893264915794,7.57924453864689e-06,2.278470219607698e-06,4.702205114881508e-05
-6.216888868948445e-05,0.00010800865129567683,1.252394667972112e-05,6.765375019313069e-06,3.8475991459563375e-05
-6.361227860907093e-05,8.227241050917655e-05,1.0453936738485936e-05,8.844440344546456e-06,3.6848767194896936e-05
-5.9903486544499174e-05,4.974427429260686e-05,4.537024324235972e-06,2.0342540665296838e-06,4.392720074974932e-05
-4.7886594984447584e-05,1.0920482054643799e-05,4.207323399896268e-06,-2.913467369580758e-06,5.355911343940534e-05
-3.5624474548967555e-05,-2.8492109777289443e-05,8.227399121096823e-06,-2.8884721814392833e-06,6.11801297054626e-05
-2.6218749553663656e-05,-4.791481114807539e-05,9.419937669008505e-06,-1.3655645489052404e-05,6.873178790556267e-05
-1.89449820027221e-05,-3.553881833795458e-05,3.3922640341188526e-06,-3.229864523746073e-05,8.182527380995452e-05
-1.9340899598319083e-05,-4.801338036486413e-06,-4.082520263182232e-06,-4.0884737245505676e-05,9.725297422846779e-05
-2.8247270165593363e-05,2.7171659894520417e-05,-8.063388122536708e-06,-3.7492507544811815e-05,0.00010884138464462012
-3.363028372405097e-05,5.5339074606308714e-05,-9.349536412628368e-06,-3.5241762816440314e-05,0.00011029715096810833
-2.9820266718161292e-05,8.273169805761427e-05,-8.579556379118003e-06,-4.274100865586661e-05,0.0001019070332404226
-2.321218380529899e-05,0.00010176514479098842,-6.831933205830865e-06,-6.108503293944523e-05,9.057669376488775e-05
-1.8203119907411747e-05,9.603033686289564e-05,-7.147497854020912e-06,-7.343944162130356e-05,7.959443610161543e-05
-1.4405244655790739e-05,6.249658326851204e-05,-6.535452484968118e-06,-6.890440999995917e-05,7.292313239304349e-05
-1.3478696018864866e-05,1.9912000425392762e-05,-1.972993004528689e-06,-5.22932386957109e-05,7.08503503119573e-05
-1.7660397134022787e-05,-1.2952709766977932e-05,3.1435658911505016e-06,-4.211363193462603e-05,6.915485573699698e-05
-2.29938596021384e-05,-4.173176785116084e-05,5.0481371545174625e-06,-4.4570228055818006e-05,6.638752529397607e-05
-2.6108553356607445e-05,-7.775167614454404e-05,5.652770596498158e-06,-4.93607331009116e-05,6.609367846976966e-05
-2.73185723926872e-05,-0.00010719458805397153,7.048242423479678e-06,-4.67526915599592e-05,6.873646634630859e-05
-2.8164376999484375e-05,-0.0001077462438843213,5.1392257773841266e-06,-3.764425127883442e-05,7.018692122073844e-05
-2.308333569089882e-05,-7.588916923850775e-05,-8.917724017010187e-07,-2.6592904760036618e-05,7.061670476105064e-05
-8.707076631253585e-06,-3.272635512985289e-05,-2.15425598071306e-06,-1.1555793207662646e-05,7.151069439714774e-05
7.967307283252012e-06,-1.042859184963163e-05,3.319627921882784e-06,1.2900464753329288e-05,7.03656260157004e-05
1.44677578646224e-05,-1.516789779998362e-05,4.67111385660246e-06,4.2775587644428015e-05,6.830375059507787e-05
7.91107231634669e-06,-2.1373058189055882e-05,-1.8966048287438753e-07,5.662224430125207e-05,6.821393617428839e-05
-3.1299864531320054e-06,-4.811250164493686e-06,-2.7952630716754356e-06,5.2350183977978304e-05,6.757913797628134e-05
-1.496230652264785e-05,2.6435738618602045e-05,6.023172772984253e-06,4.6227600250858814e-05,6.655546167166904e-05
-2.3348091417574324e-05,4.74025473522488e-05,1.9224840798415244e-05,4.545484625850804e-05,6.498750735772774e-05
-2.8003749321214855e-05,5.349891216610558e-05,2.2799948055762798e-05,4.550096855382435e-05,5.932133717578836e-05
-3.414522871025838e-05,5.041391705162823e-05,2.1082578314235434e-05,4.2019328247988597e-05,5.3087012929609045e-05
-3.937779547413811e-05,4.6629276766907424e-05,2.0095858417334966e-05,4.21108488808386e-05,5.348785998648964e-05
-3.9960272260941565e-05,4.674765295931138e-05,1.7487744116806425e-05,4.1452320147072896e-05,5.553086521103978e-05
-3.73116199625656e-05,4.791428000316955e-05,1.1895564966835082e-05,3.087121876887977e-05,5.16083964612335e-05
-3.8595549995079637e-05,4.480396455619484e-05,7.20089883543551e-06,1.8588574675959535e-05,4.748487481265329e-05
-4.186030855635181e-05,3.7435140257002786e-05,1.0340906555939e-05,1.152430832007667e-05,4.79683221783489e-05
-4.2439696699148044e-05,3.2712301617721096e-05,1.4710496543557383e-05,1.3568133908847813e-05,4.889646152150817e-05
-4.290035576559603e-05,3.341157571412623e-05,1.1956644812016748e-05,1.3888809007767122e-05,4.850217010243796e-05
-4.155981514486484e-05,3.7382516893558204e-05,5.781109848612687e-06,3.3089133921748726e-06,4.779930895892903e-05
-3.837972690234892e-05,4.054036253364757e-05,1.9603403416112997e-06,-1.093839637178462e-05,4.567906216834672e-05
-3.820448546321131e-05,4.3623658712022007e-05,-1.2159604239059263e-06,-2.1853491489309818e-05,4.739295764011331e-05
-3.794035728788003e-05,4.474008528632112e-05,-4.244319370627636e-06,-2.556447361712344e-05,5.3500960348173976e-05
-3.304234996903688e-05,3.955017382395454e-05,-4.913952579954639e-06,-2.3051867174217477e-05,5.919651812291704e-05
-2.6812231226358563e-05,3.290541280875914e-05,-1.948785893546301e-06,-2.1876980099477805e-05,6.094888522056863e-05
-2.5545428798068315e-05,3.044062395929359e-05,2.1830214791407343e-06,-2.6175697712460533e-05,6.130043766461313e-05
-2.9403667213045992e-05,3.270711385994218e-05,5.704249360860558e-06,-2.9558639653259888e-05,6.376812962116674e-05
-3.128721073153429e-05,3.4844077163143083e-05,1.0602253496472258e-05,-2.7062258595833555e-05,6.586997915292159e-05
-2.7085639885626733e-05,3.4524895454524085e-05,1.6360416339011863e-05,-2.6098134185303934e-05,6.434160604840145e-05
-2.1675463358405977e-05,3.779846883844584e-05,1.861860801000148e-05,-3.142427885904908e-05,6.18909252807498e-05
-2.2113863451522775e-05,4.786288627656177e-05,1.6068186596385203e-05,-3.627673868322745e-05,6.081767423893325e-05
-2.774023960228078e-05,5.870323002454825e-05,1.2632188372663222e-05,-3.295061833341606e-05,5.8561094192555174e-05
-3.4911048715002835e-05,6.477161514339969e-05,1.1241385436733253e-05,-2.1502200979739428e-05,5.818346835440025e-05
-3.853119051200338e-05,6.487505015684292e-05,1.2920998415211216e-05,-6.130526799097424e-06,6.11770010436885e-05
-3.9541158912470564e-05,5.701906411559321e-05,1.6460091501357965e-05,1.7802170987124555e-05,6.175872113090008e-05
-3.763244967558421e-05,4.9048103392124176e-05,2.329277413082309e-05,3.815655873040669e-05,5.704539944417775e-05
-3.158340405207127e-05,4.9767346354201436e-05,2.6941659598378465e-05,4.234198422636837e-05,5.090661215945147e-05
-2.9034319595666602e-05,6.0221365856705233e-05,2.3042175598675385e-05,3.9126320189097896e-05,4.582870315061882e-05
-4.02643890993204e-05,7.135935447877273e-05,1.5991850887075998e-05,3.645421384135261e-05,4.1197086829924956e-05
-5.584142490988597e-05,7.391515100607648e-05,9.722114555188455e-06,3.668998397188261e-05,3.9580634620506316e-05
-5.78341496293433e-05,7.372240361291915e-05,7.1424738052883185e-06,2.5092836949625053e-05,4.16043731092941e-05
-4.960567457601428e-05,6.937395664863288e-05,5.586402949120384e-06,-3.0243484161474044e-06,4.4342541514197364e-05
-3.8790003600297496e-05,5.443301051855087e-05,-9.883483187422826e-08,-4.0088852983899415e-05,4.572524630930275e-05
-2.8521862986963242e-05,3.4719487302936614e-05,-6.948382633709116e-06,-8.474945207126439e-05,4.4059386709704995e-05
-1.8352928236708976e-05,1.1441376955190208e-05,-1.4076780644245446e-05,-0.00014499890676233917,4.725613325717859e-05
-1.2588233403221238e-05,-1.618518763280008e-05,-2.2291869754553773e-05,-0.00020001250959467143,5.375983892008662e-05
-1.5136049114516936e-05,-3.587125684134662e-05,-2.739816773100756e-05,-0.000202929979423061,5.5816402891650796e-05
-2.468838829372544e-05,-3.844342063530348e-05,-2.5644178094808012e-05,-0.00015532727411482483,5.2725077694049105e-05
-3.4001910535153e-05,-2.8505344744189642e-05,-2.0992252757423557e-05,-8.378410711884499e-05,5.2483177569229156e-05
-3.69595545635093e-05,-1.886334939626977e-05,-1.7803367882152088e-05,-6.844658855698071e-06,5.648298974847421e-05
-3.820478013949469e-05,-1.2733129551634192e-05,-1.4789890883548651e-05,5.718765169149265e-05,6.071395182516426e-05
-3.2851301511982456e-05,8.248081940109842e-06,-1.0156371899938677e-05,9.158629109151661e-05,6.331833719741553e-05
-1.6046096789068542e-05,4.1141986002912745e-05,-3.3407609407731798e-06,9.7723284852691e-05,6.22386287432164e-05
5.717090971302241e-06,5.575019895331934e-05,5.361345756682567e-06,8.7902088125702e-05,5.662742842105217e-05
2.0753417629748583e-05,3.67562570318114e-05,1.769570735632442e-05,7.651589112356305e-05,5.2682171371998265e-05
2.4331300664925948e-05,9.154327926808037e-07,2.9944792913738638e-05,6.904530164320022e-05,5.327836697688326e-05
1.7857206330518238e-05,-1.8518114302423783e-05,3.567561361705884e-05,5.9392055845819414e-05,5.3962230595061556e-05
4.346201876614941e-06,-4.008275936939754e-06,3.27176385326311e-05,3.675460902741179e-05,5.339576819096692e-05
-1.3117292837705463e-05,2.5000645109685138e-05,2.421037970634643e-05,2.574024392743013e-06,5.3313928219722584e-05
-2.7582313123275526e-05,3.9589296648046e-05,1.2670694559346884e-05,-2.2861047909827903e-05,5.69589356018696e-05
-3.508205554680899e-05,3.8009231502655894e-05,1.9249994238634827e-06,-2.7651823984342627e-05,6.159957411000505e-05
-3.955942520406097e-05,4.033203731523827e-05,-2.1835144252690952e-06,-2.4832279450492933e-05,6.445155304390937e-05
-4.026461101602763e-05,4.866338713327423e-05,-2.5145948256977135e-06,-2.9779630494886078e-05,6.177119939820841e-05
-3.353885767864995e-05,4.580982931656763e-05,-2.672967411854188e-06,-4.0887673094403e-05,5.593593596131541e-05
-2.4862458303687163e-05,4.147035360801965e-05,-4.575304046738893e-06,-5.318331022863276e-05,5.1175637054257095e-05
-2.190581290051341e-05,4.3766387534560636e-05,-1.2023414456052706e-05,-6.166837556520477e-05,4.8891168262343854e-05
-2.064057844108902e-05,4.2498777474975213e-05,-1.9746230464079417e-05,-6.386460881913081e-05,4.959876969223842e-05
-2.0389425117173232e-05,3.6795379855902866e-05,-1.894912747957278e-05,-6.5774263930507e-05,5.4312171414494514e-05
-1.8509144865674898e-05,3.0003837309777737e-05,-1.3273069271235727e-05,-7.630485197296366e-05,5.633972614305094e-05
-8.921563676267397e-06,2.2477845050161704e-05,-1.3049114386376459e-05,-8.362428343389183e-05,5.678441084455699e-05
9.91086949397868e-07,1.7022899555740878e-05,-1.4312971870822366e-05,-7.395793363684788e-05,5.8617548347683623e-05
6.250173782973434e-07,1.4309472135209944e-05,-1.4345499039336573e-05,-5.1547893235692754e-05,5.9105172113049775e-05
-7.126052878447808e-06,9.274341209675185e-06,-1.7708407540339977e-05,-2.548255906731356e-05,5.672791303368285e-05
-1.4724568245583214e-05,5.351684649212984e-06,-2.18846216739621e-05,-4.865020400757203e-06,5.3990388551028445e-05
-1.775691271177493e-05,1.061016973835649e-05,-2.0682400645455346e-05,1.51516769619775e-06,5.6511555158067495e-05
-2.045712790277321e-05,1.8195012671640143e-05,-1.6469513866468333e-05,-1.7262497067349614e-06,6.0851929447380826e-05
-2.908044189098291e-05,2.5262796043534763e-05,-1.5665948012610897e-05,-2.6190518838120624e-06,6.413636583602056e-05
-3.978578024543822e-05,3.3447431633248925e-05,-1.3876941011403687e-05,3.414565526327351e-06,6.472565291915089e-05
-4.254625309840776e-05,3.8329559174599126e-05,-3.4874560697062407e-06,1.6702770153642632e-05,6.10252027399838e-05
-3.694859333336353e-05,3.7189936847426e-05,1.0510359061299823e-05,3.227295383112505e-05,5.481467815116048e-05
-3.2772131817182526e-05,3.370679769432172e-05,1.842948950070422e-05,4.077788980794139e-05,4.832037666346878e-05
-3.4103566576959565e-05,3.2155938242794946e-05,2.1855092199984938e-05,3.4698219678830355e-05,4.500366048887372e-05
-3.610571729950607e-05,3.0688894185004756e-05,2.5436109353904612e-05,1.8229347915621474e-05,4.4858814362669364e-05
-3.3924348826985806e-05,2.399739605607465e-05,2.9334338250919245e-05,1.4544388022841304e-06,4.531763261184096e-05
-2.9718290534219705e-05,9.610376764612738e-06,3.07177979266271e-05,-9.959952876670286e-06,4.5458255044650286e-05
-2.8658816518145613e-05,-1.9400652035983512e-06,3.260762241552584e-05,-1.4657039173471276e-05,4.916839679935947e-05
-3.268172440584749e-05,-1.046931515702454e-06,3.576569724828005e-05,-1.1103403267043177e-05,5.2504645282169804e-05
-3.497901707305573e-05,6.525096978293732e-06,3.4457647416274995e-05,-4.941294719174039e-06,5.334116212907247e-05
-3.240064324927516e-05,1.0814198503794614e-05,2.5715340598253533e-05,1.6269719083084055e-07,5.5448424973292276e-05
-2.839595799741801e-05,1.663249531702604e-05,1.8508542780182324e-05,7.760339030937757e-06,5.720590706914663e-05
-2.9540673494921066e-05,3.076875509577803e-05,2.0822360966121778e-05,1.815912219171878e-05,5.8972313127014786e-05
-4.1075476474361494e-05,4.345940760686062e-05,2.2989921490079723e-05,2.4640145056764595e-05,6.012199810356833e-05
-5.253277413430624e-05,4.44170473201666e-05,2.0391700672917068e-05,1.6076137399068102e-05,5.7516666856827214e-05
-5.319288175087422e-05,4.028719922644086e-05,1.5782517948537134e-05,5.6355293054366484e-06,5.331548527465202e-05
-4.513036765274592e-05,4.538704888545908e-05,9.40011886996217e-06,3.6526586200125166e-07,5.539370977203362e-05
-3.461373125901446e-05,5.7800647482508793e-05,4.201025603833841e-06,-4.450108008313691e-06,5.942748248344287e-05
-3.3515945688122883e-05,6.108212983235717e-05,2.461859139657463e-06,-9.456431143917143e-06,6.34255338809453e-05
-4.686853208113462e-05,5.033140041632578e-05,1.9337524008733453e-06,-2.4195102014346048e-05,6.53547394904308e-05
-6.125619984231889e-05,3.888221544912085e-05,2.474704672295047e-07,-5.692799459211528e-05,6.606575334444642e-05
-6.791899068048224e-05,4.0070262912195176e-05,-1.2395121302688494e-06,-9.209943527821451e-05,6.486054917331785e-05
-6.37178891338408e-05,4.930383147438988e-05,2.136074499503593e-06,-0.0001002449935185723,6.4997082517948e-05
-5.259104727883823e-05,6.811899220338091e-05,8.822258678264916e-06,-7.898543844930828e-05,6.733937334502116e-05
-4.2362164094811305e-05,0.00010543570533627644,1.4110082702245563e-05,-4.069421993335709e-05,6.641165964538231e-05
-3.333017593831755e-05,0.00014769787958357483,1.7255460988963023e-05,2.9323200578801334e-06,6.482032040366903e-05
-2.6684076146921143e-05,0.0001728375063976273,1.899030939966906e-05,4.285414979676716e-05,6.679253419861197e-05
-2.0362078430480324e-05,0.0001767060166457668,2.3223317839438096e-05,6.300473614828661e-05,7.180154352681711e-05
-1.025481105898507e-05,0.0001639372349018231,2.6301571779185906e-05,5.588870044448413e-05,7.51096595195122e-05
4.80078233522363e-06,0.000132002925965935,2.4589995518908836e-05,3.111421756329946e-05,7.729875505901873e-05
2.014458914345596e-05,7.99938861746341e-05,2.317505277460441e-05,4.535556854534661e-06,8.015223284019157e-05
3.154470323352143e-05,2.1173189452383667e-05,2.637473698996473e-05,-1.1837645615742076e-05,8.33258091006428e-05
3.784704313147813e-05,-2.0700872482848354e-05,2.6028897991636768e-05,-1.5975003407220356e-05,8.38264895719476e-05
3.952562474296428e-05,-3.4242766560055315e-05,1.575144960952457e-05,-1.1709403224813286e-05,8.099759725155309e-05
3.696673229569569e-05,-3.257401840528473e-05,3.172908691340126e-06,-9.81585071713198e-06,7.423977513099089e-05
2.8572299925144762e-05,-2.8270242182770744e-05,-5.31560908711981e-06,-1.3059026969131082e-05,6.9455687480513e-05
9.719124136609025e-06,-1.9213319319533184e-05,-9.934466106642503e-06,-4.426046416483587e-06,6.630416464759037e-05
-1.2658528248721268e-05,-9.71152894635452e-06,-8.041800356295425e-06,2.4393264538957737e-05,6.308753654593602e-05
-1.9110424545942806e-05,-1.745774170558434e-05,-5.0414723773428705e-06,5.128964039613493e-05,6.030381700838916e-05
-8.828228601487353e-06,-6.0097936511738226e-05,-1.5093156662260299e-06,5.7566576288081706e-05,5.614898327621631e-05
9.320012850366766e-08,-0.00011277927842456847,1.0959364772133995e-05,5.2899038564646617e-05,5.348724153009243e-05
-2.3312304620048963e-06,-0.00012186043750261888,2.5969062335207127e-05,4.392403207020834e-05,4.869084295933135e-05
-9.132339073403273e-06,-8.385071123484522e-05,2.822585702233482e-05,2.55053564615082e-05,4.5485376176657155e-05
-1.000819156615762e-05,-4.3057316361228004e-05,1.7820375433075242e-05,1.6767260149208596e-06,4.880605774815194e-05
-7.201465450634714e-06,-1.0500945791136473e-05,9.41981761570787e-06,-2.5325734895886853e-05,5.260379839455709e-05
-8.593969141656999e-06,1.7865862901089713e-05,1.8796534959619748e-06,-5.3651430789614096e-05,5.627271457342431e-05
-1.2958184925082605e-05,3.075060885748826e-05,-2.717244569794275e-06,-7.510867726523429e-05,5.8377285313326865e-05
-1.5773794075357728e-05,3.793865107581951e-05,-3.313503839308396e-06,-7.760465086903423e-05,5.919382601859979e-05
-1.4158505109662656e-05,4.5295928430277854e-05,-1.2409412875058479e-06,-6.3407736888621e-05,6.0743062931578606e-05
-1.4343788279802538e-05,4.982807149644941e-05,3.682391991333134e-07,-4.639489998226054e-05,6.371644121827558e-05
-2.5282510250690393e-05,5.1610048103611916e-05,-7.270359105859825e-07,-3.7378336855908856e-05,6.50492002023384e-05
-4.410875044413842e-05,5.261758997221477e-05,-4.942861778545193e-06,-3.993316931882873e-05,6.232684972928837e-05
-5.806687113363296e-05,4.450874257599935e-05,-1.1277397788944654e-05,-5.745157614001073e-05,5.684795542038046e-05
-6.0042333643650636e-05,2.329450762772467e-05,-1.7253882106160745e-05,-7.882263162173331e-05,5.184300971450284e-05
-5.837233766214922e-05,-1.71678561855515e-06,-2.0264104023226537e-05,-8.173604146577418e-05,5.25100804225076e-05
-5.742271605413407e-05,-2.3408954803016968e-05,-1.8206570530310273e-05,-6.221781222848222e-05,5.4273219575406983e-05
-5.595119364443235e-05,-3.7827372580068186e-05,-1.5356014046119526e-05,-3.230167567380704e-05,5.309995322022587e-05
-5.247566878097132e-05,-3.912778993253596e-05,-1.3699142073164694e-05,8.341536954503681e-07,5.253505878499709e-05
-4.88070618303027e-05,-2.374439463892486e-05,-1.382538175676018e-05,3.441418812144548e-05,5.318205148796551e-05
-4.630170587915927e-05,-1.7280776773986872e-06,-1.1791310498665553e-05,6.03020416747313e-05,5.313849032972939e-05
-4.1858991608023643e-05,1.3241874512459617e-05,-4.584156158671249e-06,7.18267765478231e-05,5.2611485443776473e-05
-3.479883525869809e-05,1.664862247707788e-05,5.174873876967467e-06,6.46063344902359e-05,5.2607345423894e-05
-2.9514347261283547e-05,1.988379517570138e-05,1.016540772980079e-05,4.845019429922104e-05,5.4916556109674275e-05
-3.009976353496313e-05,2.9638291380251758e-05,1.2740014426526614e-05,4.051465293741785e-05,5.709210381610319e-05
-3.212999945390038e-05,4.069926944794133e-05,1.5545028873020783e-05,4.151279790676199e-05,5.8913097745971754e-05
-2.9992530471645296e-05,5.069733742857352e-05,1.6704761947039515e-05,2.7447320462670177e-05,5.943602809566073e-05
-2.7518019123817794e-05,6.595390004804358e-05,1.0223871868220158e-05,-2.9690079827560112e-05,5.813013922306709e-05
-3.190835195709951e-05,7.625776197528467e-05,-5.029437033954309e-06,-0.00010550228762440383,5.8338908274890855e-05
-3.9143160392995924e-05,7.444381481036544e-05,-1.7289654351770878e-05,-0.0001551520253997296,5.560393401538022e-05
