-2.4680077331140637e-05,1.6875172150321305e-05,7.269233265105868e-06,-5.076809429738205e-06,5.282794882077724e-05
-2.753393528109882e-05,2.147552186215762e-05,2.9952254863019334e-06,-2.5092488158406923e-06,5.149428761797026e-05
-2.5313202058896422e-05,2.547439726185985e-05,-2.0157935978204478e-06,-1.1373729336128235e-07,4.917067417409271e-05
-2.2336764232022688e-05,2.6406889446661808e-05,-6.711929017910734e-06,-1.5763065448481939e-06,4.845610965276137e-05
-2.2209022063179873e-05,2.3850621801102534e-05,-9.245344699593261e-06,-4.860893113800557e-06,5.032608532928862e-05
-2.707222847675439e-05,2.2271098714554682e-05,-7.648602149856742e-06,-8.68264032760635e-06,5.164536923984997e-05
-3.1238465453498065e-05,2.5191184249706566e-05,-5.630248324450804e-06,-1.1681991963996552e-05,5.0099148211302236e-05
-2.9224280297057703e-05,2.749618397501763e-05,-4.1274306568084285e-06,-1.1172654012625571e-05,4.7275865654228255e-05
-2.4918956114561297e-05,2.786517325148452e-05,-1.2409481087161112e-06,-9.070836313185282e-06,4.835149593418464e-05
-2.3818074623704888e-05,2.859494816220831e-05,2.2065596567699686e-06,-9.16588760446757e-06,5.247634180705063e-05
-2.6815696401172318e-05,2.9848888516426086e-05,5.328373845259193e-06,-9.963134289137088e-06,5.591769877355546e-05
-2.731978747760877e-05,2.876832331821788e-05,7.31537284082151e-06,-1.1222503417229746e-05,5.686751683242619e-05
-2.5695446311146952e-05,2.8376558475429192e-05,4.287275714887073e-06,-1.3610229871119373e-05,5.788836642750539e-05
-2.6519233870203607e-05,2.8557271434692666e-05,-9.049114169101813e-07,-1.4861843737890013e-05,6.038570063537918e-05
-2.8872265829704702e-05,2.7790672902483493e-05,3.8841497485009313e-07,-1.4606069271394517e-05,6.074564953451045e-05
-2.973701703012921e-05,2.7721933292923495e-05,9.753278391144704e-06,-1.3225344446254894e-05,5.8647754485718906e-05
-2.9445513064274564e-05,3.0929604690754786e-05,1.7235923223779537e-05,-1.3535394828068092e-05,6.003454473102465e-05
-2.8560174541780725e-05,3.645659671747126e-05,1.7021857274812646e-05,-1.6128771676449105e-05,6.316971848718822e-05
-2.662138649611734e-05,3.808251130976714e-05,1.3563475476985332e-05,-1.709530988591723e-05,6.388121255440637e-05
-2.446042708470486e-05,3.541279147611931e-05,1.3011417649977375e-05,-1.275015438295668e-05,6.268353899940848e-05
-2.219374437117949e-05,3.355200169607997e-05,1.4195326002663933e-05,-6.406985903595341e-06,5.977893670205958e-05
-1.837233685364481e-05,3.510257738525979e-05,1.0552574167377315e-05,-3.24650159200246e-06,5.8503701438894495e-05
-1.6638796296319924e-05,3.7843998143216595e-05,4.808444373338716e-06,-6.002220288792159e-06,6.0615398979280144e-05
-1.849844920798205e-05,3.820361598627642e-05,1.6968032241493347e-06,-1.123529455071548e-05,6.483423931058496e-05
-2.1645200831699185e-05,3.429792559472844e-05,-1.8876975218518055e-06,-1.4647581338067539e-05,6.697457138216123e-05
-2.3178656192612834e-05,2.833806320268195e-05,-1.3169727935746778e-05,-1.4983061191742308e-05,6.562854832736775e-05
-2.1907186237513088e-05,2.3398682969855145e-05,-3.1107723771128803e-05,-1.6149146176758222e-05,6.0632799431914464e-05
-2.0019017028971575e-05,2.5835597625700757e-05,-4.2996482079615816e-05,-1.9000412066816352e-05,5.5327087466139346e-05
-1.99068381334655e-05,2.9032886232016608e-05,-4.0247905417345464e-05,-1.7868424038169906e-05,5.536916432902217e-05
-1.7397898773197085e-05,2.572949779278133e-05,-3.0629427783424035e-05,-1.3180180758354254e-05,5.6273722293553874e-05
-1.5925479601719417e-05,2.2419024389819242e-05,-1.9286691895104013e-05,-9.593172762834001e-06,5.662227704306133e-05
-2.1770427338196896e-05,2.120110184478108e-05,-5.520873401110293e-06,-8.006104508240242e-06,5.904609497520141e-05
-2.7586031137616374e-05,2.259877510368824e-05,8.521958079654723e-06,-7.442487458320102e-06,6.313770427368581e-05
-2.989979475387372e-05,2.5512981665087864e-05,2.059981670754496e-05,-6.728486823703861e-06,6.474996189353988e-05
-2.9728869776590727e-05,2.7690513888956048e-05,3.0665603844681755e-05,-5.027588485972956e-06,5.99153499933891e-05
-2.9578746762126684e-05,2.7801555916084908e-05,4.004273432656191e-05,-4.3189124880882446e-06,5.4013569751987234e-05
-2.8342148652882315e-05,2.442241930111777e-05,4.418439857545309e-05,-4.593452558765421e-06,5.148641866981052e-05
-2.4805995053611696e-05,2.1475929315784015e-05,4.115339106647298e-05,-5.402825081546325e-06,5.58694991923403e-05
-1.9476325178402476e-05,2.2423200789489783e-05,3.681668022181839e-05,-6.430534085666295e-06,6.112410483183339e-05
-1.809239802241791e-05,2.4267910703201778e-05,3.481543535599485e-05,-6.525551270897267e-06,6.349573959596455e-05
-2.0937568478984758e-05,2.6837387849809602e-05,3.2396110327681527e-05,-6.697011940559605e-06,6.328005838440731e-05
-2.324413253518287e-05,2.939058504125569e-05,2.8916574592585675e-05,-7.859575816837605e-06,6.158468022476882e-05
-2.241388392576482e-05,2.8553435186040588e-05,2.4911403670557775e-05,-1.0194604328717105e-05,5.9250363847240806e-05
-2.0132645659032278e-05,2.5501474738121033e-05,1.9993609384982847e-05,-1.3078108167974278e-05,5.960258931736462e-05
-1.9516835891408846e-05,2.5081131752813235e-05,1.287844315811526e-05,-1.5047249689814635e-05,6.3128667534329e-05
-1.9990760847576894e-05,2.629652590258047e-05,4.981321580999065e-06,-1.4968758478062227e-05,6.702223618049175e-05
-2.245265022793319e-05,2.5228209779015742e-05,1.4567187918146374e-06,-1.3743205272476189e-05,6.769482570234686e-05
-2.4761944587226026e-05,2.4036877221078612e-05,2.518126393624698e-06,-1.1564892702153884e-05,6.459137512138113e-05
-2.2972701117396355e-05,2.634387055877596e-05,5.901712484046584e-06,-9.90806074696593e-06,6.398816913133487e-05
-2.0490768292802386e-05,2.754448178166058e-05,7.905746315373108e-06,-9.753221092978492e-06,6.527872028527781e-05
-2.2853375412523746e-05,2.586205482657533e-05,6.676979410258355e-06,-1.0928607480309438e-05,6.213909364305437e-05
-2.429446976748295e-05,2.4244998712674715e-05,3.4666936699068174e-06,-1.1749655641324352e-05,5.555515963351354e-05
-2.287092684127856e-05,2.2186768546816893e-05,1.19616470328765e-06,-1.0242625648970716e-05,5.471182885230519e-05
-2.4039525669650175e-05,2.243585913674906e-05,-4.105572202206531e-07,-7.423795068461914e-06,5.627944483421743e-05
-2.9494107366190292e-05,2.2832542526884936e-05,-2.4449548163829604e-08,-2.142013954653521e-06,5.564020466408692e-05
-3.048359758395236e-05,2.5858831577352248e-05,2.2913188786333194e-06,6.558203722306644e-07,5.794129174319096e-05
-2.6778108804137446e-05,2.881137879739981e-05,1.538855485705426e-06,-3.1261349704436725e-06,6.036877675796859e-05
-2.3936876459629275e-05,2.798026253003627e-05,-3.5887754989971654e-08,-9.805172339838464e-06,5.925292134634219e-05
-2.3664380933041684e-05,2.591812881291844e-05,1.5610711443514447e-06,-1.4320906302600633e-05,5.88870097999461e-05
-2.6506317226449028e-05,2.40085028053727e-05,5.6553194553998765e-06,-1.5177653949649539e-05,5.746988608734682e-05
-2.637093530211132e-05,2.303784276591614e-05,6.821402621426387e-06,-1.1700009054038674e-05,5.751565913669765e-05
-2.0770259652636014e-05,2.6795340090757236e-05,4.699315013567684e-06,-1.000960219244007e-05,5.8180732594337314e-05
-1.7908043446368538e-05,3.328163438709453e-05,3.2208174616243923e-06,-1.1666194950521458e-05,5.886081635253504e-05
-1.9811188394669443e-05,3.377268149051815e-05,1.8915891359938541e-06,-1.2141749721195083e-05,6.02054460614454e-05
-2.2613259716308676e-05,2.9161228667362593e-05,-3.3281693845310656e-07,-1.2180314115539659e-05,6.0837348428322e-05
-2.5931864001904614e-05,2.2039983377908356e-05,-8.347694802068872e-07,-1.0786273378471378e-05,5.8275611081626266e-05
-2.977972326334566e-05,2.0666595446527936e-05,-1.5878368913035956e-06,-1.0933357771136798e-05,5.73923098272644e-05
-3.116781226708554e-05,2.3889813746791333e-05,-3.8028645121812588e-06,-1.2899092325824313e-05,5.928053360548802e-05
-2.812674210872501e-05,2.4668155674589798e-05,-3.5478908557706745e-06,-1.4723564163432457e-05,5.877263902220875e-05
-2.591045449662488e-05,2.0523746570688672e-05,-1.2071723176632077e-06,-1.4966430171625689e-05,5.480460822582245e-05
-2.8246115107322112e-05,1.6709580449969508e-05,7.037332920845074e-07,-1.3728957128478214e-05,5.383363168220967e-05
-3.12868069158867e-05,1.643157156649977e-05,2.0343081814644393e-06,-9.942009455699008e-06,5.856162897543982e-05
-3.1283834687201306e-05,1.8818927856045775e-05,4.589345280692214e-06,-5.883518952032318e-06,6.216939073055983e-05
-3.110517718596384e-05,2.3161970602814108e-05,7.424397153954487e-06,-7.0089408836793154e-06,6.078281148802489e-05
-3.268606087658554e-05,2.8122487492510118e-05,8.304036782647017e-06,-1.1899707715201657e-05,5.786960173281841e-05
-3.3508789783809334e-05,3.1583163945470005e-05,5.208066340856021e-06,-1.3789013792120386e-05,5.8710651501314715e-05
-3.181901774951257e-05,3.0872764909872785e-05,1.3688485296370345e-06,-9.541502549836878e-06,5.963196235825308e-05
-3.177488542860374e-05,2.537159889470786e-05,-8.08085928838409e-07,-6.1442806327249855e-06,5.7972018112195656e-05
-2.9984064894961193e-05,1.9694263755809516e-05,-1.1907915222764132e-06,-9.042614692589268e-06,5.507646346813999e-05
-2.425075217615813e-05,2.102721919072792e-05,-4.137643372814637e-06,-1.2613758372026496e-05,5.7615088735474274e-05
-2.347621375520248e-05,2.7176680305274203e-05,-9.542965017317329e-06,-1.2248746315890457e-05,6.189447594806552e-05
-2.6149929908569902e-05,3.591436325223185e-05,-1.2776012226822786e-05,-1.3962256161903497e-05,6.114075222285464e-05
-2.2897071175975725e-05,3.993072095909156e-05,-1.1972629181400407e-05,-1.7593409211258404e-05,5.8776822697836906e-05
-1.715588223305531e-05,3.8779897295171395e-05,-7.819360689609312e-06,-1.9176892237737775e-05,5.8530356909614056e-05
-1.77976289705839e-05,4.0593968151370063e-05,-5.260266334516928e-06,-2.1372879928094335e-05,5.9613052144413814e-05
-2.516570020816289e-05,4.403375351103023e-05,-2.329868948436342e-06,-2.390779809502419e-05,6.030584700056352e-05
-3.371090133441612e-05,4.257054388290271e-05,1.7168797512567835e-06,-2.4843473511282355e-05,5.991387297399342e-05
-3.730726893991232e-05,3.8701451558154076e-05,4.592712684825528e-06,-2.0768391550518572e-05,6.246325938263908e-05
-3.3010554034262896e-05,3.861296136165038e-05,7.957972229633015e-06,-1.3774139915767591e-05,6.355158257065341e-05
-2.6635942049324512e-05,3.920498056686483e-05,1.3655726434080862e-05,-1.1519217878230847e-05,5.8701520174508914e-05
-2.4092303647194058e-05,3.633035157690756e-05,1.8880235074902885e-05,-1.2029975550831296e-05,5.108110053697601e-05
-2.709175896598026e-05,3.4168526326538995e-05,2.2365216864272952e-05,-1.2751972462865524e-05,4.86594726680778e-05
-3.290984022896737e-05,3.648381243692711e-05,2.073523501167074e-05,-1.3329134162631817e-05,5.183062967262231e-05
-3.937608198611997e-05,4.1218416299670935e-05,1.4592655134038068e-05,-1.1760099368984811e-05,5.2740364480996504e-05
-4.474268644116819e-05,4.362731851870194e-05,9.830099770624656e-06,-1.1328039363434073e-05,5.049714309279807e-05
-4.344434637459926e-05,4.2680967453634366e-05,1.0697108336898964e-05,-1.3221460903878324e-05,4.9183650844497606e-05
-4.008818723377772e-05,4.158094452577643e-05,1.3575922821473796e-05,-1.518719091109233e-05,4.994474147679284e-05
-4.076792174600996e-05,4.1208131733583286e-05,1.3825354471919127e-05,-1.6882964700926095e-05,5.289324326440692e-05
-4.252566577633843e-05,3.890025618602522e-05,1.0404501153971069e-05,-1.8193406503996812e-05,5.72720673517324e-05
-4.1076476918533444e-05,3.6219342291587964e-05,1.3722172980124014e-06,-2.015185782511253e-05,5.928250902798027e-05
-3.764111897908151e-05,3.6231398553354666e-05,-1.0473092515894677e-05,-2.3073815100360662e-05,5.655200220644474e-05
-3.5498884244589135e-05,3.689725053845905e-05,-1.7829155694926158e-05,-2.4180686523322947e-05,5.1731673011090606e-05
-3.4275213693035766e-05,3.5253069654572755e-05,-1.7608548660064116e-05,-2.2465150323114358e-05,5.0691651267698035e-05
-3.365572410984896e-05,3.205185566912405e-05,-1.3712588952330407e-05,-2.0288793166400865e-05,5.3638523240806535e-05
-3.43659776262939e-05,3.347628808114678e-05,-9.989106729335617e-06,-1.8202514183940366e-05,5.750756827183068e-05
-3.3321979572065175e-05,3.802335777436383e-05,-2.523734565329505e-06,-1.5737663488835096e-05,6.079555896576494e-05
-3.2031173759605736e-05,4.071818693773821e-05,1.141574375651544e-05,-1.2962896107637789e-05,6.208915874594823e-05
-3.0215676815714687e-05,4.021602217108011e-05,2.077043245662935e-05,-9.458542081119958e-06,6.274471525102854e-05
-2.872453478630632e-05,3.829146226053126e-05,2.2043654098524712e-05,-5.571953352045966e-06,6.140860205050558e-05
-2.7612024496193044e-05,3.409560667932965e-05,2.1911992007517256e-05,-3.8142748053360265e-06,5.800855069537647e-05
-2.63660003838595e-05,2.7911897632293403e-05,2.26096817641519e-05,-3.122521775367204e-06,5.662300463882275e-05
-2.439887248328887e-05,2.5991186703322455e-05,2.0589804989867844e-05,-1.9603514829213964e-06,5.7791301514953375e-05
-2.0874647816526704e-05,2.4663659132784232e-05,1.7320377082796767e-05,3.656870433133008e-07,6.364432192640379e-05
-2.478510759829078e-05,2.4691042199265212e-05,1.5093459296622314e-05,4.583264967550349e-07,6.63008977426216e-05
-3.269813896622509e-05,2.6528139642323367e-05,1.635667467780877e-05,-2.8854292395408265e-06,6.505085912067443e-05
-4.015744343632832e-05,2.654675699886866e-05,1.9388808141229674e-05,-6.022792149451561e-06,6.245550321182236e-05
-4.10252068832051e-05,2.658725861692801e-05,2.0930719983880408e-05,-8.963344043877441e-06,6.115825817687437e-05
-3.4320259146625176e-05,2.6078203518409282e-05,1.9234234059695154e-05,-1.222677656187443e-05,6.189513806020841e-05
-2.8149417630629614e-05,2.244268762296997e-05,1.6041718481574208e-05,-1.529288238089066e-05,6.572243728442118e-05
-2.5743436708580703e-05,1.7083199054468423e-05,1.4982517313910648e-05,-1.6102578229038045e-05,6.791369378333911e-05
-2.5621218810556456e-05,1.7264188500121236e-05,1.4906728210917208e-05,-1.6731944924686104e-05,6.575822044396773e-05
-2.5394041585968807e-05,2.19501816900447e-05,1.466370486014057e-05,-1.7205265976372175e-05,6.393115472747013e-05
-2.5498249669908546e-05,2.5737308533280157e-05,1.4393051060324069e-05,-1.507026991021121e-05,6.209312414284796e-05
-2.3784201403032057e-05,2.5222530894097872e-05,1.269155018235324e-05,-1.3267147551232483e-05,6.17334371781908e-05
-2.1902844309806824e-05,2.2561276637134142e-05,7.942189768073149e-06,-1.338059882982634e-05,6.438594573410228e-05
-2.0678869987023063e-05,2.0714960555778816e-05,3.8552852856810205e-06,-1.2509302905527875e-05,6.79595468682237e-05
-1.961500311153941e-05,2.006051545322407e-05,2.5175720566039672e-06,-1.0131353519682307e-05,7.068317063385621e-05
-1.7841284716269e-05,2.0732735720230266e-05,3.0929620606912067e-06,-9.299142220697831e-06,7.206420559668913e-05
-1.6106871044030413e-05,2.1798785382998176e-05,3.1200790999719175e-06,-1.0396012839919422e-05,6.800659321015701e-05
-1.8507451386540197e-05,2.1718096832046285e-05,2.1848416054126574e-06,-1.1470082426967565e-05,6.176889291964471e-05
-2.1203622964094393e-05,2.08058536372846e-05,7.76914191646938e-07,-1.1011162314389367e-05,5.842023529112339e-05
-2.0500094251474366e-05,1.862164936028421e-05,-8.81206631220266e-07,-1.1168341188749764e-05,6.0524533182615414e-05
-2.0801096979994327e-05,1.6169775335583836e-05,-3.2502566682524048e-06,-1.1348799489496741e-05,6.231468432815745e-05
-1.795902062440291e-05,1.802207771106623e-05,-3.968693363276543e-06,-1.171178064396372e-05,5.90647105127573e-05
-1.3897538337914739e-05,1.8519931472837925e-05,-2.2087233446654864e-06,-1.489523765485501e-05,5.536085882340558e-05
-1.7103380741900764e-05,1.5794690625625663e-05,1.3099394209348247e-06,-1.9311642972752452e-05,5.1389164582360536e-05
-2.4449420379824005e-05,1.5751365936012007e-05,2.2679230369249126e-06,-1.8560955140856095e-05,4.927672489429824e-05
-2.5536739485687576e-05,1.793893170543015e-05,-1.9329636415932328e-06,-1.27048160720733e-05,5.2975006838096306e-05
-2.1034938981756568e-05,2.099603443639353e-05,-6.299729648162611e-06,-8.13548012956744e-06,5.601522934739478e-05
-2.068063804472331e-05,2.304697954969015e-05,-4.02377145292121e-06,-4.742185865325155e-06,5.939924449194223e-05
-2.6067878934554756e-05,2.5445391656830907e-05,1.4333527076360042e-07,-7.227576588775264e-06,6.137254240456969e-05
-3.262803875259124e-05,2.7223311917623505e-05,-1.0524817071200232e-06,-1.1337191608618014e-05,6.266973650781438e-05
-3.516720244078897e-05,2.854216108971741e-05,-1.2745188087137649e-06,-1.1586002983676735e-05,6.448537897085771e-05
-3.373980143805966e-05,2.8941632990608923e-05,6.710476441185165e-07,-8.1796788435895e-06,6.61416634102352e-05
-3.248348002671264e-05,2.7614190912572667e-05,3.2672837733116467e-06,-4.6859763642714825e-06,6.6125146986451e-05
-3.3144013286801055e-05,2.5835628548520617e-05,4.413429451233242e-06,-5.5591558520973194e-06,6.550641410285607e-05
-3.222435771021992e-05,2.3682094251853414e-05,1.7639169982430758e-06,-8.087472451734357e-06,6.50835208944045e-05
-2.5070732590393163e-05,2.4542441678931937e-05,-3.086984861511155e-06,-7.655396984773688e-06,6.269041477935389e-05
-1.6149442672031e-05,2.83032568404451e-05,-4.672487648349488e-06,-5.847404281666968e-06,6.15609169472009e-05
-1.3300914361025207e-05,3.241462036385201e-05,-5.953285722171131e-07,-6.033511908754008e-06,6.0761842178180814e-05
-1.6650370525894687e-05,3.1475825380766764e-05,3.8875436985108536e-06,-7.337955594266532e-06,5.8687797718448564e-05
-2.1098710931255482e-05,2.4400338588748127e-05,4.8553733904554974e-06,-9.755207429407164e-06,5.5933051044121385e-05
-2.184780896641314e-05,1.5662264559068717e-05,4.019434072688455e-06,-1.0691163879528176e-05,5.755842721555382e-05
-2.0099560060771182e-05,1.4208899301593192e-05,3.0447474728134694e-06,-1.0083817869599443e-05,6.181880598887801e-05
-1.8718545106821693e-05,2.0687997675850056e-05,1.2606428754224908e-06,-9.82788060355233e-06,6.330086762318388e-05
-1.8334387277718633e-05,2.7746906198444776e-05,-8.181849011634768e-07,-9.984171811083797e-06,6.126740481704473e-05
-1.8079688743455335e-05,2.9135037038940936e-05,-1.29675959215092e-06,-7.310519322345499e-06,6.025858601788059e-05
-1.8887036276282743e-05,2.484830838511698e-05,-7.926929015411588e-07,-1.756245069373108e-06,5.927358870394528e-05
-1.8391679986962117e-05,1.9929941117879935e-05,2.106975216520368e-06,2.643512061695219e-06,5.818568752147257e-05
-1.6378880900447257e-05,2.0848623535130173e-05,3.0451005841314327e-06,5.051439984526951e-06,5.8545392676023766e-05
-1.5358638847828843e-05,2.8393811589921825e-05,1.518435624348058e-06,7.52673986426089e-06,6.066959031159058e-05
-1.7077034499379806e-05,3.5200318961869925e-05,7.416863809339702e-06,6.644264885835582e-06,6.240321090444922e-05
-1.6339534340659156e-05,3.562787969713099e-05,1.521825288364198e-05,7.009333785390481e-06,6.131891132099554e-05
-1.1989735867246054e-05,3.326555452076718e-05,1.624135984457098e-05,7.983114301168825e-06,6.119009049143642e-05
-7.961653864185791e-06,3.115351137239486e-05,1.274196711165132e-05,8.550692655262537e-06,6.0556005337275565e-05
-6.887148174428148e-06,3.0235358281061053e-05,1.033447369991336e-05,1.1438867659308016e-05,6.107919034548104e-05
-1.0691331226553302e-05,3.37433630193118e-05,9.78671778284479e-06,1.025510391627904e-05,6.239938375074416e-05
-1.3557081729231868e-05,3.7506917578866705e-05,1.328308462689165e-05,5.607853381661698e-06,5.737671017413959e-05
-1.594748391653411e-05,3.7002715544076636e-05,1.4184692190610804e-05,1.0625846016409923e-06,5.369290374801494e-05
-1.8150343748857267e-05,3.283915430074558e-05,9.708055586088449e-06,-8.710429710845347e-07,5.7774224842432886e-05
-1.8654345694812946e-05,3.1778781703906134e-05,4.9806835704657715e-06,-1.7948290178537718e-06,6.358534301398322e-05
-1.7422968085156754e-05,3.170902709825896e-05,2.671258698683232e-06,-3.541333626344567e-06,6.334827048704028e-05
-1.7899670638144016e-05,3.134386133751832e-05,4.233453182678204e-06,-4.063078449689783e-06,5.805169348604977e-05
-1.999954656639602e-05,3.124980503343977e-05,5.537460765481228e-06,-3.68552178997561e-07,5.394592153606936e-05
-2.2300338969216682e-05,3.182156797265634e-05,3.307620772829978e-06,2.9950776934128953e-06,5.341337600839324e-05
-2.1983620172250085e-05,3.380033376743086e-05,1.2651890983761405e-06,1.1539830211404478e-06,5.3217208915157244e-05
-2.1710176952183247e-05,3.449215364526026e-05,3.515863681968767e-06,-4.039046416437486e-06,5.192365279071964e-05
-2.5134928364423104e-05,3.404467133805156e-05,6.822835075581679e-06,-7.403687050100416e-06,5.004434933653101e-05
-2.7522455638973042e-05,3.5164743167115375e-05,9.4905226433184e-06,-6.2936196627561e-06,4.8940652050077915e-05
-2.6894966140389442e-05,3.6199500755174085e-05,1.2004329619230703e-05,-2.152600927729509e-06,4.971903399564326e-05
-2.6362569769844413e-05,3.450865187915042e-05,1.3793958714813925e-05,-1.175083639282093e-06,5.275039075058885e-05
-2.815254993038252e-05,3.2525418646400794e-05,1.2457572665880434e-05,-6.291018053161679e-06,5.5190328566823155e-05
-2.8334079615888186e-05,3.263545295340009e-05,7.597687726956792e-06,-1.0615198334562592e-05,5.5998611060203984e-05
-2.5525041564833373e-05,3.537325392244384e-05,1.1922583098566975e-06,-9.089957529795356e-06,5.712815618608147e-05
-2.379637044214178e-05,3.533495691954158e-05,-4.771007297676988e-06,-4.84872634842759e-06,5.8207202528137714e-05
-2.44400307565229e-05,3.2880874641705304e-05,-1.5149678802117705e-05,-3.391983682377031e-06,6.053944889572449e-05
-2.3424010578310117e-05,3.177104736096226e-05,-2.831989695550874e-05,-7.736851330264471e-06,6.140032928669825e-05
-2.239288733107969e-05,3.078560985159129e-05,-3.475513949524611e-05,-1.4060342437005602e-05,6.206758553162217e-05
-2.3827051336411387e-05,3.1591505830874667e-05,-2.9123662898200564e-05,-1.6941667126957327e-05,6.151192064862698e-05
-2.3884300389909185e-05,3.55926422344055e-05,-1.736010926833842e-05,-1.84193722816417e-05,5.70575830352027e-05
-2.4561242753406987e-05,3.8133268390083686e-05,-5.722222340409644e-06,-1.7950826077139936e-05,5.5563497880939394e-05
-2.5627095965319313e-05,3.83002043236047e-05,6.185456641105702e-06,-1.767931280483026e-05,5.861429963260889e-05
-2.6599105694913305e-05,3.6201228795107454e-05,1.7152731743408367e-05,-1.788931513146963e-05,5.918651368119754e-05
-3.194750752300024e-05,3.0710099963471293e-05,2.669340028660372e-05,-1.5018007616163231e-05,5.7325189118273556e-05
-3.6918419937137514e-05,2.5590945369913243e-05,3.2323474442819133e-05,-1.0588883014861494e-05,5.5370208428939804e-05
-3.583402940421365e-05,2.6680831069825217e-05,3.365854354342446e-05,-7.241642833832884e-06,5.691093247151002e-05
-3.163762085023336e-05,3.1102845241548494e-05,3.204539461876266e-05,-6.314046459010569e-06,5.910314212087542e-05
-3.394270606804639e-05,3.4210079320473596e-05,3.088797893724404e-05,-7.237902991619194e-06,6.122294144006446e-05
-3.4636650525499135e-05,3.3232390705961734e-05,2.832792051776778e-05,-5.825012067361968e-06,6.13796291872859e-05
-3.203110827598721e-05,2.720067641348578e-05,2.1199646653258242e-05,-2.606678435768117e-06,6.033233512425795e-05
-2.8998769266763702e-05,2.1771551473648287e-05,1.563333898957353e-05,-1.2115873460061266e-06,5.995152241666801e-05
-2.7492245862958953e-05,2.040886101895012e-05,1.1105791600130033e-05,-2.4042526547418674e-06,6.100528844399378e-05
-2.637582838360686e-05,2.177528222091496e-05,7.575570634799078e-06,-8.539207556168549e-06,6.246781413210556e-05
-2.4950935767265037e-05,2.4398381356149912e-05,4.798471763933776e-06,-1.662863178353291e-05,6.18659469182603e-05
-2.482555282767862e-05,2.726364073168952e-05,3.0518513085553423e-06,-1.9951456124545075e-05,6.1008606280665845e-05
-2.5092944269999862e-05,2.5116478354902938e-05,4.648539743357105e-06,-1.7545875380164944e-05,6.108517845859751e-05
-2.763520387816243e-05,1.983422589546535e-05,7.971803825057577e-06,-1.3284704436955508e-05,6.154707807581872e-05
-2.9465838451869786e-05,1.9464321667328477e-05,7.540077149315039e-06,-1.0769985237857327e-05,6.103415944380686e-05
-2.928125650214497e-05,2.4897317416616715e-05,1.6162596239155391e-06,-1.2057378626195714e-05,6.033367753843777e-05
-2.850061355275102e-05,2.9486607672879472e-05,-5.073424745205557e-06,-1.4267243386711925e-05,5.873980262549594e-05
-2.9898525099270046e-05,2.987502193718683e-05,-8.430804882664233e-06,-1.394935588905355e-05,5.656765279127285e-05
-3.1751722417538986e-05,2.5581988666090183e-05,-5.756590326200239e-06,-1.2303299627092201e-05,5.4178686696104705e-05
-3.1473009585170075e-05,2.1357722289394587e-05,-2.668607066880213e-06,-9.744975614012219e-06,5.385341864894144e-05
-2.817592212522868e-05,2.241264701297041e-05,-4.230557351547759e-06,-7.900275704741944e-06,5.5884764151414856e-05
-3.0466062526102178e-05,2.3447228159056976e-05,-8.642506145406514e-06,-9.851155482465401e-06,5.843782491865568e-05
-3.467405622359365e-05,2.2295806047623046e-05,-8.16848569229478e-06,-1.462919135519769e-05,5.77702303417027e-05
-3.482724787318148e-05,2.1750214727944694e-05,-3.3295427783741616e-06,-1.665780473558698e-05,5.627303835353814e-05
-3.298615411040373e-05,2.574993050075136e-05,-2.750115527305752e-06,-1.6554646208533086e-05,5.810118091176264e-05
-3.341067713336088e-05,2.965984822367318e-05,-4.5867964217904955e-06,-1.642841743887402e-05,6.290857709245756e-05
-3.238667341065593e-05,2.7265963581157848e-05,-4.923959750158247e-06,-1.5650361092411913e-05,6.663496606051922e-05
-3.213883610442281e-05,2.6744173737824894e-05,-4.361723313195398e-06,-1.5911078662611544e-05,6.821913120802492e-05
-3.0956412956584245e-05,2.7705660613719374e-05,-5.062715899839532e-06,-1.9889383111149073e-05,6.660025974269956e-05
-2.5210558305843733e-05,2.5531351639074273e-05,-1.0186172403336968e-05,-2.4341632524738088e-05,6.698103243252262e-05
-2.1538777218665928e-05,2.5694658688735217e-05,-1.760970008035656e-05,-2.440805110381916e-05,6.719054363202304e-05
-2.11626902455464e-05,2.6460827939445153e-05,-2.3778589820722118e-05,-2.424862759653479e-05,6.481482705567032e-05
-2.2939089831197634e-05,2.5128381821559742e-05,-2.5127230401267298e-05,-2.332206531718839e-05,6.247026612982154e-05
-2.5409661247977056e-05,2.1788529920740984e-05,-2.0657822460634634e-05,-2.232159567938652e-05,6.023139940225519e-05
-3.091521284659393e-05,2.006594331760425e-05,-1.2542462172859814e-05,-1.8865024685510434e-05,5.8461384469410405e-05
-3.405614188523032e-05,2.087524626404047e-05,-6.158801625133492e-06,-1.2902168236905709e-05,5.491778574651107e-05
-3.21380612149369e-05,2.1085019398014992e-05,-4.0677338120076456e-07,-7.601270681334427e-06,5.1099657866870984e-05
-3.0439816327998415e-05,2.009682430070825e-05,8.210879968828522e-06,-5.679329660779331e-06,4.9017697165254503e-05
-3.399417983018793e-05,1.8206736058345996e-05,1.858077484939713e-05,-6.518378540931735e-06,5.052808046457358e-05
-4.020066626253538e-05,1.8977319996338338e-05,2.7266356482869014e-05,-7.3748624345171265e-06,5.377528941608034e-05
-4.3489562813192606e-05,2.240088360849768e-05,3.196653779014014e-05,-6.764166300854413e-06,5.4842577810632065e-05
-4.269167038728483e-05,2.5709980036481284e-05,3.269523222115822e-05,-6.588048563571647e-06,5.380458605941385e-05
-4.052485746797174e-05,2.5864384952001274e-05,3.0273393349489197e-05,-9.893116839521099e-06,5.465288268169388e-05
-3.759180981433019e-05,2.331636642338708e-05,2.7845624572364613e-05,-1.2368901479931083e-05,5.769125709775835e-05
-3.1008123187348247e-05,2.0467976355575956e-05,2.906144072767347e-05,-1.1850619557662867e-05,5.846959538757801e-05
-2.1940606529824436e-05,1.8892895241151564e-05,2.9513930712710135e-05,-1.124932441598503e-05,5.826284541399218e-05
-1.766257810231764e-05,2.1088360881549306e-05,2.4021859644562937e-05,-1.2948442417837214e-05,5.98356818954926e-05
-1.886826430563815e-05,2.740529816946946e-05,1.7899767044582404e-05,-1.234462069987785e-05,6.096330616855994e-05
-1.8303362594451755e-05,3.159041079925373e-05,1.4801295947108883e-05,-1.0694046977732796e-05,6.052548633306287e-05
-1.6732959920773283e-05,3.245997504564002e-05,1.5056221855047625e-05,-1.234119372384157e-05,5.973312727292068e-05
-1.9696890376508236e-05,3.150301199639216e-05,1.1129590347991325e-05,-1.4546361853717826e-05,6.037615457898937e-05
-2.4669785489095375e-05,3.0426668672589585e-05,3.9879491851024795e-06,-1.4342905160447117e-05,6.2079299823381e-05
-2.8081238269805908e-05,2.9345039365580305e-05,1.5124278718303685e-07,-1.8231265130452812e-05,6.3244195189327e-05
-2.841859713953454e-05,2.680812031030655e-05,2.913029106821341e-07,-2.109127672156319e-05,6.0364742239471525e-05
-2.3890876036603004e-05,2.677315569599159e-05,3.889240360877011e-07,-1.7795317035051994e-05,5.792025331174955e-05
-2.0740610125358216e-05,2.8520802516140975e-05,-2.2431285628954356e-07,-1.0721502803789917e-05,5.401553426054306e-05
-2.330081770196557e-05,3.0018039979040623e-05,1.0745336567197228e-06,-4.831044407183072e-06,5.224979395279661e-05
-2.719583790167235e-05,2.8675485737039708e-05,2.7733240131055936e-06,-3.761539119295776e-06,5.550669084186666e-05
-2.5599467335268855e-05,2.655818207131233e-05,3.6546593946695793e-06,-6.868796390335774e-06,6.002432564855553e-05
-1.956711093953345e-05,2.6612095098244026e-05,3.7906609122728696e-06,-1.0108444257639349e-05,6.243374809855595e-05
-1.7327933164779097e-05,2.831573146977462e-05,2.152246452169493e-06,-8.233611879404634e-06,6.617220060434192e-05
-1.8979992091772147e-05,3.092977567575872e-05,-3.4367944863333832e-06,-5.5843211157480255e-06,6.916445272509009e-05
-2.1954323528916575e-05,3.162533539580181e-05,-7.2698953772487585e-06,-5.083751148049487e-06,6.659138307441026e-05
-2.3930915631353855e-05,2.9193584850872867e-05,-7.545586413471028e-06,-8.935553523770068e-06,6.367032619891688e-05
-2.3675846023252234e-05,2.7409860194893554e-05,-4.019017069367692e-06,-1.5931320376694202e-05,6.20827850070782e-05
-2.3425420295097865e-05,2.8208549338160083e-05,1.4177680895954836e-06,-2.1329664377844892e-05,6.210283027030528e-05
-2.5674029529909603e-05,2.9685468689422123e-05,7.163303962443024e-06,-2.211144965258427e-05,6.176909664645791e-05
-2.8910228138556704e-05,2.845648123184219e-05,1.1815012840088457e-05,-2.3366657842416316e-05,6.057805512682535e-05
-3.2929234293987975e-05,2.6128676836378872e-05,1.2634483937290497e-05,-2.382665297773201e-05,6.044704423402436e-05
-3.5514833143679425e-05,2.7264411983196624e-05,1.005719241220504e-05,-1.8976190403918736e-05,6.269622099353e-05
-3.297368675703183e-05,2.9667136914213188e-05,5.990793397359084e-06,-1.5113104382180609e-05,6.361417763400823e-05
-2.9332290068850853e-05,2.9433913368848152e-05,6.625341029575793e-06,-1.541081837785896e-05,6.241769006010145e-05
-2.6508825612836517e-05,2.807586315611843e-05,1.1204052498214878e-05,-1.671583049756009e-05,5.904107092646882e-05
-2.4841046979418024e-05,2.7566429707803763e-05,9.895034054352436e-06,-1.7099584511015564e-05,5.703006172552705e-05
-2.2877924493514e-05,2.7473352020024322e-05,3.1400511488755e-06,-1.6505731764482334e-05,5.734921433031559e-05
-2.0819301425945014e-05,3.01537656923756e-05,-3.3590701775665366e-08,-1.6759544450906105e-05,5.960238922853023e-05
-2.4545512133045122e-05,3.0258079277700745e-05,-6.034927650944155e-07,-1.7437818314647302e-05,6.239041977096349e-05
-3.0026621971046552e-05,2.7261541617917828e-05,-7.214762263174634e-07,-1.5455272659892216e-05,6.165615195641294e-05
-2.871011929528322e-05,2.297786886629183e-05,1.2993349400858278e-06,-1.0393634511274286e-05,5.7043474953388795e-05
-2.4917942937463522e-05,2.085388587147463e-05,5.642090400215238e-06,-8.568501471017953e-06,5.3952237067278475e-05
-2.4166856746887788e-05,2.273738573421724e-05,8.184281796275172e-06,-9.452074664295651e-06,5.315348971635103e-05
-2.6416255423100665e-05,2.5179362637572922e-05,7.374699180218158e-06,-5.365760898712324e-06,5.501015402842313e-05
-2.7400148610468023e-05,3.0504807000397705e-05,6.96610868544667e-06,-4.153408553975169e-06,5.731188866775483e-05
-2.0545128791127354e-05,3.694969927892089e-05,8.24080689199036e-06,-6.597276751563186e-06,5.7759691117098555e-05
-1.2298797628318425e-05,4.002966306870803e-05,9.406692697666585e-06,-9.475863407715224e-06,5.6213590141851455e-05
-9.880136531137396e-06,3.649473001132719e-05,1.1575929420359898e-05,-1.2198482181702275e-05,5.5717559007462114e-05
-1.1623728823906276e-05,3.450836084084585e-05,1.2866928955190815e-05,-9.548238267598208e-06,5.556756877922453e-05
-1.4131055650068447e-05,3.573860158212483e-05,1.1943693607463501e-05,-4.096802967978874e-06,5.604900070466101e-05
-1.5549390809610486e-05,3.5364821087569e-05,1.2474825780373067e-05,1.527438371340395e-07,5.8204248489346355e-05
-1.780659113137517e-05,3.3459065889474005e-05,1.4222377103578765e-05,-9.806230991671328e-07,5.9021698689321056e-05
-2.042094274656847e-05,3.2823019864736125e-05,1.3773630598734599e-05,-5.074266937299399e-06,5.942778443568386e-05
-2.2593900212086737e-05,3.45219268638175e-05,9.750017852638848e-06,-7.0144719757081475e-06,5.915989459026605e-05
-2.4793127522571012e-05,3.7304445868358016e-05,5.6871854212658945e-06,-4.184028512099758e-06,5.846809290233068e-05
-3.0239920306485146e-05,3.976518928539008e-05,5.523163508769358e-06,-7.237422892103496e-07,5.824414620292373e-05
-3.495923738228157e-05,3.809689587797038e-05,9.52243590290891e-06,-1.2668928093262366e-06,5.696461084880866e-05
-3.3127515052910894e-05,3.103004564763978e-05,1.4638780157838482e-05,-2.978270458697807e-06,5.459296517074108e-05
-2.9446428015944548e-05,2.5339781132061034e-05,1.7487447621533647e-05,1.8298088377832755e-07,5.486315058078617e-05
-2.8915752409375273e-05,2.7246325771557167e-05,1.7594205928617157e-05,5.164071353647159e-06,5.641745883622207e-05
-2.870243406505324e-05,3.102084156125784e-05,1.6072610378614627e-05,5.466393304232042e-06,5.876514842384495e-05
-2.652295552252326e-05,3.323325654491782e-05,1.1938504940189887e-05,3.074530923186103e-06,6.022079469403252e-05
-2.5342156732222065e-05,3.064455449930392e-05,5.655787390423939e-06,1.2767952739523025e-06,6.042501263436861e-05
-2.7062320441473275e-05,2.765033786999993e-05,2.1421901692519896e-06,-6.204307965163025e-07,6.130966357886791e-05
-3.042559364985209e-05,2.686836160137318e-05,2.9193661248427816e-06,-3.846125309792114e-06,6.332752673188224e-05
-3.313980050734244e-05,2.810189289448317e-05,3.732110371856834e-06,-6.682770617771894e-06,6.542649498442188e-05
-3.0452247301582247e-05,3.119058965239674e-05,-4.380122845759615e-06,-1.0803938494063914e-05,6.696682248730212e-05
-2.523459079384338e-05,3.236097109038383e-05,-1.844357029767707e-05,-1.076269199984381e-05,6.667529669357464e-05
-2.3367410904029384e-05,3.267500505899079e-05,-2.3377553588943556e-05,-9.594692528480664e-06,6.76993076922372e-05
-2.3875016267993487e-05,2.6862511731451377e-05,-1.89882794074947e-05,-1.347770739812404e-05,6.784466677345335e-05
-2.8226049835211597e-05,1.6727117326809093e-05,-1.2517818504420575e-05,-1.7174095773953013e-05,6.80143348290585e-05
-3.431028744671494e-05,1.2670290743699297e-05,-5.457310635392787e-06,-1.5252404409693554e-05,6.541493348777294e-05
-3.567016392480582e-05,1.9048433387069963e-05,3.0309126941574505e-06,-1.3574851436715107e-05,6.106818182161078e-05
-3.269836452091113e-05,2.818023131112568e-05,1.1088716746598948e-05,-1.6761272490839474e-05,5.888053055969067e-05
-3.274807386333123e-05,3.032532549696043e-05,1.799639176169876e-05,-2.0388843040564097e-05,5.750001946580596e-05
-3.309978637844324e-05,2.8838752768933773e-05,2.0996374587411992e-05,-2.0606756152119488e-05,5.829197107232176e-05
-2.8645919883274473e-05,2.929302536358591e-05,1.7618638594285585e-05,-1.7300300896749832e-05,5.904594581807032e-05
-2.1872780052945018e-05,3.17853809974622e-05,1.0109232789545786e-05,-1.5497476852033287e-05,5.7450306485407054e-05
-1.8900902432505973e-05,3.35596087097656e-05,3.7201350551185897e-06,-1.3456578926707152e-05,5.431278623291291e-05
-2.054843025689479e-05,3.1819672585697845e-05,1.426506855750631e-06,-1.0883810318773612e-05,5.570305074797943e-05
-2.1088033463456668e-05,2.7438116376288235e-05,6.944655410734413e-07,-9.589927685738076e-06,5.733375655836426e-05
-1.9563496607588604e-05,2.4501010557287373e-05,8.87997202880797e-07,-8.00180987425847e-06,5.466317816171795e-05
-2.009542367886752e-05,2.4761042368481867e-05,3.24560141962138e-06,-4.281825567886699e-06,5.097013126942329e-05
-2.448594750603661e-05,2.6430470825289376e-05,7.12095970811788e-06,-1.6240044260484865e-06,4.955302210873924e-05
-2.760194183792919e-05,2.5833523977780715e-05,9.035170478455257e-06,-2.59896705756546e-06,5.1439765229588374e-05
-2.6606456231093034e-05,2.3914633857202716e-05,8.321926543430891e-06,-4.642214662453625e-06,5.5120704928413033e-05
-2.3708709704806097e-05,2.376759221078828e-05,6.444639893743442e-06,-4.85774990011123e-06,5.6250442867167294e-05
-1.95489774341695e-05,2.4336348360520788e-05,8.223914846894331e-06,-1.6125825368362712e-06,5.464345667860471e-05
-1.4658219697594177e-05,2.6577818061923608e-05,1.5063839782669675e-05,1.402285761287203e-06,5.3340681915869936e-05
-1.3970368854643311e-05,2.9991693736519665e-05,2.0710573153337464e-05,-2.95401800798345e-08,5.327396866050549e-05
-1.739986146276351e-05,2.955861964437645e-05,1.9825994968414307e-05,-3.7024281027697725e-06,5.242609404376708e-05
-2.163689350709319e-05,2.506359487597365e-05,1.6117628547362983e-05,-3.849607765005203e-06,5.190616866457276e-05
-2.5093011572607793e-05,2.5594441467546858e-05,1.4547695172950625e-05,-1.6945350580499507e-06,5.089811747893691e-05
-3.070899401791394e-05,2.7539768780115992e-05,1.319338298344519e-05,-1.0827881169461762e-06,5.223347034188919e-05
-3.337412636028603e-05,2.4972188839456066e-05,9.408881851413753e-06,-1.2094886869817856e-07,5.7806126278592274e-05
-2.793872045003809e-05,2.5601299057598226e-05,4.326504949858645e-06,-2.3196621441456955e-06,5.898238669033162e-05
-2.2877848095959052e-05,2.9570754122687504e-05,4.2847395889111795e-06,-7.228416507132351e-06,5.597278141067363e-05
-1.9818282453343272e-05,3.133638892904855e-05,6.901268079673173e-06,-7.956751687743235e-06,5.477384911500849e-05
-2.2077219909988344e-05,2.8932434361195192e-05,9.03708041732898e-06,-8.27697294880636e-06,5.758035331382416e-05
-2.654846502991859e-05,2.5212028049281798e-05,1.1683629963954445e-05,-1.0706217835831922e-05,5.988730481476523e-05
-2.920338374678977e-05,2.3432041416526772e-05,1.4580695278709754e-05,-1.0365311936766375e-05,5.6568056606920436e-05
-2.8530790586955845e-05,2.544221206335351e-05,1.5929219443933107e-05,-4.979570348950801e-06,5.250721369520761e-05
-2.6205994799965993e-05,2.943559411505703e-05,1.4886381904943846e-05,2.244027200504206e-06,5.3485684475163e-05
-2.7952441087109037e-05,3.2393108995165676e-05,1.449278715881519e-05,7.067982551234309e-06,5.841369056724943e-05
-3.091539838351309e-05,3.149194526486099e-05,1.3198899978306144e-05,8.261707080237102e-06,6.234739703359082e-05
-3.223530075047165e-05,3.003605525009334e-05,9.694084837974515e-06,7.359073151746998e-06,6.247001147130504e-05
-3.3725144021445885e-05,3.0204850190784782e-05,5.543589395529125e-06,7.3724991125345696e-06,6.17428740952164e-05
-3.3883268770296127e-05,3.077984365518205e-05,2.2005406208336353e-06,6.597964784305077e-06,6.180908530950546e-05
-3.0264485758380033e-05,3.100725734839216e-05,-1.2365791235424695e-06,2.533128281356767e-06,6.197411858011037e-05
-2.9606217140099034e-05,2.9580844056908973e-05,-3.66129279427696e-06,-2.8276526791159995e-06,6.247635610634461e-05
-3.337214729981497e-05,2.735972338996362e-05,-3.5120904158247868e-06,-5.577568572334712e-06,6.22945444774814e-05
-3.352247949806042e-05,2.5240731702069752e-05,-1.042072995005583e-06,-6.872721769468626e-06,6.282786489464343e-05
-2.9950630050734617e-05,2.3983886421774514e-05,6.333213491416245e-07,-9.098210284719244e-06,6.529617530759424e-05
-2.9115179131622426e-05,2.362550912948791e-05,-1.2656138324018684e-06,-9.132410013990011e-06,6.904104520799592e-05
-3.0101264201221056e-05,2.3963213607203215e-05,-5.027679435443133e-06,-6.8898707468179055e-06,7.131034362828359e-05
-3.2503314287168905e-05,2.5492159693385474e-05,-5.960589533060556e-06,-6.6122302087023854e-06,7.140921661630273e-05
-3.84023405786138e-05,2.8706914235954173e-05,-2.815962488966761e-06,-7.62073022997356e-06,7.149741577450186e-05
-4.593060657498427e-05,2.8450198442442343e-05,1.363032993140223e-07,-1.061591501638759e-05,7.045581878628582e-05
-4.886412716587074e-05,2.5973859010264277e-05,7.735615525916728e-08,-1.4543420547852293e-05,6.702453538309783e-05
-4.351788811618462e-05,2.1062987798359245e-05,-1.6259998574241763e-06,-1.621789124328643e-05,6.319070234894753e-05
-3.212641240679659e-05,1.4523606296279468e-05,-6.030430540704401e-06,-1.5492541933781467e-05,6.188808765728027e-05
-2.712300374696497e-05,1.2079535736120306e-05,-8.674667697050609e-06,-1.0638435014698189e-05,6.305670831352472e-05
-3.218680285499431e-05,1.3756375665252563e-05,-4.376587639853824e-06,-4.979875029675895e-06,6.423945160349831e-05
-3.6737812479259446e-05,1.3479815606842749e-05,-1.917568397402647e-06,-2.1420455595944077e-06,6.397767720045522e-05
-3.4579945349833e-05,1.2383564353513066e-05,-1.949454372152104e-06,-4.317719685786869e-06,6.324663991108537e-05
-2.9506927603506483e-05,1.6528574633412063e-05,-3.650374310382176e-06,-9.423029950994533e-06,5.9312234952813014e-05
-2.3836475520511158e-05,2.0444376787054352e-05,-4.543999239103869e-06,-1.4263230696087703e-05,5.4749511036789045e-05
-1.981189961952623e-05,2.1084611944388598e-05,-2.5057133825612254e-06,-1.6556892660446465e-05,5.13466184202116e-05
-2.2686632291879505e-05,2.36237083299784e-05,-1.6712541537344805e-06,-1.594156310602557e-05,5.007469007978216e-05
-2.8435852073016576e-05,2.722894168982748e-05,-1.489197529735975e-06,-1.423887260898482e-05,5.0465940148569643e-05
-3.1868104997556657e-05,2.9793720386805944e-05,-2.780094064291916e-06,-1.3066460269328672e-05,4.992386675439775e-05
-3.2194515370065346e-05,3.179936538799666e-05,-4.945693945046514e-06,-1.0340166227251757e-05,4.902379077975638e-05
-3.0151450118864886e-05,3.5241122532170266e-05,-4.882187113253167e-06,-7.397734407277312e-06,4.86418284708634e-05
-2.7278592824586667e-05,4.115065166843124e-05,-2.6995724056178005e-06,-8.499372597725596e-06,4.886451279162429e-05
-2.7184905775357038e-05,4.442791032488458e-05,-6.059100314814714e-07,-1.280227934330469e-05,4.855254519497976e-05
-2.821508314809762e-05,4.2474581277929246e-05,-1.2598582088685362e-07,-1.5193822946457658e-05,4.8960802814690396e-05
-2.7466452593216673e-05,3.852221925626509e-05,-3.337010241466487e-07,-1.4888135410728864e-05,5.070047700428404e-05
-2.608300383144524e-05,3.727346847881563e-05,1.0500293683435302e-06,-1.595487083250191e-05,5.1548591727623716e-05
-2.5246836230508052e-05,3.7960569898132235e-05,4.874216301686829e-06,-1.8044795069727115e-05,5.109270932734944e-05
-2.4949915314209647e-05,3.737338920473121e-05,8.37791412777733e-06,-1.8839720723917708e-05,5.247835724730976e-05
-2.3256343411048874e-05,3.478635335341096e-05,1.0545893928792793e-05,-1.7983260477194563e-05,5.639544178848155e-05
-1.8717524653766304e-05,3.426932744332589e-05,1.2168842658866197e-05,-1.908459307742305e-05,5.98263468418736e-05
-1.863760371634271e-05,3.3477917895652354e-05,1.3665779079019558e-05,-2.2489064576802775e-05,5.853902985109016e-05
-2.469932042004075e-05,2.9955528589198366e-05,1.4332647879200522e-05,-2.5206358259310946e-05,5.492410127772018e-05
-2.674536699487362e-05,2.9053409889456816e-05,1.245761632162612e-05,-2.1778578229714185e-05,5.393466562964022e-05
-2.1439567717607133e-05,3.1585492251906544e-05,9.096600479097106e-06,-1.5918081771815196e-05,5.476803926285356e-05
-1.6534309907001443e-05,3.558334719855338e-05,8.105957931547891e-06,-1.4092716810409911e-05,5.436937135527842e-05
-1.6375282939407043e-05,3.6207144148647785e-05,8.629721378383692e-06,-1.6119431165861897e-05,5.582558151218109e-05
-1.4853914763079956e-05,3.622999065555632e-05,6.264126113819657e-06,-1.5341838661697693e-05,6.0690828831866384e-05
-1.3090590982756112e-05,3.607128019211814e-05,1.9430613065196667e-06,-1.143094414146617e-05,6.47846536594443e-05
-1.3189457604312338e-05,3.091301186941564e-05,1.614707798580639e-06,-1.0274216037942097e-05,6.259920337470248e-05
-1.2524418707471341e-05,2.8885051506222226e-05,5.255868018139154e-06,-1.1242078471696004e-05,5.8736470236908644e-05
-1.0555532753642183e-05,2.7841711926157586e-05,6.551159003720386e-06,-1.4262524928199127e-05,5.7127021136693656e-05
-1.043168504111236e-05,2.292448334628716e-05,8.098645594145637e-06,-1.7895818018587306e-05,5.798095298814587e-05
-1.4725126675330102e-05,2.1191655832808465e-05,7.516403002227889e-06,-1.9287559553049505e-05,5.895588037674315e-05
-2.1186160665820353e-05,2.527779906813521e-05,6.978284545766655e-06,-1.6996191334328614e-05,5.7761666539590806e-05
-2.4995688363560475e-05,2.9387067115749232e-05,7.89556997915497e-06,-1.4571858628187329e-05,5.768664050265215e-05
-2.6819900085683912e-05,2.8360907890601084e-05,7.627681497979211e-06,-1.6104606402223e-05,5.7856886996887624e-05
-2.9759472454315983e-05,2.627518551889807e-05,4.349224127508933e-06,-1.9078906916547567e-05,5.8135799918090925e-05
-2.946472159237601e-05,2.7352431061444804e-05,6.112359187682159e-07,-1.6726235116948374e-05,5.8347151934867725e-05
-2.950892121589277e-05,3.0145120035740547e-05,2.145446842405363e-06,-1.1944942343689036e-05,5.967987090116367e-05
-3.1452858820557594e-05,3.277388896094635e-05,7.117626410035882e-06,-1.2444100320863072e-05,6.085844506742433e-05
-3.404640301596373e-05,3.2924141123658046e-05,8.403258107136935e-06,-1.5913183233351447e-05,6.227174890227616e-05
-3.691268284455873e-05,3.251877205912024e-05,1.3894779158363235e-06,-1.4907054719515145e-05,6.4021885918919e-05
-3.79106386390049e-05,3.4224442060803995e-05,-6.887922609166708e-06,-1.150864136434393e-05,6.398498953785747e-05
-3.4127046092180535e-05,3.569135151337832e-05,-1.0845994438568596e-05,-1.1780371096392628e-05,6.303103873506188e-05
-2.8806050977436826e-05,3.4388245694572106e-05,-1.1877140423166566e-05,-1.5087029169080779e-05,6.262810347834602e-05
-2.7629526812233962e-05,3.1280109396902844e-05,-1.2430567949195392e-05,-1.8045051547233015e-05,6.359327380778268e-05
-2.6726849682745524e-05,2.999949356308207e-05,-9.95115169644123e-06,-1.8557671864982694e-05,6.336466321954504e-05
-2.402866812190041e-05,3.162193752359599e-05,-4.0551826714363415e-06,-1.6525589671800844e-05,6.067997674108483e-05
-2.2014119167579338e-05,3.14791795972269e-05,2.846147708623903e-06,-1.5156685549300164e-05,5.917226735618897e-05
-2.0685813069576398e-05,2.932521420007106e-05,8.56421138450969e-06,-1.6217758457059972e-05,5.720003173337318e-05
-1.808429806260392e-05,2.9669008654309437e-05,1.414328198734438e-05,-1.4702722182846628e-05,5.3123701945878565e-05
-1.4742652638233267e-05,2.8804903195123188e-05,1.5623716535628773e-05,-1.420598982804222e-05,4.954400719725527e-05
-1.502715895185247e-05,2.6010309738921933e-05,9.254981705453247e-06,-1.6352121747331694e-05,4.974905459675938e-05
-1.9116645489702933e-05,2.1283893147483468e-05,-2.565703653090168e-06,-1.7915222997544333e-05,5.2740815590368584e-05
-2.2280071789282374e-05,1.8133756384486333e-05,-8.277073902718257e-06,-1.7979951735469513e-05,5.5573767895111814e-05
-2.457760820107069e-05,1.8287404600414447e-05,-6.3816114561632276e-06,-1.663789589656517e-05,5.93190488871187e-05
-2.484495962562505e-05,1.7756874512997456e-05,3.4536319049038866e-07,-1.7168797057820484e-05,6.298865628195927e-05
-2.2965366952121258e-05,2.020071588049177e-05,1.1106201782240532e-05,-1.965925366675947e-05,6.321425462374464e-05
-2.0849834982072935e-05,2.2239104509935714e-05,1.5328250810853206e-05,-2.3295404389500618e-05,6.035486876498908e-05
-2.1589916286757216e-05,2.1977668438921683e-05,1.549921762489248e-05,-2.209340345871169e-05,5.893872366868891e-05
-2.1806104996358044e-05,2.186585516028572e-05,1.8917771740234457e-05,-1.3477911124937236e-05,5.8757559600053355e-05
-2.083020081045106e-05,2.215930726379156e-05,2.480503280821722e-05,-6.323332399915671e-06,5.9121121012140065e-05
-2.160118856409099e-05,2.327920992684085e-05,2.7041493012802675e-05,-4.5490342017728835e-06,5.890654938411899e-05
-2.0799674530280754e-05,2.363836938457098e-05,2.6138026441913098e-05,-6.9145512497925665e-06,5.802217492600903e-05
-1.9087749024038203e-05,2.336024772375822e-05,2.3455133487004787e-05,-1.2951375538250431e-05,5.761177453678101e-05
-2.15473810385447e-05,2.2247932065511122e-05,1.828744643717073e-05,-1.9186370991519652e-05,5.886670624022372e-05
-2.5977797122322954e-05,1.924670323205646e-05,1.3040143130638171e-05,-1.8907925550593063e-05,6.159127951832488e-05
-2.9195165552664548e-05,1.5217437976389192e-05,1.169303595816018e-05,-1.1955929949181154e-05,6.300202221609652e-05
-3.178038969053887e-05,1.4311059203464538e-05,1.5773464838275686e-05,-5.7407564781897236e-06,6.298363587120548e-05
-3.328707316541113e-05,1.8412900317343883e-05,1.9460041585261934e-05,-3.296142267572577e-06,6.087525252951309e-05
-3.184898378094658e-05,2.452815715514589e-05,1.6409028830821626e-05,-4.1825996959232725e-06,5.812093513668515e-05
-2.7980835511698388e-05,2.8804342946386896e-05,7.37306345399702e-06,-6.177457180456258e-06,5.789587157778442e-05
-2.4925413526943885e-05,3.008658859471325e-05,7.728828563813295e-07,-6.655947345279856e-06,5.9656493249349296e-05
-2.4644525183248334e-05,2.9255164918140508e-05,7.203074119388475e-07,-2.492575958967791e-06,6.290843157330528e-05
-2.5839281079242937e-05,2.7551175662665628e-05,2.899175115089747e-06,3.6652413655247074e-06,6.534805288538337e-05
-2.538437365728896e-05,2.521058740967419e-05,2.615651055748458e-06,5.950303602730855e-06,6.530827522510663e-05
-2.2130694560473785e-05,2.4360257157240994e-05,-1.2790807204510202e-06,1.737646925903391e-06,6.11546347499825e-05
-1.8214914234704338e-05,2.632233008625917e-05,-6.9998645813029725e-06,-4.224405984132318e-06,5.764529123553075e-05
-2.117563781212084e-05,2.73101068160031e-05,-8.649633855384309e-06,-4.802841431228444e-06,5.9678724937839434e-05
-2.6672067178878933e-05,2.479756949469447e-05,-1.284974928239535e-06,-2.595434580143774e-06,6.098116500652395e-05
-2.5082448701141402e-05,2.3978249373612925e-05,3.789312359003816e-06,-1.5951995919749606e-06,6.118195597082376e-05
-2.330236202396918e-05,2.6208033887087367e-05,1.3412012549451902e-06,-3.6265194012230495e-06,5.970997881377116e-05
-2.552535261202138e-05,2.5590910809114575e-05,1.6799050399640691e-06,-6.502024461951805e-06,5.6218130339402705e-05
-2.8312975700828247e-05,2.130757457052823e-05,7.328783340199152e-06,-9.864429557637777e-06,5.2454983233474195e-05
-2.9231525331852026e-05,1.872123175417073e-05,1.0429131179989781e-05,-1.3057155229034834e-05,4.9711619794834405e-05
-2.7962700187345035e-05,2.0339644834166393e-05,9.034822141984478e-06,-1.2685448382399045e-05,5.048895764048211e-05
-2.9479382646968588e-05,2.1881367501919158e-05,8.400287697440945e-06,-9.825853339862078e-06,5.475931538967416e-05
-3.12512565869838e-05,1.9302178770885803e-05,8.557713044865523e-06,-8.249739948951174e-06,5.792111187474802e-05
-3.097307853749953e-05,1.49760799104115e-05,8.607918971392792e-06,-1.0584511073830072e-05,5.989188139210455e-05
-3.085847492911853e-05,1.2902805792691652e-05,5.9501726354938e-06,-1.1805147551058326e-05,6.1026330513413996e-05
-3.061871757381596e-05,1.5446821635123342e-05,3.3387102575943572e-06,-9.092053915082943e-06,6.119297177065164e-05
-2.7543617761693895e-05,2.272188794449903e-05,1.7031226207109285e-06,-8.379051905649249e-06,6.278625369304791e-05
-2.4211858544731513e-05,2.7733181923395023e-05,-7.931884056233685e-07,-1.0723728337325156e-05,6.479928561020643e-05
-2.2630485545960255e-05,2.6910609449259937e-05,-4.352835730969673e-06,-1.2409454029693734e-05,6.405170279322192e-05
-2.5102212021010928e-05,2.32682068599388e-05,-5.873529971722746e-06,-1.2693621101789176e-05,6.06869907642249e-05
-2.8865526473964565e-05,2.2133212041808292e-05,-5.286198756948579e-06,-1.4690374882775359e-05,5.8403493312653154e-05
-2.8114569431636482e-05,2.4339389710803516e-05,-6.9565353442158084e-06,-1.8940343579743057e-05,5.615178088191897e-05
-2.4958451831480488e-05,2.663231316546444e-05,-1.0328289135941304e-05,-2.288909126946237e-05,5.594875983661041e-05
-2.2841062673251145e-05,2.982116347993724e-05,-1.217462067870656e-05,-2.6124122086912394e-05,5.832573879160918e-05
-2.1309688236215152e-05,3.437068153289147e-05,-1.0495548849576153e-05,-2.739184128586203e-05,6.185012171044946e-05
-1.906185207189992e-05,3.555930743459612e-05,-7.408248166029807e-06,-2.638979822222609e-05,6.432354712160304e-05
-1.849554064392578e-05,3.342707350384444e-05,-7.683434887439944e-06,-2.3612332370248623e-05,6.538952584378421e-05
-2.058729478449095e-05,3.1822124583413824e-05,-1.1570197784749325e-05,-1.9210559912608005e-05,6.611820572288707e-05
-2.3150472770794295e-05,3.1032279366627336e-05,-1.6199785022763535e-05,-1.5343106497311965e-05,6.967836088733748e-05
-2.3729880922473967e-05,3.1713247153675184e-05,-2.3956001314218156e-05,-1.5593765056109987e-05,7.104859105311334e-05
-2.2683379938825965e-05,3.172691504005343e-05,-2.6533494747127406e-05,-2.0610679712262936e-05,6.81588426232338e-05
-1.7441763702663593e-05,3.141535125905648e-05,-1.9287350369268097e-05,-2.4481329091941006e-05,6.468378705903888e-05
-1.2915244042233098e-05,3.4156953915953636e-05,-1.2507664905569982e-05,-2.17617089219857e-05,6.198771006893367e-05
-1.3824030247633345e-05,3.748714880202897e-05,-8.502243872499093e-06,-1.7031581592164002e-05,6.173337169457227e-05
-1.6029132893891074e-05,3.959308014600538e-05,-3.298513320260099e-06,-1.6297241018037312e-05,6.0475082136690617e-05
-1.5071912457642611e-05,3.9787671994417906e-05,2.7600349312706385e-06,-1.6090270946733654e-05,6.121374462964013e-05
-1.4667035429738462e-05,3.927545185433701e-05,1.081525351764867e-05,-1.5144155440793838e-05,6.335709622362629e-05
-1.5791905752848834e-05,4.2021933040814474e-05,1.767029971233569e-05,-1.5195372725429479e-05,6.425595347536728e-05
-1.520473051641602e-05,4.733068271889351e-05,2.1287251001922414e-05,-1.2482178135542199e-05,6.444322207244113e-05
-1.8415870727039874e-05,5.152781886863522e-05,2.4027403924264945e-05,-7.485335572710028e-06,6.610646960325539e-05
-2.5060930056497455e-05,5.194859841139987e-05,2.6980334951076657e-05,-3.153190846205689e-06,6.643751839874312e-05
-3.118855238426477e-05,4.805669595953077e-05,2.7516958652995527e-05,-1.2834115068471874e-06,6.391095666913316e-05
-3.277520590927452e-05,4.368597728898749e-05,2.5761870347196236e-05,-1.7034020629580482e-06,6.002629015711136e-05
-2.862268956960179e-05,4.313899262342602e-05,2.3764387151459232e-05,-2.0323977878433652e-06,5.899208554183133e-05
-2.2692971469950862e-05,4.513765452429652e-05,2.1848467440577224e-05,-7.857620403228793e-07,6.08895170444157e-05
-1.9319140847073868e-05,4.5564895117422566e-05,2.2445592549047433e-05,1.9039710252855002e-07,5.921264528296888e-05
-2.055897311947774e-05,4.286587136448361e-05,2.4711584046599455e-05,-8.854469797370257e-07,5.5635096941841766e-05
-2.4114851839840412e-05,4.064644599566236e-05,2.3786671590642072e-05,-4.982863629265921e-06,5.5271084420382977e-05
-2.6495619749766774e-05,4.037608960061334e-05,1.764313674357254e-05,-1.1336418538121507e-05,5.614931433228776e-05
-2.5354596800752915e-05,4.131982132093981e-05,1.12686493594083e-05,-1.4266329344536643e-05,5.655427594319917e-05
-2.3708929802523926e-05,4.0647417336003855e-05,6.798252343287459e-06,-1.2360873370198533e-05,5.888954910915345e-05
-2.3838207198423333e-05,3.68559303751681e-05,3.2040663882071385e-06,-9.402972864336334e-06,6.228291022125632e-05
-2.6973506464855745e-05,3.318231392768212e-05,1.1897152489837026e-06,-8.288656317745335e-06,6.709375156788155e-05
-3.230522634112276e-05,3.2083673431770876e-05,3.504455207803403e-06,-1.02851445262786e-05,7.203053974080831e-05
-3.814499723375775e-05,3.110111356363632e-05,8.260812137450557e-06,-1.1686967809509952e-05,7.297260890481994e-05
-4.2467363527975976e-05,2.7149111701874062e-05,1.3386633327172603e-05,-1.2382578461256344e-05,6.81017991155386e-05
-4.256366810295731e-05,2.2675156287732534e-05,1.473126121709356e-05,-1.4652374375145882e-05,6.581280467798933e-05
-3.957513035857119e-05,1.7962740457733162e-05,1.4187965462042484e-05,-1.7995691450778395e-05,6.453278183471411e-05
-3.5289569495944306e-05,1.4733606803929433e-05,1.2915113074996043e-05,-2.0579380361596122e-05,6.147156818769872e-05
-3.293403278803453e-05,1.700673055893276e-05,8.692783012520522e-06,-1.9569031792343594e-05,5.918370152357966e-05
-3.373682193341665e-05,2.0670386220444925e-05,9.603039870853536e-06,-1.7554972146172076e-05,5.848003274877556e-05
-3.6785560951102525e-05,2.4086331904982217e-05,8.823008101899177e-06,-1.4125477719062474e-05,5.69251315027941e-05
-4.10562934121117e-05,2.4835599106154405e-05,1.018732746160822e-06,-1.054377844411647e-05,5.367828271118924e-05
-3.952135375584476e-05,2.1934220058028586e-05,-5.1323486331966706e-06,-9.834284355747513e-06,5.069371036370285e-05
-3.319383176858537e-05,2.0653600586229004e-05,-8.24149992695311e-06,-1.1540126251929905e-05,4.8291596613125876e-05
-2.791055703710299e-05,1.834850809245836e-05,-1.0652068340277765e-05,-1.1475663086457644e-05,5.092464925837703e-05
-2.4196104277507402e-05,1.3913683687860612e-05,-1.0047075193142518e-05,-8.969877853814978e-06,5.446823706733994e-05
-2.126080471498426e-05,1.2969626368430909e-05,-3.5567209124565125e-06,-5.169682026462397e-06,5.620852607535198e-05
-1.7876036508823745e-05,1.478548347222386e-05,3.7770153085148195e-06,-3.6156941405351972e-06,5.59591717319563e-05
-1.57902468345128e-05,1.5383760910481215e-05,6.030346867191838e-06,-5.158897693036124e-06,5.8678277127910405e-05
-1.63473032444017e-05,1.5649247870896943e-05,5.380144102673512e-06,-6.610403943341225e-06,6.22504303464666e-05
-2.080704871332273e-05,1.5443500160472468e-05,8.31918168842094e-06,-8.050519682001323e-06,6.295970524661243e-05
-2.7894082450075075e-05,1.500047801528126e-05,1.5682078810641542e-05,-1.1008064575435128e-05,6.02873697062023e-05
-3.3714037272147834e-05,1.5134411114559043e-05,2.219168709416408e-05,-1.721358421491459e-05,5.644838893203996e-05
-3.479171937215142e-05,1.7051368558895774e-05,2.6868739951169118e-05,-2.329246126464568e-05,5.5900087318150327e-05
-3.362069764989428e-05,2.07360353670083e-05,2.9666374757653102e-05,-2.5750272470759228e-05,5.684857751475647e-05
-3.33019343088381e-05,2.449757812428288e-05,2.817042332026176e-05,-2.2865184291731566e-05,5.6990313169080764e-05
-3.567626481526531e-05,2.6292840630048886e-05,2.3840326321078464e-05,-1.802557017072104e-05,5.58391293452587e-05
-4.09417443734128e-05,2.5565779651515186e-05,1.702143345028162e-05,-1.4362024558067787e-05,5.6173241318902e-05
-4.4643558794632554e-05,2.5118119083344936e-05,1.2544293895189185e-05,-1.4885249584040139e-05,5.6642449635546654e-05
-4.4805387005908415e-05,2.905637120420579e-05,1.4270089195633773e-05,-1.7613268937566318e-05,5.576476178248413e-05
-4.271390207577497e-05,3.2562431442784145e-05,1.4037299479241483e-05,-1.704222449916415e-05,5.235016578808427e-05
-3.574876973289065e-05,3.0299768695840612e-05,7.683695002924651e-06,-1.3306244909472298e-05,5.210264498600736e-05
-2.894045064749662e-05,2.82794535451103e-05,1.251147523362306e-06,-1.1505619113449939e-05,5.849461740581319e-05
-2.443967605358921e-05,2.9375034500844777e-05,4.809974143427098e-07,-1.0396441211923957e-05,6.395860691554844e-05
-2.016517464653589e-05,2.9971875846968032e-05,3.70887255485286e-06,-1.0084131645271555e-05,6.195406604092568e-05
-2.2603995603276417e-05,2.8690208637272008e-05,7.89041405369062e-06,-1.3440261682262644e-05,5.684743882738985e-05
-2.9115362849552184e-05,2.818574103002902e-05,1.0257803296553902e-05,-1.2591863196576014e-05,5.4332860599970445e-05
-3.393962106201798e-05,3.002020275744144e-05,7.319954875129042e-06,-8.456399882561527e-06,5.398266148404218e-05
-3.2686821214156225e-05,3.09824499709066e-05,1.5622927662661823e-07,-4.645532953873044e-06,5.36084444320295e-05
-3.067023499170318e-05,3.0285631510196254e-05,-4.393865765450755e-06,5.03255762396293e-07,5.538831101148389e-05
-3.2034626201493666e-05,3.0048035114305094e-05,-4.962772436556406e-06,4.032037395518273e-06,5.9148114814888686e-05
-3.256470517953858e-05,3.108633609372191e-05,-4.245765012456104e-06,2.3380127913696924e-06,5.9232064813841134e-05
-2.9936409191577695e-05,3.326289152028039e-05,-3.166889655403793e-06,-7.903382197582687e-07,5.7866516726789996e-05
-2.724173100432381e-05,3.386524258530699e-05,-3.283106707385741e-06,6.552834292961052e-07,5.856157804373652e-05
-2.7874666557181627e-05,3.393288352526724e-05,-3.3128121685876977e-06,3.7183856420597294e-06,6.019634020049125e-05
-2.6437524866196327e-05,3.5250755900051445e-05,-1.5179396086750785e-06,2.7997132292512106e-06,5.9732486988650635e-05
-1.8911974621005356e-05,3.822919825324789e-05,2.641647370182909e-06,-2.977026554162876e-07,5.71259151911363e-05
-1.1977526810369454e-05,3.829591878456995e-05,5.89325645705685e-06,-2.4090738861559657e-06,5.748780313297175e-05
-1.3735974789597094e-05,3.2965323043754324e-05,5.955558663117699e-06,-3.7742704535048688e-06,6.142709025880322e-05
-1.6952219084487297e-05,2.8691909392364323e-05,5.170304120838409e-06,-3.452652890700847e-06,6.420517456717789e-05
-1.587231054145377e-05,3.1299157853936777e-05,6.516460871353047e-06,-6.870134257042082e-07,6.482545722974464e-05
-1.557557152409572e-05,3.6111861845711246e-05,5.840335688844789e-06,1.935966793098487e-06,6.357260281220078e-05
-1.9891436750185676e-05,3.74038536392618e-05,2.7577059427130735e-06,2.6342746650698246e-07,6.167092942632735e-05
-2.4688972189323977e-05,3.6632212868425995e-05,2.338563490411616e-06,-5.088471880299039e-06,5.8910660300171e-05
-2.475718065397814e-05,3.57764438376762e-05,4.868355972575955e-06,-8.084043656708673e-06,5.670015889336355e-05
-2.2615833586314693e-05,3.598109833546914e-05,7.816318429831881e-06,-7.672427273064386e-06,5.450406388263218e-05
-2.3643455278943293e-05,3.470873343758285e-05,1.0648314855643548e-05,-1.015316229313612e-05,5.179880099603906e-05
-2.8073274734197184e-05,3.1005798518890515e-05,1.4981650565459859e-05,-1.4266107427829411e-05,5.113132283440791e-05
-2.8568265406647697e-05,2.9333368729567155e-05,1.82109961315291e-05,-1.4420382285607047e-05,5.293091817293316e-05
-2.4886156097636558e-05,2.859973938029725e-05,1.462226555304369e-05,-1.2847897778556217e-05,5.5955242714844644e-05
-2.3855614927015267e-05,2.629448499646969e-05,7.41215353627922e-06,-1.2989738934265915e-05,5.896989023312926e-05
-2.3254182451637462e-05,2.6378162147011608e-05,3.008404064530623e-06,-9.733952538226731e-06,5.979017078061588e-05
-2.3351261916104704e-05,2.7193009373149835e-05,4.899731266050367e-06,-4.626118425221648e-06,5.8010620705317706e-05
-2.7077996492153034e-05,2.6635358153725974e-05,9.201454304275103e-06,-4.840098426939221e-06,5.8696252381196246e-05
-2.8198341169627383e-05,2.5449719032621942e-05,8.79445178725291e-06,-8.219936717068776e-06,6.182066135806963e-05
-2.5145556719508022e-05,2.2893844288773835e-05,6.045720965630608e-06,-9.819451406656299e-06,6.60588193568401e-05
-2.116711766575463e-05,2.1038144041085616e-05,3.328803813928971e-06,-8.871352292771917e-06,6.686415144940838e-05
-1.930678445205558e-05,1.9304536181152798e-05,2.669730974957929e-06,-8.559100024285726e-06,6.405395834008232e-05
-2.0942081391694956e-05,1.720765430945903e-05,3.943523097404977e-06,-8.97305380931357e-06,6.281179958023131e-05
-2.2455355065176263e-05,1.8065618860418908e-05,7.475868187611923e-06,-9.693563697510399e-06,6.507588113890961e-05
-2.3443080863216892e-05,2.0939532987540588e-05,1.0254982953483704e-05,-8.917797458707355e-06,6.55879921396263e-05
-2.2369405996869318e-05,2.3666185370530002e-05,1.0765964361780789e-05,-8.379677638004068e-06,6.4142543124035e-05
-2.060585029539652e-05,2.278313331771642e-05,8.124136911646929e-06,-9.09461232367903e-06,6.349277100525796e-05
-1.9664104911498725e-05,2.111499270540662e-05,4.7747703320055734e-06,-1.052268999046646e-05,6.498534639831632e-05
-1.958673783519771e-05,2.1181676856940612e-05,2.588052666396834e-06,-1.0992599527526181e-05,6.747698353137821e-05
-1.9294117009849288e-05,2.2223845007829368e-05,1.1588581401156262e-06,-1.0105876754096244e-05,6.681577360723168e-05
-1.8181253835791722e-05,2.4459061023662798e-05,-5.646741669806943e-07,-1.0156977623410057e-05,6.487683276645839e-05
-1.9247756426921114e-05,2.4076141926343553e-05,-2.535416797400103e-06,-1.161188538389979e-05,6.331671465886757e-05
-2.2790898583480157e-05,2.0383147784741595e-05,-2.937754516096902e-06,-1.3075778952043038e-05,6.0781618230976164e-05
-2.5524523152853362e-05,1.815894211176783e-05,-5.09684070948424e-07,-1.1341855497448705e-05,5.574707392952405e-05
-2.4900744392652996e-05,2.1009309421060607e-05,2.283049298057449e-06,-6.945099357835716e-06,5.1136245019733906e-05
-2.3858603526605293e-05,2.5555445972713642e-05,3.3947449082916137e-06,-2.0598681658157147e-06,4.990219895262271e-05
-2.5756653485586867e-05,2.7592039259616286e-05,2.5613614980102284e-06,-9.843687394095468e-07,5.2240942750358954e-05
-2.8773500162060373e-05,2.6222856831736863e-05,-2.1268790533213178e-06,-1.1066015304095345e-06,5.221219180384651e-05
-2.964228951896075e-05,2.3853684979258105e-05,-4.228876150591532e-06,2.2302090201264946e-06,5.0927759730257094e-05
-2.8987255063839257e-05,2.2871861801831983e-05,-3.5386417494009947e-06,3.788321464526234e-06,5.196260826778598e-05
-2.4988972654682584e-05,2.367159686400555e-05,-3.7827901451237267e-06,2.8137986873844056e-07,5.326114478521049e-05
-2.190504892496392e-05,2.6783211069414392e-05,-3.303904804852209e-06,-5.230067472439259e-06,5.160592991160229e-05
-2.2326190446619876e-05,3.155699232593179e-05,-1.9200535916752415e-06,-8.41091423353646e-06,4.6844106691423804e-05
-2.4286560801556334e-05,3.411370926187374e-05,3.973662501266517e-07,-4.230540525895776e-06,4.616727164830081e-05
-2.4889928681659512e-05,3.3198564779013395e-05,7.257082870637532e-06,3.895331417425041e-07,5.025122663937509e-05
-2.1963322069495916e-05,3.3510103094158694e-05,1.086232987290714e-05,1.639515744500386e-06,5.052367487223819e-05
-2.0626859623007476e-05,3.5349039535503834e-05,6.557721007993678e-06,3.646810000645928e-06,4.730224100057967e-05
-2.358504934818484e-05,3.90518871427048e-05,2.298864728800254e-06,4.9974096327787265e-06,4.7740093577886e-05
-2.50655702984659e-05,4.525929762166925e-05,2.8758875032508513e-06,4.096184056834318e-06,5.348993727238849e-05
-2.4689705242053606e-05,4.771435123984702e-05,4.255842668499099e-06,-9.707120440793915e-09,5.766540562035516e-05
-2.7158543161931448e-05,4.7377103328472e-05,6.135150215413887e-06,-4.633996468328405e-06,5.8381538110552356e-05
-3.113400089205243e-05,4.334421828389168e-05,1.0590077181404922e-05,-6.852888873254415e-06,5.841352685820311e-05
-3.184146771673113e-05,3.6795343476114795e-05,1.3747303455602378e-05,-5.736237199016614e-06,5.734441947424784e-05
-3.2367443054681644e-05,3.5629367630463094e-05,1.1318461474729702e-05,-3.827077307505533e-06,5.427793075796217e-05
-3.508348891045898e-05,3.776073572225869e-05,7.255407126649516e-06,-3.500943194012507e-06,5.350619903765619e-05
-3.623205702751875e-05,3.72238973795902e-05,5.88545390201034e-06,-5.811697974422714e-06,5.723240610677749e-05
-3.5707020288100466e-05,3.537573866196908e-05,7.386683137156069e-06,-9.285453415941447e-06,6.16567995166406e-05
-3.4687374864006415e-05,3.408702104934491e-05,9.644219062465709e-06,-1.065647211362375e-05,6.340926483971998e-05
-3.387207834748551e-05,3.34784017468337e-05,9.703469004307408e-06,-9.199086889566388e-06,6.336186925182119e-05
-3.2548221497563645e-05,3.4304022847209126e-05,8.271368642454036e-06,-7.103508778527612e-06,6.299275264609605e-05
-3.0363002224476077e-05,3.539588215062395e-05,4.912190433969954e-06,-8.118288860714529e-06,6.298761582002044e-05
-2.9789187465212308e-05,3.5755132557824254e-05,4.908671940029308e-07,-1.3768612006970216e-05,6.280346860876307e-05
-3.20231010846328e-05,3.424072201596573e-05,-2.259103894175496e-06,-1.9743920347536914e-05,6.07625006523449e-05
-3.3091626391978934e-05,2.9856797482352704e-05,-3.3692285796860233e-06,-2.2481732230517082e-05,5.858409349457361e-05
-3.403146183700301e-05,2.5032462872331962e-05,-5.311611857905518e-06,-2.2904499928699806e-05,5.810879520140588e-05
-3.5449200368020684e-05,2.354848402319476e-05,-5.470387350214878e-06,-2.1375384676503018e-05,5.96608042542357e-05
-3.7065725337015465e-05,2.5717628886923194e-05,-3.3953774618566968e-06,-2.1660282072843984e-05,6.105291686253622e-05
-3.680764348246157e-05,2.8012727852910757e-05,-1.4028406667421223e-06,-2.230218524346128e-05,6.284173286985606e-05
-3.266351268393919e-05,2.92967124551069e-05,2.452262606311706e-06,-2.2344969693222083e-05,6.396800745278597e-05
-2.955814306915272e-05,3.089501115027815e-05,6.949543148948578e-06,-2.2040112526156008e-05,6.165976810734719e-05
-3.4226140996906906e-05,3.170931086060591e-05,9.903965292323846e-06,-1.721322587400209e-05,5.647718353429809e-05
-3.776676021516323e-05,3.359870606800541e-05,1.0704835403885227e-05,-1.1741335583792534e-05,5.5353644711431116e-05
-3.039722105313558e-05,3.147142706438899e-05,8.63070999912452e-06,-9.634081834519748e-06,5.9562076785368845e-05
-2.1832694983459078e-05,2.5729370463523082e-05,1.0358680810895748e-05,-1.0362781722506043e-05,6.362347630783916e-05
-2.087913526338525e-05,2.2486185116576962e-05,1.340895687462762e-05,-1.0165422281716019e-05,6.242003291845322e-05
-2.3756669179419987e-05,2.263990609208122e-05,1.2557958143588621e-05,-8.663658263685647e-06,6.20815044385381e-05
-2.3205677280202508e-05,2.522630529711023e-05,8.401416380365845e-06,-9.518837032373995e-06,6.452132220147178e-05
-2.2601172531722113e-05,2.7633877834887244e-05,3.1328349905379582e-06,-9.908516403811518e-06,6.567260425072163e-05
-2.4838693207129836e-05,2.8990654755034484e-05,-8.308884389407467e-07,-8.727482054382563e-06,6.466623744927347e-05
-2.6392755898996256e-05,2.7358639272279106e-05,-2.572039193182718e-06,-7.503167580580339e-06,6.387016765074804e-05
-2.497776767995674e-05,2.3420356228598393e-05,-2.6812833766598487e-06,-8.393769348913338e-06,6.455443508457392e-05
-2.3622591470484622e-05,2.0484236301854253e-05,-3.946455763070844e-06,-1.218136640090961e-05,6.439137359848246e-05
-2.5356515834573656e-05,1.922685987665318e-05,-5.40939390702988e-06,-1.4148788068268914e-05,6.493448745459318e-05
-2.7971696908934973e-05,1.7905651475302875e-05,-2.5639844807301415e-06,-1.042021995090181e-05,6.47516644676216e-05
-2.8324300728854723e-05,1.816545773181133e-05,2.4690186819498194e-06,-4.469807663554093e-06,6.228084384929389e-05
-2.632149880810175e-05,1.948317549249623e-05,4.9809200390882324e-06,-3.0043572678550845e-06,5.820522710564546e-05
-2.3811018763808534e-05,1.9022045307792723e-05,4.5612305257236585e-06,-7.011576599325053e-06,5.407553180702962e-05
-1.90850805665832e-05,1.9079556295764633e-05,2.89622698801395e-06,-1.3642337762576062e-05,5.2165763918310404e-05
-1.269643416890176e-05,2.2003066987963393e-05,2.616051233417238e-06,-2.1414585717138834e-05,5.28899508935865e-05
-8.254063686763402e-06,2.4850276531651616e-05,5.775469617219642e-06,-2.5934608856914565e-05,5.294561924529262e-05
-9.46283671510173e-06,2.1683776139980182e-05,9.836730896495283e-06,-2.5768473278731108e-05,5.091747152619064e-05
-1.2486143532441929e-05,1.5902493032626808e-05,1.0569221558398567e-05,-2.420878990960773e-05,4.6302891860250384e-05
-1.1890955647686496e-05,1.5911684386082925e-05,8.400691513088532e-06,-2.3093161871656775e-05,4.350183007773012e-05
-1.3617664990306366e-05,2.0334597138571553e-05,-2.109013848894392e-06,-2.309105548192747e-05,4.83513213112019e-05
-1.6608637452009134e-05,2.5872865080600604e-05,-1.7295966245001182e-05,-2.1677067707059905e-05,5.6041066272882745e-05
-1.8188104149885476e-05,2.7391311959945597e-05,-2.445949758111965e-05,-1.8195187294622883e-05,5.9828318626387045e-05
-2.1851637939107604e-05,2.816702181007713e-05,-2.2245692889555357e-05,-1.6593217878835276e-05,6.202909571584314e-05
-2.352555384277366e-05,3.161236600135453e-05,-1.5379886463051662e-05,-1.6386673451052047e-05,6.770569598302245e-05
-1.7309008399024606e-05,2.9878639907110482e-05,-6.988098448346136e-06,-1.4055104657018092e-05,7.269627531059086e-05
-8.670401257404592e-06,2.3984026483958587e-05,-9.235686775355134e-07,-1.5720073861302808e-05,6.912011303938925e-05
-4.2755755202961154e-06,2.0345478333183564e-05,5.7836455198412295e-06,-1.922654155350756e-05,6.342118285829201e-05
-3.4128431707358686e-06,2.0729205061797984e-05,1.430862357665319e-05,-1.862828321463894e-05,6.001748988637701e-05
-5.197168320592027e-06,2.3937123842188157e-05,2.113407026627101e-05,-1.600853465788532e-05,5.849525041412562e-05
-6.983362254686654e-06,2.619277438498102e-05,2.424946433166042e-05,-1.2235417671035975e-05,5.909500760026276e-05
-7.816175639163703e-06,2.7261714421911165e-05,2.4789967937977053e-05,-8.584896022512112e-06,6.208799459272996e-05
-1.0142544851987623e-05,2.7976031560683623e-05,2.4342805772903375e-05,-6.0073825807194225e-06,6.314741040114313e-05
-1.6793401300674304e-05,2.4154918719432317e-05,2.1359921447583474e-05,-2.1028490664321e-06,6.339146057143807e-05
-2.22348389797844e-05,1.783184052328579e-05,1.966485615412239e-05,2.4776375084911706e-06,6.748634041287005e-05
-2.174711880797986e-05,1.7785960153560154e-05,1.992954821616877e-05,5.128576958668418e-06,7.125685806386173e-05
-1.8139811800210737e-05,2.4457316612824798e-05,1.8106209608959034e-05,5.33751381226466e-06,7.192848715931177e-05
-1.9208697267458774e-05,2.9299440939212218e-05,1.2928360774822067e-05,4.337914560892386e-06,6.896514969412237e-05
-2.422214311081916e-05,3.133229984086938e-05,1.080063793779118e-05,5.025670361646917e-06,6.509970262413844e-05
-2.6407220502733253e-05,3.355398803250864e-05,1.25563055917155e-05,5.978306035103742e-06,6.5184838604182e-05
-2.6745534341898747e-05,3.4565862733870745e-05,1.2080921806045808e-05,5.141077053849585e-06,6.702647806378081e-05
-2.6720899768406525e-05,3.180241765221581e-05,6.885413313284516e-06,2.442068080199533e-06,6.56337506370619e-05
-2.6899768272414804e-05,2.913324897235725e-05,-4.5627672307091416e-07,-5.527683697437169e-07,6.400129495887086e-05
-2.5454779461142607e-05,2.858787411241792e-05,-3.695356269872718e-07,-4.6733916860830504e-06,6.291927275015041e-05
-2.2638056179857813e-05,2.793013845803216e-05,6.441622645070311e-06,-6.7094351834384724e-06,6.128430686658248e-05
-2.2583470126846805e-05,2.9314176572370343e-05,1.0927625226031523e-05,-4.852603524341248e-06,6.061523890821263e-05
-2.5381032173754647e-05,3.060732706217095e-05,1.0908313015534077e-05,-3.394397708689212e-06,5.9031721320934594e-05
-2.4063831006060354e-05,2.6619542040862143e-05,5.5280784181377385e-06,-5.410700396168977e-06,5.6066121032927185e-05
-2.2427968360716477e-05,2.2131514924694784e-05,-6.514971573778894e-06,-9.031048648466822e-06,5.5878976127132773e-05
-2.7842912459163927e-05,2.0930421669618227e-05,-1.6851126929395832e-05,-1.0964899956888985e-05,5.778267222922295e-05
-3.372178616700694e-05,2.0138855688855983e-05,-1.7938436940312386e-05,-9.450146535527892e-06,5.831987800775096e-05
-3.627193291322328e-05,1.8761733372230083e-05,-1.3508151823771186e-05,-8.185739716282114e-06,5.815296754008159e-05
-3.6499055568128824e-05,2.0134193619014695e-05,-5.6690532801439986e-06,-1.1777287909353618e-05,5.860832243342884e-05
-3.5819015465676785e-05,2.6062034521601163e-05,3.0305131986096967e-06,-1.3697785107069649e-05,5.5194370361277834e-05
-3.432688026805408e-05,3.063266194658354e-05,7.307723080884898e-06,-1.5135405192268081e-05,5.09463316120673e-05
-2.953532020910643e-05,3.00543488265248e-05,1.0214496796834283e-05,-2.0239916921127588e-05,4.918396007269621e-05
-2.49178810918238e-05,2.512889295758214e-05,1.5757716028019786e-05,-2.562285772000905e-05,5.082452844362706e-05
-2.5253117200918496e-05,2.3365770175587386e-05,1.9069231711910106e-05,-2.5000188543344848e-05,5.207104186411016e-05
-3.084788113483228e-05,2.5033032216015272e-05,2.142949051631149e-05,-1.8529852241044864e-05,5.150030483491719e-05
-3.789065885939635e-05,2.699193464650307e-05,2.3764394427416846e-05,-1.3222085726738442e-05,5.3173949709162116e-05
-4.475080640986562e-05,2.8664759156526998e-05,2.319236591574736e-05,-1.1145241842314135e-05,5.675032298313454e-05
-4.68080943392124e-05,2.8315134841250256e-05,2.147121267626062e-05,-1.1480251487228088e-05,5.850514571648091e-05
-4.455671660252847e-05,2.6745707145892084e-05,2.0947169105056673e-05,-1.0594571904221084e-05,5.702033013221808e-05
-3.9667935197940096e-05,2.7311925805406645e-05,2.103227780025918e-05,-8.375905053981114e-06,5.807731213280931e-05
-3.469149305601604e-05,2.948763722088188e-05,1.884466655610595e-05,-8.019951565074734e-06,6.170887354528531e-05
-3.332660344312899e-05,2.9604991141241044e-05,1.2905714356747922e-05,-1.1523703506099992e-05,6.369168113451451e-05
-3.2425232348032296e-05,3.01752079394646e-05,5.521346793102566e-06,-1.5939351214910857e-05,6.260289228521287e-05
-2.9141023333068006e-05,3.155208469252102e-05,1.3539804513129639e-06,-1.6822719771880656e-05,6.152385321911424e-05
-2.6890005756285973e-05,3.078630834352225e-05,-1.7214104275353748e-07,-1.2435970347723924e-05,6.206001853570342e-05
-2.74039339274168e-05,2.8771675715688616e-05,-1.817097199818818e-06,-5.625844551104819e-06,6.152052083052695e-05
-2.8296852178755216e-05,2.786733784887474e-05,-4.388675279187737e-06,-3.818382538156584e-06,5.851512469234876e-05
-3.0882019927958027e-05,2.8104630473535508e-05,-7.730493052804377e-06,-7.140978141251253e-06,5.7947676395997405e-05
-3.370870399521664e-05,2.7612173653324135e-05,-1.216778764501214e-05,-8.891436664271168e-06,5.7600740547059104e-05
-3.2358861062675714e-05,2.7841875635203905e-05,-1.5710351362940855e-05,-9.155253792414442e-06,5.417336069513112e-05
-2.821328780555632e-05,2.809551551763434e-05,-1.700379107205663e-05,-8.218180482799653e-06,5.101847636979073e-05
-2.9679857107112184e-05,2.6983258067048155e-05,-1.8520306184655055e-05,-4.669159807235701e-06,5.224391134106554e-05
-3.253905742894858e-05,2.6733630875241943e-05,-2.2777179765398614e-05,-4.41788643001928e-06,5.5593642173334956e-05
-3.229812136851251e-05,2.5203120458172634e-05,-2.6367160899098963e-05,-9.242854503099807e-06,5.497859820025042e-05
-2.9953092962387018e-05,2.8459706300054677e-05,-2.41584493778646e-05,-1.23688078019768e-05,5.228635927778669e-05
-2.7697224140865728e-05,3.528602246660739e-05,-1.7206850316142663e-05,-1.3429719729174394e-05,5.404273542808369e-05
-2.6251935196341947e-05,3.7060908653074875e-05,-7.808657755958848e-06,-1.2415617675287649e-05,5.943345240666531e-05
-2.5939656552509405e-05,3.5772842238657176e-05,1.5254988738888642e-06,-1.1899713172169868e-05,5.89284609304741e-05
-2.7040026907343417e-05,3.607591497711837e-05,7.333032954193186e-06,-1.4159762940835208e-05,5.372181112761609e-05
-2.7810669052996673e-05,3.696728163049556e-05,1.2934298865729943e-05,-1.2523008081188891e-05,5.048004459240474e-05
-2.936313467216678e-05,3.855455724988133e-05,2.1600140826194547e-05,-8.696261829754803e-06,5.1091512432321906e-05
-2.8877337172161788e-05,3.9786948036635295e-05,2.85542628262192e-05,-6.065989055059617e-06,5.2626619435613975e-05
-2.6388775950181298e-05,3.719729284057394e-05,2.8622205718420446e-05,-6.739904165442567e-06,5.2963572670705616e-05
-2.5515300876577385e-05,2.9375367375905626e-05,2.6027671992778778e-05,-6.849430519650923e-06,5.476064688991755e-05
-2.8602074962691404e-05,2.210355523857288e-05,2.211273749708198e-05,-5.314611826179316e-06,5.603064346360043e-05
-3.31866140186321e-05,2.2320935386233032e-05,1.6678133761161007e-05,-5.18289334650035e-06,5.658719965140335e-05
-3.328231832711026e-05,2.6364001314505003e-05,1.2181138117739465e-05,-7.804186680004932e-06,5.642049291054718e-05
-2.9419525162666105e-05,2.8638534786296077e-05,1.1418259418860544e-05,-1.0357694918639027e-05,5.358026464818977e-05
-2.796358967316337e-05,2.6765523216454312e-05,1.4815291251579765e-05,-9.819054866966326e-06,4.833243292523548e-05
-2.9618458938784897e-05,2.4510480216122232e-05,1.4226316125132143e-05,-9.191142453346401e-06,4.405729487189092e-05
-2.9908122087363154e-05,2.4715447580092587e-05,5.816852990392363e-06,-1.0773253961815499e-05,4.174659261479974e-05
-2.8151820515631698e-05,2.7319943910697475e-05,-3.489406026346842e-06,-1.1775926395785064e-05,4.0940365579444915e-05
-2.635498640302103e-05,3.1107709219213575e-05,-5.936853540333686e-06,-9.89618547464488e-06,3.914753324352205e-05
-2.4072889573290013e-05,3.4841512388084084e-05,-2.6219995561405085e-06,-7.309612556127831e-06,3.840077988570556e-05
-2.0563818907248788e-05,3.596909300540574e-05,-1.3224858719240729e-07,-5.502562544279499e-06,4.449195694178343e-05
-1.8655069652595557e-05,3.41464183293283e-05,-2.6873299248109106e-06,-3.7631157283612993e-06,5.129826968186535e-05
-1.985711969609838e-05,2.9167878892621957e-05,-5.469421466841595e-06,-2.2777396679884987e-06,5.571317160502076e-05
-2.353186391701456e-05,2.5754419766599312e-05,-4.915315912512597e-06,-3.129692231595982e-06,5.792734373244457e-05
-2.703759673750028e-05,2.7877003958565183e-05,-1.940998799909721e-06,-6.3925222093530465e-06,5.656741268467158e-05
-2.732362918322906e-05,3.221430961275473e-05,-2.0750146632053657e-06,-9.789378054847475e-06,5.593411697191186e-05
-2.5069683033507317e-05,3.372386345290579e-05,-3.1599709018337307e-06,-6.251762897591107e-06,5.6749100622255355e-05
-2.796570333885029e-05,3.039623516087886e-05,1.2445891570678214e-06,2.9304189297363337e-07,5.72688331885729e-05
-3.4006348869297653e-05,2.8510416086646728e-05,6.734567705279915e-06,3.4878351016232045e-06,5.776343823526986e-05
-3.337245652801357e-05,3.1201525416690856e-05,8.56829956319416e-06,3.9326960177277215e-06,5.769422932644375e-05
-2.8273147108848207e-05,3.2110630854731426e-05,9.935255548043642e-06,2.8407303034327924e-06,5.949190381215885e-05
-2.2335651010507718e-05,3.076775828958489e-05,1.2902371963718906e-05,1.2543864613689948e-06,6.399474659701809e-05
-1.8169201212003827e-05,3.2396274036727846e-05,1.342814812232973e-05,-5.306636126078956e-07,6.616499013034627e-05
-1.6199770470848307e-05,3.5053501051152125e-05,1.2534394954855088e-05,-2.5644949346315116e-06,6.447138730436563e-05
-1.43452562042512e-05,3.576283415895887e-05,1.1885324056493118e-05,-5.415517989604268e-06,6.480905722128227e-05
-1.3155358828953467e-05,3.2659463613526896e-05,9.019539902510587e-06,-1.1830247785837855e-05,6.743889389326796e-05
-1.4589048987545539e-05,2.8255662982701324e-05,4.61335639556637e-06,-1.6319974747602828e-05,7.068132981657982e-05
-1.648601028136909e-05,2.6526373403612524e-05,4.158429760536819e-07,-1.483514643041417e-05,7.340412412304431e-05
-1.4558062503056135e-05,2.5399549485882744e-05,-2.6250763767166063e-06,-1.1814124263764825e-05,7.228811591630802e-05
-9.361686352349352e-06,2.3568163669551723e-05,-4.77147523270105e-06,-1.2197059731988702e-05,6.802948337281123e-05
-7.23641824151855e-06,2.2840811652713455e-05,-6.120266334619373e-06,-1.4810870197834447e-05,6.512961408589035e-05
-9.617349860491231e-06,2.2943613657844253e-05,-6.054357527318643e-06,-1.610757681191899e-05,6.476917769759893e-05
-1.3105490324960556e-05,2.4334070985787548e-05,-4.51926371169975e-06,-1.774890006345231e-05,6.585232040379196e-05
-1.7168804333778098e-05,2.68246640189318e-05,-3.2452667255711276e-06,-2.0193532691337168e-05,6.618069164687768e-05
-2.0629386199289e-05,2.7139523808727972e-05,-3.2381929031544132e-06,-2.243679409730248e-05,6.570188998011872e-05
-2.103883343806956e-05,2.4866141757229343e-05,-2.522358727219398e-06,-2.2511845600092784e-05,6.491156091215089e-05
-1.946932025020942e-05,2.4105716875055805e-05,1.442555458197603e-06,-2.109409797412809e-05,6.453137757489458e-05
-1.9610988601925783e-05,2.6036679628305137e-05,5.880576281924732e-06,-2.1454581656144e-05,6.394785305019468e-05
-2.1670641217497177e-05,2.6458177671884187e-05,6.631260021094931e-06,-2.399416916887276e-05,6.250649312278256e-05
-2.2171872842591256e-05,2.5051927877939306e-05,4.155766418989515e-06,-2.466971091052983e-05,6.26492765150033e-05
-2.1068328351248056e-05,2.430260974506382e-05,-1.9349631656950805e-06,-2.20191777771106e-05,6.198450864758343e-05
-2.0462295651668683e-05,2.4428363758488558e-05,-8.70063558977563e-06,-1.9575854821596295e-05,6.0023772675776854e-05
-1.8932427337858826e-05,2.5190947781084105e-05,-1.0932277291431092e-05,-2.2181813619681634e-05,6.077056241338141e-05
-1.954576509888284e-05,2.832988502632361e-05,-6.27711642664508e-06,-2.304821100551635e-05,6.223590753506869e-05
-2.4728111384320073e-05,3.181013744324446e-05,1.1397634125387412e-06,-2.2359825379680842e-05,5.9229936596238986e-05
-2.783017225738149e-05,3.372074934304692e-05,6.9910452111798804e-06,-2.208667319791857e-05,5.8192541473545134e-05
-2.84882407868281e-05,3.5774759453488514e-05,9.456422958464827e-06,-1.8835249647963792e-05,5.836667332914658e-05
-3.176717655151151e-05,3.366982491570525e-05,1.1703864402079489e-05,-1.4266320249589626e-05,5.640075687551871e-05
-3.5041819501202554e-05,2.8932066925335675e-05,1.4508033927995712e-05,-1.1431471648393199e-05,5.489672548719682e-05
-3.559393735486083e-05,2.6664592951419763e-05,1.8023158190771937e-05,-9.58412329055136e-06,5.5153152061393484e-05
-3.4261367545695975e-05,2.809469515341334e-05,1.9735447494895197e-05,-4.268524662620621e-06,5.952586070634425e-05
-3.393923179828562e-05,2.752230648184195e-05,1.985573544516228e-05,-8.72916583460892e-09,6.562890484929085e-05
-3.4078460885211825e-05,2.558417691034265e-05,2.2999691282166168e-05,-5.50925733477925e-07,6.887745257699862e-05
-3.660827496787533e-05,2.8539834602270275e-05,2.4096934794215485e-05,-2.287797997269081e-06,6.707420834572986e-05
-3.9044349250616506e-05,3.585650847526267e-05,2.2320813513942994e-05,-9.532609510642942e-07,6.187013059388846e-05
-3.664335599751212e-05,3.974475839640945e-05,1.9806653654086404e-05,1.809540435715462e-06,5.530529597308487e-05
-3.217352423234843e-05,3.572135392460041e-05,1.971803794731386e-05,2.4168580239347648e-06,5.072277781437151e-05
-2.9570437618531287e-05,3.1462528568226844e-05,2.3137063180911355e-05,3.126503145267634e-07,4.832067861570977e-05
-2.7716008844436146e-05,2.9438748242682777e-05,2.6699925001594238e-05,-2.6612119654600974e-06,4.8756042815512046e-05
-2.4422755814157426e-05,2.5905072106979787e-05,2.5844075935310684e-05,-4.795378117705695e-06,5.1623122999444604e-05
-2.4880013370420784e-05,2.1696185285691172e-05,2.1337278667488135e-05,-6.754333298886195e-06,5.400963345891796e-05
-3.0989136575954035e-05,2.215572567365598e-05,1.5030618669698015e-05,-9.306697393185459e-06,5.7259294408140704e-05
-3.6799319786950946e-05,2.6293000701116398e-05,7.881610144977458e-06,-9.856608812697232e-06,6.0786132962675765e-05
-3.699052831507288e-05,3.168663533870131e-05,4.180589712632354e-06,-7.5024518082500435e-06,6.122155173216015e-05
-3.298590672784485e-05,3.398847547941841e-05,6.523448973894119e-06,-4.9724408199836034e-06,5.9793630498461425e-05
-2.8741076675942168e-05,3.118675158475526e-05,8.29975942906458e-06,-3.739297426363919e-06,5.848617365700193e-05
-2.7488518753671087e-05,2.7853275241795927e-05,3.7456295558513375e-06,-2.1879823179915547e-06,5.859110024175607e-05
-2.915110599133186e-05,2.939086152764503e-05,6.518096711261023e-07,3.631049878549675e-07,6.273498729569837e-05
-3.10040450131055e-05,3.6747394915437326e-05,1.1356272580087534e-06,1.6595009810771444e-06,6.66986670694314e-05
-2.8600563382497057e-05,4.0816827095113695e-05,2.7732648959499784e-06,-1.7403518768333015e-06,6.689777364954352e-05
-2.5844501578831114e-05,3.471633681328967e-05,4.375941443868214e-06,-6.309454420261318e-06,6.442420271923766e-05
-2.917107121902518e-05,2.934000440291129e-05,4.912784334010212e-06,-5.890921329410048e-06,6.44148385617882e-05
-3.059189111809246e-05,2.873392622859683e-05,5.109141056891531e-06,-5.037345999880927e-06,6.507773650810122e-05
-2.4003144062589854e-05,2.866933027689811e-05,9.063018296728842e-06,-9.682541531219613e-06,6.353286153171211e-05
-1.520436580904061e-05,2.6311701731174253e-05,1.3880967344448436e-05,-1.7948645108845085e-05,6.375685916282237e-05
-1.3390551430347841e-05,2.07843604584923e-05,1.1284000720479526e-05,-2.2681522750644945e-05,6.493528780993074e-05
-2.1873702280572616e-05,1.470844290452078e-05,4.695689767686417e-06,-2.3283959308173507e-05,6.402491999324411e-05
-3.129163451376371e-05,1.2042502021358814e-05,-1.1166088142999797e-06,-2.2290834749583155e-05,6.052759272279218e-05
-3.58158940798603e-05,1.5154018001339864e-05,-1.3194135135563556e-06,-2.1154219211894087e-05,5.9009991673519835e-05
-3.637847476056777e-05,1.5037563571240753e-05,1.1579940064621042e-06,-2.0634552129195072e-05,6.0840535297757015e-05
-3.588892286643386e-05,1.1717418601620011e-05,6.8898680183338e-07,-2.0450082956813276e-05,6.491102976724505e-05
-3.405231109354645e-05,1.001199234451633e-05,-1.6934652649069903e-06,-2.0505787688307464e-05,6.699017103528604e-05
-3.0277164114522748e-05,1.460193107050145e-05,-4.0269728742714506e-06,-2.1725611077272333e-05,6.424672028515488e-05
-2.7898504413315095e-05,2.1673826267942786e-05,-4.102135335415369e-06,-2.4540733647882007e-05,5.8871792134596035e-05
-2.934238000307232e-05,2.5481444026809186e-05,-1.4154857126413845e-06,-2.5856299544102512e-05,5.372000305214897e-05
-3.320085670566186e-05,2.6932579203275964e-05,1.377619923914608e-06,-2.5187424398609437e-05,5.108879486215301e-05
-3.382209615665488e-05,2.8167110940557905e-05,1.1758127129724016e-06,-2.459839561197441e-05,5.3063773520989344e-05
-2.6903360776486807e-05,2.8788050258299336e-05,-1.2944452691954211e-06,-2.4532324459869415e-05,5.529534610104747e-05
-1.7806691175792366e-05,2.6723855626187287e-05,-5.259432782622753e-06,-2.262794805574231e-05,5.4763018852099776e-05
-1.5402711142087355e-05,2.5206229111063294e-05,-8.621190318081062e-06,-1.9595820049289614e-05,5.394609979703091e-05
-1.8895174434874207e-05,2.618690450617578e-05,-6.3336801758850925e-06,-1.9647330191219226e-05,5.275756120681763e-05
-2.3988206521607935e-05,2.994071110151708e-05,-7.326051445488702e-07,-2.2379683286999352e-05,5.053665518062189e-05
-2.9543160053435713e-05,3.155928061460145e-05,1.2388610457492177e-06,-2.350984505028464e-05,4.8647241783328354e-05
-3.212996671209112e-05,2.939051773864776e-05,6.54508369279938e-07,-2.198052425228525e-05,4.895973688689992e-05
-2.820589543262031e-05,2.8976635803701356e-05,-2.3749491901980946e-06,-1.9407163563300855e-05,5.0707451009657234e-05
-2.4879080228856765e-05,2.8885790015920065e-05,-5.659126600221498e-06,-2.038696220552083e-05,5.344122109818272e-05
-2.7931855584029108e-05,3.0102972232270986e-05,-6.992942417127779e-06,-2.3364436856354587e-05,5.581613368121907e-05
-3.277566793258302e-05,3.2076433853944764e-05,-8.823518328426871e-06,-2.2749934942112304e-05,5.655619315803051e-05
-3.2733030820963904e-05,3.0354567570611835e-05,-4.563923539535608e-06,-1.895791501738131e-05,5.433050318970345e-05
-2.923422471212689e-05,2.988420419569593e-05,3.298842557342141e-06,-1.792199873307254e-05,5.1230479584774e-05
-2.5180130251101218e-05,3.143140202155337e-05,4.62849448013003e-06,-1.832815723901149e-05,5.227018482401036e-05
-2.4614691938040778e-05,3.278826261521317e-05,6.874927294120425e-06,-1.6735537428758107e-05,5.562807200476527e-05
-2.662920087459497e-05,3.214877870050259e-05,9.877782758849207e-06,-1.645106021896936e-05,5.506079469341785e-05
-2.6337542294641025e-05,3.11809271806851e-05,1.0799363735713996e-05,-1.6449610484414734e-05,5.377066554501653e-05
-2.424861304461956e-05,2.852223587979097e-05,1.3727197256230284e-05,-1.5170759070315398e-05,5.547592809307389e-05
-2.3055688870954327e-05,2.7006521122530103e-05,1.6847752704052255e-05,-1.3119499271851964e-05,5.81347085244488e-05
-2.2647054720437154e-05,2.9266726414789446e-05,1.3601433238363825e-05,-8.588515811425168e-06,6.0604077589232475e-05
-2.3006552510196343e-05,3.124500290141441e-05,-7.134992188184697e-07,-3.3194946809089743e-06,6.405745807569474e-05
-2.2191221432876773e-05,3.246014239266515e-05,-1.559129304951057e-05,-3.1205952382151736e-06,6.679693615296856e-05
-1.9130959117319435e-05,3.1743365980219096e-05,-2.029714232776314e-05,-4.818169600184774e-06,6.786907033529133e-05
-1.5882294974289834e-05,3.042649586859625e-05,-1.7741242118063383e-05,-6.87857209413778e-06,6.745669816154987e-05
-1.3175612366467249e-05,3.0879171390552074e-05,-1.2914805665786844e-05,-9.804499313759152e-06,6.678081263089553e-05
-1.3365950508159585e-05,3.1634011975256726e-05,-7.368795195361599e-06,-1.1646476195892319e-05,6.648353155469522e-05
-1.6419749954366125e-05,3.1236839276971295e-05,-5.553931146096147e-07,-1.2911923477076925e-05,6.807348836446181e-05
-2.0992887584725395e-05,3.142021523672156e-05,8.677654477651231e-06,-1.4551302228937857e-05,6.909877265570685e-05
-2.3919783416204154e-05,3.215643300791271e-05,1.978397267521359e-05,-1.4685218957311008e-05,6.701425445498899e-05
-2.5324541638838127e-05,3.2522952096769586e-05,2.8635717171709985e-05,-1.2276671441213693e-05,6.40030120848678e-05
-2.8402402676874772e-05,3.129981269012205e-05,3.198381091351621e-05,-7.889276275818702e-06,6.317897350527346e-05
-3.2514333724975586e-05,2.9778706448269077e-05,3.2565709261689335e-05,-3.768129090531147e-06,6.531507824547589e-05
-3.3436925150454044e-05,2.907630732806865e-05,3.27683737850748e-05,-3.4282470551261213e-06,6.602794019272551e-05
-3.396970350877382e-05,2.805832446028944e-05,3.3702664950396866e-05,-4.085563887201715e-06,6.415380630642176e-05
-3.5248591302661225e-05,2.6888319553108886e-05,3.282694160589017e-05,-2.4884493541321717e-06,6.196594767970964e-05
-3.243974060751498e-05,2.9079074010951445e-05,2.7153064365847968e-05,-1.1511825732668513e-06,6.133836723165587e-05
-2.5185074264300056e-05,3.336444933665916e-05,1.8488828573026694e-05,5.369086508721921e-08,6.213684537215158e-05
-2.1054724129498936e-05,3.2313513656845316e-05,1.5191548300208524e-05,4.880841061094543e-06,6.355890945997089e-05
-2.3439859432983212e-05,2.9318660381250083e-05,1.7584574379725382e-05,4.68335883851978e-06,6.114269490353763e-05
-2.2476564481621608e-05,3.0005776352481917e-05,1.7888292859424837e-05,1.1317112011965946e-06,5.6811069953255355e-05
-1.860649172158446e-05,3.0570074159186333e-05,1.5918485587462783e-05,2.903551376221003e-06,5.5519391025882214e-05
-2.0813997252844274e-05,3.0249206247390248e-05,1.4078879758017138e-05,6.424351795430994e-06,5.666502329404466e-05
-2.6814313969225623e-05,2.859282903955318e-05,1.1397926755307708e-05,9.239766768587288e-06,5.571610381593928e-05
-2.8310398192843422e-05,2.4550719899707474e-05,6.61521289657685e-06,8.168355634552427e-06,5.579724529525265e-05
-2.508507895981893e-05,2.259522079839371e-05,2.321404508620617e-06,5.743882866227068e-06,5.827442873851396e-05
-2.3399285055347718e-05,2.2980866560828872e-05,5.293424010233139e-07,3.42799512509373e-06,6.173804285936058e-05
-2.354924799874425e-05,2.1781173927593045e-05,1.8946009276987752e-06,1.8377972992311697e-06,6.415815732907504e-05
-2.3125050574890338e-05,2.0950175894540735e-05,1.6467100749650854e-06,3.0335017981997225e-06,6.367588503053412e-05
-1.9902861822629347e-05,2.153382229153067e-05,-3.704543360072421e-06,5.027155566494912e-06,6.140171899460256e-05
-1.581605465617031e-05,2.0676332496805117e-05,-1.0414560165372677e-05,3.698406089824857e-06,5.797906487714499e-05
-1.4277578884502873e-05,1.9037455786019564e-05,-1.3643979400512762e-05,-4.264263225195464e-06,5.5303811677731574e-05
-1.550860542920418e-05,2.0116465748287737e-05,-1.2438477824616712e-05,-1.214336407429073e-05,5.496887388289906e-05
-1.7748245227267034e-05,2.2942525902180932e-05,-1.0366713468101807e-05,-1.3587122339231428e-05,5.6688844779273495e-05
-1.9112361769657582e-05,2.3852880985941738e-05,-6.9651782723667566e-06,-1.1874041774717625e-05,5.968410550849512e-05
-1.8742326574283652e-05,2.3817960027372465e-05,-9.96050403045956e-07,-1.2692392374447081e-05,6.208864215295762e-05
-1.554763366584666e-05,2.461527765262872e-05,4.935258857585723e-06,-1.65975907293614e-05,6.233759631868452e-05
-1.3090007996652275e-05,2.8399312213878147e-05,7.474083304259693e-06,-2.0632081941585056e-05,6.088184818509035e-05
-1.4223453035810962e-05,3.3890562917804345e-05,7.007509339018725e-06,-2.243092421849724e-05,5.865671846549958e-05
-1.6492112990817986e-05,3.251878297305666e-05,6.851913894934114e-06,-2.2158314095577225e-05,5.820989827043377e-05
-1.7347199900541455e-05,2.7393691198085435e-05,9.07446701603476e-06,-2.0344567019492388e-05,5.905122452531941e-05
-1.8537824871600606e-05,2.791659426293336e-05,9.136409971688408e-06,-1.8800104953697883e-05,6.080870662117377e-05
-2.0496425349847414e-05,3.243699393351562e-05,-4.500600709889113e-07,-1.8081263988278806e-05,6.03922271693591e-05
-2.42276000790298e-05,4.022093708044849e-05,-1.529764813312795e-05,-1.4682184882985894e-05,6.063575347070582e-05
-2.7234889785177074e-05,4.2206014768453315e-05,-2.2744077796232887e-05,-1.1110300874861423e-05,6.304420821834356e-05
-2.916998346336186e-05,3.6830693716183305e-05,-1.858766881923657e-05,-1.4489759450952988e-05,6.145351653685793e-05
-3.0403522032429464e-05,3.582858698791824e-05,-8.551154678571038e-06,-1.867603714345023e-05,5.7746892707655206e-05
-3.136473969789222e-05,3.788725007325411e-05,-1.4522574929287657e-06,-1.6108555428218096e-05,5.831702219438739e-05
-3.296923023299314e-05,4.071421062690206e-05,4.852728579862742e-06,-1.0530679901421536e-05,6.079455488361418e-05
-3.518735320540145e-05,4.0473380067851394e-05,1.4971003110986203e-05,-7.63605839892989e-06,6.281401874730363e-05
-3.7353307561716065e-05,3.525218562572263e-05,2.0507610315689817e-05,-8.638396138849203e-06,6.62048114463687e-05
-3.657416164060123e-05,3.153022407786921e-05,1.9904291548300534e-05,-1.0010076039179694e-05,6.86018101987429e-05
-3.502979961922392e-05,3.241305603296496e-05,1.6913763829506934e-05,-1.1510141121107154e-05,6.683207175228745e-05
-3.24546817864757e-05,3.494604607112706e-05,1.3621328434965108e-05,-1.4162034858600236e-05,6.242723611649126e-05
-3.446835034992546e-05,3.7867252103751525e-05,1.1463455848570447e-05,-1.6497186152264476e-05,5.765918467659503e-05
-3.8702277379343286e-05,3.8098845834610984e-05,1.0116567864315584e-05,-1.818097553041298e-05,5.3442992793861777e-05
-4.129912122152746e-05,3.5775581636698917e-05,1.099533801607322e-05,-1.8520213416195475e-05,5.240215250523761e-05
-4.056944089825265e-05,3.3557862479938194e-05,1.1402266864024568e-05,-1.6286094250972383e-05,5.269801476970315e-05
-3.753194323508069e-05,3.062225005123764e-05,1.0046917850559112e-05,-1.4813369489274919e-05,5.3000461775809526e-05
-3.739743624464609e-05,2.9283670301083475e-05,9.019379831443075e-06,-1.5429914128617384e-05,5.296593371895142e-05
-3.937901055905968e-05,3.0164417694322765e-05,1.0003599527408369e-05,-1.606215664651245e-05,5.2375136874616146e-05
-3.855796603602357e-05,3.2337884476874024e-05,1.1073859241150785e-05,-1.5243590496538673e-05,5.260258694761433e-05
-3.295555507065728e-05,3.1934469006955624e-05,1.0647458111634478e-05,-1.358880581392441e-05,5.20550056535285e-05
-2.5072440621443093e-05,2.930865957750939e-05,9.139333087659907e-06,-9.539772690914106e-06,4.961119338986464e-05
-1.8196697055827826e-05,2.897968988690991e-05,7.445131359418156e-06,-4.357742909633089e-06,4.839650137000717e-05
-1.818108285078779e-05,2.9705373890465125e-05,6.2241588238975964e-06,-1.382268578709045e-06,4.982743121217936e-05
-2.4349570594495162e-05,2.8718308385577984e-05,9.746681826072745e-07,3.895930831276928e-07,5.048944512964226e-05
-3.208686030120589e-05,2.71628796326695e-05,-6.485402991529554e-06,1.928078063428984e-06,5.00978458148893e-05
-3.551053669070825e-05,2.3325017536990345e-05,-6.329361440293724e-06,1.5967350464052288e-07,5.129625424160622e-05
-3.72253853129223e-05,2.090356247208547e-05,-2.440958951410721e-06,-5.546276042878162e-06,5.102831346448511e-05
-3.595103771658614e-05,2.034587669186294e-05,-2.942242190329125e-06,-8.436139978584833e-06,5.053448330727406e-05
-3.09076058329083e-05,1.9343227904755622e-05,-3.400325340408017e-06,-8.358947525266558e-06,5.268743552733213e-05
-2.5357434424222447e-05,2.1013889636378735e-05,4.1239815118387924e-07,-1.2150008842581883e-05,5.186652924749069e-05
-2.2195175915840082e-05,2.2923752112546936e-05,6.763929832231952e-06,-1.5761977920192294e-05,5.016338036512025e-05
-2.1417998141259886e-05,2.2759788407711312e-05,8.480538781441282e-06,-1.4087270756135695e-05,5.262452032184228e-05
-2.1511645172722638e-05,2.0274495909688994e-05,8.241468094638549e-06,-1.0316387488273904e-05,5.605460683000274e-05
-2.053311254712753e-05,1.627698657102883e-05,9.499974112259224e-06,-6.904566816956503e-06,5.636746573145501e-05
-2.043123822659254e-05,1.621246337890625e-05,5.05766729474999e-06,-5.434706054074923e-06,5.6176086218329147e-05
-2.0604704332072288e-05,2.1085441403556615e-05,-1.9356273242010502e-06,-4.9492819016450085e-06,5.648576916428283e-05
-2.0079951355000958e-05,2.2511472707265057e-05,-3.2841414849826833e-06,-7.441396064677974e-06,5.80576597712934e-05
-2.0347284589661285e-05,2.14545307244407e-05,-2.1570165245066164e-06,-9.482036148256157e-06,5.92310207139235e-05
-1.799752499209717e-05,2.2113554223324172e-05,-1.481726599195099e-06,-9.840902748692315e-06,5.860288001713343e-05
-1.8540707969805226e-05,2.507187491573859e-05,-4.259868831013591e-07,-1.1243420885875821e-05,5.6819026212906465e-05
-1.9559207430575043e-05,2.4655595552758314e-05,5.284747430778225e-07,-1.1204657312191557e-05,5.531155693461187e-05
-1.9882916603819467e-05,2.068604953819886e-05,1.854514266597107e-07,-8.179255928553175e-06,5.5595643061678857e-05
-1.9593151591834612e-05,1.83637639565859e-05,-1.913602005743087e-07,-5.382134986575693e-06,5.838635115651414e-05
-1.9937575416406617e-05,1.738640457915608e-05,2.081839056700119e-06,-5.339843482943252e-06,6.076494901208207e-05
-1.9785833501373418e-05,1.66556092153769e-05,6.600881533813663e-06,-4.140082637604792e-06,5.9120247897226363e-05
-1.9698358300956897e-05,1.892257569124922e-05,1.0661119631549809e-05,-8.782449754107802e-07,5.823441097163595e-05
-2.1644764274242334e-05,2.4078630303847603e-05,1.3507763469533529e-05,4.968235316482605e-07,5.868140942766331e-05
-2.43291215156205e-05,2.5722118152771145e-05,1.326803885604022e-05,-9.00088537036936e-07,5.989400597172789e-05
-2.7988202418782748e-05,2.4103126634145156e-05,8.052600605878979e-06,-1.4176456488712574e-06,6.202751683304086e-05
-3.098299202974886e-05,2.465595753164962e-05,2.692160933293053e-06,-1.4650159130269458e-07,6.501281313830987e-05
-2.999018761329353e-05,2.744380799413193e-05,5.517471208804636e-07,2.318249698873842e-06,6.52139715384692e-05
-2.6658903152565472e-05,2.8249780370970257e-05,4.798506552106119e-07,3.647701987574692e-06,6.344981375150383e-05
-2.4682773073436692e-05,2.6122859708266333e-05,2.932976485681138e-06,5.306004595695413e-07,6.292534817475826e-05
-2.510631202312652e-05,2.7059930289397016e-05,6.917170139786322e-06,-1.8482490986571065e-06,6.185868551256135e-05
-2.592993223515805e-05,3.1062863854458556e-05,7.68261725170305e-06,-1.5176831311691785e-06,6.093838601373136e-05
-2.20402107515838e-05,2.9489539883797988e-05,5.884292932023527e-06,-1.4970615893616923e-06,5.967006291029975e-05
-2.047994712484069e-05,2.637388570292387e-05,2.6832653929886874e-06,-3.229247795388801e-06,5.7198951253667474e-05
-1.9927396351704374e-05,2.3817317924113013e-05,-6.970493586777593e-07,-6.011913683323655e-06,5.722953210351989e-05
-2.2647287551080808e-05,2.3586826500832103e-05,1.8012666203048866e-07,-8.387760317418724e-06,6.02032923779916e-05
-2.803761526593007e-05,2.6321889890823513e-05,4.027689101349097e-06,-9.911604138324037e-06,6.45574982627295e-05
-2.7270198188489303e-05,2.990707434946671e-05,4.093816187378252e-06,-1.0018378816312179e-05,6.767128070350736e-05
-2.2958491172175854e-05,3.2762676710262895e-05,-9.164089043167678e-09,-1.3659107935382053e-05,6.955621211091056e-05
-2.1265352188493125e-05,3.253026807215065e-05,-2.6652924134396017e-06,-1.6048605175456032e-05,6.963637861190364e-05
-2.1629435650538653e-05,3.1130788556765765e-05,-1.2539491081042797e-06,-1.406088540534256e-05,6.70520166750066e-05
-2.038937782344874e-05,2.8059554097126238e-05,2.1790392565890215e-06,-1.2013108971586917e-05,6.532117549795657e-05
-1.7666188796283677e-05,2.4870287234080024e-05,5.895536560274195e-06,-1.141866778198164e-05,6.377732643159106e-05
-1.5143378732318524e-05,2.293664147146046e-05,9.599965778761543e-06,-1.0670140000001993e-05,6.292002944974229e-05
-1.340422204521019e-05,2.1264064343995415e-05,1.2319221241341438e-05,-8.708009772817604e-06,6.226646655704826e-05
-1.2582748240674846e-05,2.367550587223377e-05,1.0042658686870709e-05,-5.4259107855614275e-06,6.095556454965845e-05
-1.4374565580510534e-05,2.974479502881877e-05,5.213270469539566e-06,-4.8740862439444754e-06,6.069209484849125e-05
-1.9223667550249957e-05,3.229285721317865e-05,2.8341819415800273e-06,-9.982699339161627e-06,6.003558519296348e-05
-2.3165504899225198e-05,3.034776273125317e-05,-4.161996685070335e-07,-1.5708088540122844e-05,5.81440472160466e-05
-2.4776616555755027e-05,2.717275492614135e-05,-5.83089740757714e-06,-1.5706282283645123e-05,5.895016875001602e-05
-2.7701302315108478e-05,2.4305514671141282e-05,-9.363277058582753e-06,-1.2700431398116052e-05,6.0507671150844544e-05
-3.1397019483847544e-05,2.3082111511030234e-05,-9.562844752508681e-06,-1.3171203136153053e-05,5.9197216614848e-05
-3.33076786773745e-05,2.6400059141451493e-05,-7.1503081926493905e-06,-1.4448111869569402e-05,5.780243009212427e-05
-3.1497103918809444e-05,3.092463157372549e-05,-1.1124498087156098e-06,-1.2467718079278711e-05,6.163086800370365e-05
-2.8987098630750552e-05,3.120696055702865e-05,8.171505214704666e-06,-8.683452506375033e-06,6.712256436003372e-05
-2.8046126317349263e-05,2.7605783543549478e-05,1.7474410924478434e-05,-6.7572664192994125e-06,6.6203429014422e-05
-2.8411190214683302e-05,2.5272169295931235e-05,2.2141761292004958e-05,-6.3146007960313e-06,6.117892189649865e-05
-2.8377457056194544e-05,2.9525936042773537e-05,2.284195215906948e-05,-8.857778993842658e-06,5.704784780391492e-05
-2.6102299671038054e-05,3.2773819839349017e-05,2.2751657525077462e-05,-1.194847936858423e-05,5.471083932206966e-05
-2.5938523322110996e-05,2.833202961483039e-05,2.195595698140096e-05,-9.39380879572127e-06,5.3165131248533726e-05
-3.0130402592476457e-05,2.6310452085454017e-05,2.228041921625845e-05,-6.154789844003972e-06,5.580671495408751e-05
-3.2282572647091e-05,2.86359299934702e-05,2.128638152498752e-05,-8.219701157941017e-06,6.076648787711747e-05
-2.813620085362345e-05,2.97787191811949e-05,1.8085520423483104e-05,-7.14472662366461e-06,6.1477352574002e-05
-2.6245015760650858e-05,2.8102100259275176e-05,1.4184592146193609e-05,-6.208515515027102e-06,6.059928273316473e-05
-2.9273574909893796e-05,2.4362427211599424e-05,1.0735419891716447e-05,-6.80997982271947e-06,6.161752389743924e-05
-3.083395858993754e-05,2.0317023881943896e-05,1.0510618267289829e-05,-4.238826022628928e-06,6.132854468887672e-05
-2.7724534447770566e-05,2.0273737391107716e-05,1.0331232260796241e-05,-3.6773919873667182e-06,5.964193042018451e-05
-2.2257792807067744e-05,2.612342177599203e-05,1.0457161806698423e-05,-6.08517621003557e-06,5.951525963610038e-05
-2.1682244550902396e-05,3.211825605831109e-05,9.97353890852537e-06,-6.896278136991896e-06,5.975154635962099e-05
-2.3512280677095987e-05,3.397801992832683e-05,7.419712801493006e-06,-6.459741598519031e-06,5.9593861806206405e-05
-2.3838652850827202e-05,3.019728683284484e-05,3.0701103241881356e-06,-6.968966317799641e-06,5.8091442042496055e-05
-2.122361183864996e-05,2.6287421860615723e-05,-1.0719352303567575e-06,-6.851546004327247e-06,5.844659608555958e-05
-1.866754246293567e-05,2.7103831598651595e-05,-3.6699707379739266e-06,-6.550341822730843e-06,6.135475268820301e-05
-1.9438315575825982e-05,3.188616028637625e-05,-4.375167918624356e-06,-8.037607585720252e-06,6.492173270089552e-05
-2.241109177703038e-05,3.480280429357663e-05,-4.064575932716252e-06,-9.737364962347783e-06,6.57020864309743e-05
-2.333497286599595e-05,3.300467142253183e-05,-2.7149112611368764e-06,-9.728923942020629e-06,6.210628635017201e-05
-2.227204095106572e-05,3.0004192012711428e-05,-7.938337489576952e-07,-9.277015124098398e-06,5.793331365566701e-05
-2.3650678485864773e-05,2.7711666916729882e-05,6.050228762433107e-07,-8.002957656572107e-06,5.6469572882633656e-05
-2.943822073575575e-05,2.7231333660893142e-05,2.953865532617783e-06,-8.328019248438068e-06,5.6503798987250775e-05
-3.601309435907751e-05,2.97221358778188e-05,4.298408839531476e-06,-1.1904053280886728e-05,5.3897747420705855e-05
-3.861432560370304e-05,3.3376716601196676e-05,5.114294253871776e-06,-1.447519116481999e-05,5.134068851475604e-05
-3.765946894418448e-05,3.592692155507393e-05,4.9423088057665154e-06,-1.4272353837441187e-05,4.955152689944953e-05
-3.536520671332255e-05,3.766407462535426e-05,1.7630268303037155e-06,-1.289388910663547e-05,4.701130455941893e-05
-3.2924479455687106e-05,3.647746052592993e-05,-1.87465644785334e-07,-6.9886659730400424e-06,4.618844832293689e-05
-2.540924833738245e-05,3.216626646462828e-05,-1.738923174343654e-07,2.0557929474307457e-06,4.8037833039416e-05
-1.9255896404501982e-05,3.07040500047151e-05,-2.40626292224988e-07,8.571073522034567e-06,5.0131158786825836e-05
-2.058130849036388e-05,3.134844882879406e-05,3.013301011378644e-06,1.0422862942505162e-05,5.304638034431264e-05
-2.3029038857202977e-05,3.025193655048497e-05,8.81859796209028e-06,1.0966711670334917e-05,5.250379035715014e-05
-2.2440377506427467e-05,2.6305295250494964e-05,1.4868559446767904e-05,9.237258382199798e-06,4.749281652038917e-05
-2.1428339096019045e-05,2.2625616111326963e-05,1.650877675274387e-05,7.586356332467403e-06,4.808397716260515e-05
-2.310376839886885e-05,2.1059895516373217e-05,1.453565255360445e-05,9.436311302124523e-06,5.3654221119359136e-05
-2.6311834517400712e-05,2.021651562245097e-05,9.832383511820808e-06,9.28304416447645e-06,5.8622514188755304e-05
-2.7152334951097146e-05,2.255712024634704e-05,1.9249932847742457e-06,4.760688170790672e-06,6.278459477471188e-05
-2.4666804165462963e-05,2.5431996618863195e-05,-3.9985784496821e-06,-2.2515005184686743e-06,6.545129144797102e-05
-2.250774014100898e-05,2.6900255761574954e-05,-2.2381259441317525e-06,-7.725027899141423e-06,6.427949847420678e-05
-2.2169975636643358e-05,2.8971940992050804e-05,2.0036598016304197e-06,-9.316443538409658e-06,6.027194467606023e-05
-2.2939289920032024e-05,3.135475344606675e-05,2.516809217922855e-06,-8.382026862818748e-06,5.8160330809187144e-05
-2.6034666007035412e-05,2.9426448236336e-05,1.3432022569759283e-06,-1.1178884960827418e-05,5.8803780120797455e-05
-3.207113695680164e-05,2.8212612960487604e-05,1.2460918696888257e-06,-1.6417343431385234e-05,6.134804425528273e-05
-3.6357716453494504e-05,2.8556018150993623e-05,3.5823986763716675e-06,-1.8937522327178158e-05,6.372607458615676e-05
-3.447671406320296e-05,2.864564703486394e-05,3.8735211091989186e-06,-1.9011586118722335e-05,6.539513560710475e-05
-2.9216211260063574e-05,2.9609449484269135e-05,3.9237961573235225e-06,-1.974149199668318e-05,6.446198676712811e-05
-2.833653343259357e-05,3.0463856091955677e-05,6.22351944912225e-06,-2.3179538402473554e-05,6.166405364638194e-05
-3.178697807015851e-05,3.110498801106587e-05,9.076587048184592e-06,-2.5919516701833345e-05,6.0855621995870024e-05
-3.617130278144032e-05,3.2497599022462964e-05,1.1420715964050032e-05,-2.3854778191889636e-05,6.07819965807721e-05
-3.881063821609132e-05,3.32120071107056e-05,1.4219898730516434e-05,-1.987697760341689e-05,5.975366730126552e-05
-3.58594479621388e-05,2.9361946872086264e-05,1.4752793504158035e-05,-1.9136390619678423e-05,5.8267884014640003e-05
-2.9072794859530404e-05,2.5910771000781097e-05,1.074548163160216e-05,-2.2259140678215772e-05,5.676742875948548e-05
-2.6447925847605802e-05,2.8180465960758738e-05,5.2347368182381615e-06,-2.5887340598274022e-05,5.6773056712700054e-05
-2.7733891329262406e-05,3.2494383049197495e-05,5.15754663865664e-07,-2.8177730200695805e-05,5.871612302144058e-05
-3.0115781555650756e-05,3.14936951326672e-05,-1.557083578518359e-06,-2.612043681438081e-05,5.95120363868773e-05
-3.496061253827065e-05,3.131042831228115e-05,1.115560394282511e-06,-1.963782233360689e-05,5.974267332931049e-05
-4.0132119465852156e-05,3.437958730501123e-05,3.1201643651002087e-06,-1.7996500901062973e-05,6.0473055782495067e-05
-4.165400969213806e-05,3.4750519262161106e-05,2.3110608253773535e-06,-2.199048140028026e-05,6.132479757070541e-05
-3.697063948493451e-05,3.069325612159446e-05,1.5226444247673498e-06,-2.635626333358232e-05,6.209512503119186e-05
-3.211180955986492e-05,2.8425580239854753e-05,9.134561764767568e-07,-2.335084354854189e-05,6.183960795169696e-05
-3.3138436265289783e-05,2.8416661734809168e-05,8.314883643834037e-07,-1.8447994079906493e-05,6.251438026083633e-05
-3.743380875675939e-05,3.085287244175561e-05,5.630958526126051e-07,-1.639219954086002e-05,6.241543451324105e-05
-3.86642204830423e-05,3.357894456712529e-05,1.003648776531918e-06,-1.6493358998559415e-05,6.06905814493075e-05
-3.830915375147015e-05,3.1690768082626164e-05,1.433830789210333e-06,-1.9558341591618955e-05,6.0680806200252846e-05
-3.268207728979178e-05,3.079163798247464e-05,2.2032563720131293e-06,-1.629031976335682e-05,6.0992555518168956e-05
-2.6401414288557135e-05,3.0078743293415755e-05,2.758456275842036e-06,-8.586251169617753e-06,6.19613056187518e-05
-2.572171069914475e-05,2.8248990929569118e-05,2.4580258468631655e-06,-7.53317317503388e-06,6.351185584207997e-05
-2.750876774371136e-05,2.709788896027021e-05,-1.6357222420992912e-07,-1.2047743439325131e-05,6.490406667580828e-05
-2.9000961148994975e-05,2.8160498914076015e-05,-1.3882777238904964e-06,-1.4035608728590887e-05,6.585237133549526e-05
-2.6910007363767363e-05,2.9039101718808524e-05,2.138270701834699e-06,-1.3836777725373395e-05,6.612258584937081e-05
-2.262966700072866e-05,2.6965124561684206e-05,6.957001914997818e-06,-1.2376708582451101e-05,6.64612598484382e-05
-1.9945637177443132e-05,2.4060485884547234e-05,9.08156198420329e-06,-1.1202272617083509e-05,6.783943535992876e-05
-1.9856110156979412e-05,2.542467882449273e-05,7.937054760986939e-06,-1.1491740224300884e-05,6.665813270956278e-05
-1.9501774659147486e-05,2.980387580464594e-05,4.530191745288903e-06,-1.2415865057846531e-05,6.14279560977593e-05
-2.130553730239626e-05,3.178351107635535e-05,1.527807967249828e-06,-9.866399523161817e-06,5.809143476653844e-05
-2.777175177470781e-05,3.048539292649366e-05,2.143498932127841e-06,-5.1960614655399695e-06,5.783981760032475e-05
-3.4642729588085786e-05,2.842993853846565e-05,3.620740244514309e-06,-1.280054789276619e-06,5.9059464547317475e-05
-3.433292658883147e-05,2.3666787456022575e-05,4.8425558816234116e-06,-1.2439852525858441e-07,5.973600491415709e-05
-2.7822001356980763e-05,1.7514537830720656e-05,6.791152827645419e-06,-3.5353159546502866e-06,5.8549110690364614e-05
-2.4051912987488322e-05,1.655448431847617e-05,8.391391929762904e-06,-1.2167052773293108e-05,5.7803736126516014e-05
-2.820821464410983e-05,1.987495124922134e-05,6.875609415146755e-06,-2.27666569116991e-05,5.9338413848308846e-05
-3.1904131901683286e-05,2.2244250430958346e-05,2.689728262339486e-06,-2.5589848519302905e-05,6.0185175243532285e-05
-2.8268463211134076e-05,2.028303970291745e-05,-1.4763602393941255e-06,-2.226461401733104e-05,6.007406409480609e-05
-2.3299620806938037e-05,1.956374035216868e-05,-2.3053348741086666e-06,-1.7882259271573275e-05,6.0792612202931195e-05
-2.3353215510724112e-05,2.2198159058461897e-05,4.1516528881402337e-07,-1.398027416144032e-05,6.136110459920019e-05
-2.276630766573362e-05,2.7908945412491448e-05,2.9027833079453558e-06,-1.3571388080890756e-05,6.149116234155372e-05
-2.0043025870108977e-05,3.15550496452488e-05,-3.516564902383834e-06,-1.4485684914689045e-05,6.138646858744323e-05
-1.9706540115294047e-05,3.251122325309552e-05,-2.250612851639744e-05,-1.3565892004407942e-05,5.960742419119924e-05
-1.8610740880831145e-05,3.3379681553924456e-05,-4.0690800233278424e-05,-1.2877464541816153e-05,5.83050750719849e-05
-2.059913458651863e-05,3.2345651561627164e-05,-4.613816781784408e-05,-1.3948270861874335e-05,5.8323810662841424e-05
-2.5579640350770205e-05,3.156590901198797e-05,-3.673835817608051e-05,-1.5538324078079313e-05,5.605225669569336e-05
-2.445756399538368e-05,3.0672006687382236e-05,-2.138612217095215e-05,-1.796816104615573e-05,5.486583904712461e-05
-1.8447779439156875e-05,2.8882604965474457e-05,-8.776781214692164e-06,-1.980693923542276e-05,5.432554826256819e-05
-1.4906250726198778e-05,2.466679688950535e-05,5.752175184170483e-06,-1.761807652655989e-05,5.438036168925464e-05
-1.7615262549952604e-05,2.4844932340784e-05,2.458148264850024e-05,-1.5289673683582805e-05,5.481531115947291e-05
-2.294084697496146e-05,3.1063704227562994e-05,4.1894039895851165e-05,-1.2575325854413677e-05,5.318531475495547e-05
-2.7995934942737222e-05,3.5441767977317795e-05,5.011771645513363e-05,-1.1035010174964555e-05,5.119761044625193e-05
-2.9862163501093164e-05,3.419923814362846e-05,4.941781298839487e-05,-1.4310739970824216e-05,4.90373931825161e-05
-2.8682163247140124e-05,3.066413410124369e-05,4.600380998454057e-05,-1.9562245142878965e-05,4.7846795496298e-05
-2.6951180188916624e-05,3.0360281016328372e-05,4.362802064861171e-05,-2.1128307707840577e-05,4.7835132136242464e-05
-2.5462062694714405e-05,3.205986649845727e-05,4.0230766899185255e-05,-2.0545221559586935e-05,4.923742017126642e-05
-2.383478386036586e-05,3.192027361365035e-05,3.534771894919686e-05,-2.1579582607955672e-05,5.190838055568747e-05
-2.435240639897529e-05,3.0568557122023776e-05,3.364323856658302e-05,-2.2256937882048078e-05,5.204877015785314e-05
-2.6771260309033096e-05,3.1105944799492136e-05,3.376236418262124e-05,-2.149359352188185e-05,4.942632222082466e-05
-2.715019763854798e-05,3.1954565201886e-05,3.063790427404456e-05,-2.0923742340528406e-05,4.7332032409030944e-05
-2.5644809284131043e-05,3.068953810725361e-05,2.4977909561130218e-05,-2.233158375020139e-05,4.800444730790332e-05
-2.2504478693008423e-05,3.03107408399228e-05,1.8961696696351282e-05,-2.2922236894373782e-05,5.031957334722392e-05
-1.9554998289095238e-05,3.2104078854899853e-05,1.3699784176424146e-05,-2.0158382540103048e-05,5.1837338105542585e-05
-2.0156907339696772e-05,3.462542736087926e-05,1.1553561307664495e-05,-1.6564794350415468e-05,5.332196087692864e-05
-2.273072095704265e-05,3.552055932232179e-05,9.993931598728523e-06,-1.4410395124286879e-05,5.3520365327131e-05
-2.172280255763326e-05,3.554017894202843e-05,4.327883743826533e-06,-1.4894301784806885e-05,5.413863618741743e-05
-1.8785936845233664e-05,3.8418274925788864e-05,-4.3386830839153845e-06,-1.2478551070671529e-05,5.334533489076421e-05
-1.761484418238979e-05,3.963632116210647e-05,-7.063189514155965e-06,-1.055869142874144e-05,5.306825914885849e-05
-2.1257763364701532e-05,3.54351032001432e-05,-7.80502159614116e-06,-1.3722079529543407e-05,5.916511872783303e-05
-2.295067133673001e-05,2.8727414246532135e-05,-1.3074642993160523e-05,-1.530791814730037e-05,6.328906601993367e-05
-2.1882537112105638e-05,2.863004192477092e-05,-1.524051640444668e-05,-1.678020453255158e-05,6.384703738149256e-05
-2.187848076573573e-05,3.175800884491764e-05,-1.223905201186426e-05,-1.5960362361511216e-05,6.622767978115007e-05
-2.106957254000008e-05,3.1705225410405546e-05,-6.065993602533126e-06,-1.0606881005514879e-05,6.830636993981898e-05
-2.055760342045687e-05,2.9102824555593543e-05,-1.4623996094087488e-06,-5.210553354118019e-06,6.843148730695248e-05
-2.154660069209058e-05,2.5705614461912774e-05,1.6359454093617387e-06,-8.764437552599702e-06,6.635700265178457e-05
-2.2847849322715774e-05,2.468753700668458e-05,2.8084591576771345e-06,-1.3356026101973839e-05,6.639731873292476e-05
-2.5048935640370473e-05,2.3490565581596456e-05,2.573635583758005e-06,-1.1281047591182869e-05,6.86192506691441e-05
-3.0091543521848507e-05,2.101499558193609e-05,2.786787035802263e-06,-6.991962891333969e-06,7.017124880803749e-05
-3.599857518565841e-05,1.8882359654526226e-05,3.275539938840666e-06,-6.863942871859763e-06,6.937018770258874e-05
-3.947167351725511e-05,1.8355518477619626e-05,4.127079137106193e-06,-9.921231139742304e-06,6.531765393447131e-05
-3.7826084735570475e-05,1.8530108718550764e-05,2.305671159774647e-06,-1.0585919881123118e-05,6.209551065694541e-05
-3.4477474400773644e-05,1.9717374016181566e-05,-5.371815063881513e-07,-1.038568007061258e-05,6.119073805166408e-05
-3.500271122902632e-05,2.005122041737195e-05,-2.4411469894403126e-06,-1.1213214747840539e-05,6.299536471487954e-05
-3.923015538020991e-05,1.9413811969570816e-05,-1.9060992144659394e-06,-1.091291596821975e-05,6.615107122343034e-05
-4.021093263872899e-05,1.9204915588488802e-05,1.7544310821904219e-06,-8.425230589637067e-06,6.709166336804628e-05
-3.534729330567643e-05,1.9865026843035594e-05,5.996625986881554e-06,-7.343225206568604e-06,6.545426731463522e-05
-3.0252509532147087e-05,2.0818111806875095e-05,5.5487739700765815e-06,-6.9070215431565885e-06,6.566075899172574e-05
-2.6662924938136712e-05,2.148876774299424e-05,3.950300651922589e-06,-4.141356384934625e-06,6.797087553422898e-05
-2.3012597011984326e-05,2.28065673582023e-05,8.174827598850243e-06,1.4013328382134205e-06,7.0679780037608e-05
-1.8939859728561714e-05,2.5598723368602805e-05,1.2485532352002338e-05,6.505076271423604e-06,7.333580288104713e-05
-1.5516316125285812e-05,3.029815161426086e-05,1.1335027920722496e-05,8.289702236652374e-06,7.324553735088557e-05
-1.3543005479732528e-05,3.4332555514993146e-05,1.1748594261007383e-05,8.020146196940914e-06,7.00362361385487e-05
