-2.7501664590090513e-05,4.40202493336983e-05,5.633207820210373e-06,-2.045269684458617e-05,4.87617653561756e-05
-2.527406468288973e-05,1.3873977877665311e-05,1.3090412721794564e-05,-1.9675919247674756e-05,4.4816220906795934e-05
-2.1971876776660793e-05,-8.406937922700308e-06,1.938783680088818e-05,-2.0390554709592834e-05,5.059920295025222e-05
-2.0245286577846855e-05,-9.730936653795652e-06,2.651775321282912e-05,-1.9801344024017453e-05,5.3118546929908916e-05
-2.2447795345215127e-05,-2.1627936064305686e-07,2.9420829378068447e-05,-1.7285943613387644e-05,5.3106890845810995e-05
-2.398920332780108e-05,4.853431164519861e-06,2.6350991902290843e-05,-1.7975946320802905e-05,5.4458250815514475e-05
-2.439662057440728e-05,6.689926522085443e-06,2.0968371245544404e-05,-2.0084875359316356e-05,5.650828461511992e-05
-2.5346136681037024e-05,8.934491233958397e-06,1.5504263501497917e-05,-2.2656529836240225e-05,5.7760706113185734e-05
-2.635785313032102e-05,1.3927218788012397e-05,1.104538569052238e-05,-2.3081916879164055e-05,5.967848846921697e-05
-2.4527696950826794e-05,1.980107481358573e-05,6.794939508836251e-06,-2.0544530343613587e-05,6.052835306036286e-05
-2.403510188742075e-05,2.4494604076608084e-05,3.5428420233074576e-06,-1.5189332771115005e-05,6.010297147440724e-05
-2.4215505618485622e-05,1.775008422555402e-05,2.3222664822242223e-06,-1.0057045074063353e-05,5.90603485761676e-05
-2.344470158277545e-05,2.4570351797592593e-06,3.332050482640625e-06,-6.6643469835980795e-06,5.689018507837318e-05
-2.383419814577792e-05,-3.3049373087123968e-06,5.838069228047971e-06,-6.6895245254272595e-06,5.8691424783319235e-05
-2.5246150471502915e-05,7.224508408398833e-06,7.715095307503361e-06,-7.899839147285093e-06,5.947811223450117e-05
-2.785632386803627e-05,2.2079595510149375e-05,7.726602234470192e-06,-8.85433291841764e-06,5.7383269449928775e-05
-3.0193310522008687e-05,2.996570765390061e-05,7.247815574373817e-06,-7.665865268791094e-06,5.642904943670146e-05
-2.9825894671375863e-05,3.131096309516579e-05,6.218990165507421e-06,-3.5671350815391634e-06,5.894329660804942e-05
-2.4920540454331785e-05,3.132208439637907e-05,4.925067969452357e-06,5.370349072109093e-07,6.062451939214952e-05
-2.1057443518657237e-05,3.313156048534438e-05,2.1643224954459583e-06,2.344776248719427e-06,6.0112011851742864e-05
-2.2859165255795233e-05,3.8167967431945726e-05,-8.839801921567414e-07,1.8227786995339557e-06,5.732004501624033e-05
-2.7861593480338342e-05,4.599547173711471e-05,-4.740500685329607e-07,-7.64996400448581e-07,5.4967265896266326e-05
-2.8360014766803943e-05,4.924472887068987e-05,2.258354925288586e-06,-5.097552730148891e-06,5.254373900243081e-05
-2.4788623704807833e-05,4.27006307290867e-05,3.127239097011625e-06,-6.8139097493258305e-06,5.1168706704629585e-05
-1.9927767425542697e-05,3.5777971788775176e-05,2.9949371764814714e-06,-4.920126229990274e-06,5.4100204579299316e-05
-1.7758828107616864e-05,3.557956370059401e-05,3.776447783820913e-06,-1.9474391592666507e-06,5.8834128140006214e-05
-1.781754872354213e-05,3.777858364628628e-05,4.870185421168571e-06,-2.391812358837342e-06,6.304704584181309e-05
-1.863404941104818e-05,3.523342456901446e-05,7.4713948379212525e-06,-7.80876143835485e-06,6.29176793154329e-05
-2.280803346366156e-05,2.5394065232831053e-05,9.040837539942004e-06,-1.0001228474720847e-05,6.066340938559733e-05
-2.923112151620444e-05,2.1432719222502783e-05,6.109355126682203e-06,-4.672383056458784e-06,6.328399467747658e-05
-3.285048296675086e-05,2.270240474899765e-05,-6.9786606218258385e-06,7.771040486659331e-07,6.527539517264813e-05
-3.1026163924252614e-05,2.8207288778503425e-05,-2.3315031285164878e-05,1.8537282358010998e-06,6.346317240968347e-05
-3.066963472520001e-05,3.2896423363126814e-05,-2.8516233214759268e-05,3.598692899231537e-07,6.119778845459223e-05
-3.395407475181855e-05,3.590693449950777e-05,-2.4267750632134266e-05,-1.1147377563247574e-06,6.029910218785517e-05
-3.470509545877576e-05,3.90969289583154e-05,-1.568260086060036e-05,-1.9971107576566283e-06,5.879988748347387e-05
-3.4952739952132106e-05,4.0044782508630306e-05,-8.717804121260997e-06,-1.5419558394569322e-06,5.756116297561675e-05
-3.664732867036946e-05,4.196399822831154e-05,-2.675754558367771e-06,-3.08958829009498e-06,5.843907274538651e-05
-3.671748345368542e-05,4.1809529648162425e-05,6.707164629915496e-06,-6.076664703869028e-06,5.9784397308249027e-05
-3.501688115647994e-05,4.134703704039566e-05,1.591278487467207e-05,-8.23215304990299e-06,5.963724834145978e-05
-3.552997441147454e-05,4.1719875298440456e-05,2.1130512322997674e-05,-1.0370833479100838e-05,5.7704051869222894e-05
-3.767844827962108e-05,4.249391713528894e-05,2.514087282179389e-05,-1.2623282600543462e-05,5.8295299822930247e-05
-3.609436680562794e-05,4.0103448554873466e-05,3.1566250981995836e-05,-1.529365181340836e-05,6.0552025388460606e-05
-3.0388722734642215e-05,3.353251304361038e-05,3.581221608328633e-05,-1.917209374369122e-05,6.200790812727064e-05
-2.667938133527059e-05,2.7834503271151334e-05,3.437466875766404e-05,-2.0345298253232613e-05,6.256223423406482e-05
-2.7451842470327392e-05,2.88330211333232e-05,3.1415795092470944e-05,-1.3942901205155067e-05,6.253995525185019e-05
-2.8903630663990043e-05,3.470433148322627e-05,3.1653100450057536e-05,-5.72218459637952e-06,6.244589167181402e-05
-2.9501727112801746e-05,3.88149892387446e-05,3.17610647471156e-05,-4.051665200677235e-06,6.300658424152061e-05
-3.04043605865445e-05,3.678888606373221e-05,2.9338230888242833e-05,-8.28338488645386e-06,6.372179632307962e-05
-3.0847972084302455e-05,3.166787791997194e-05,2.520584712328855e-05,-1.2352870726317633e-05,6.463581667048857e-05
-2.8338583433651365e-05,2.956429307232611e-05,2.112290167133324e-05,-1.2407314898155164e-05,6.232210580492392e-05
-2.867941111617256e-05,3.12548472720664e-05,1.9434664864093065e-05,-7.97052234702278e-06,5.8241301303496584e-05
-2.9861672373954207e-05,3.123746137134731e-05,1.698168125585653e-05,-4.365308086562436e-06,5.533527655643411e-05
-2.5098690457525663e-05,3.153384386678226e-05,1.2722851352009457e-05,-4.00857152271783e-06,5.35966973984614e-05
-2.1184641809668392e-05,3.1882456823950633e-05,1.247281670657685e-05,-7.79349011281738e-06,5.474893987411633e-05
-2.5143586753983982e-05,2.5538984118611552e-05,1.3859713362762704e-05,-1.2055023944412824e-05,5.50240401935298e-05
-3.141779961879365e-05,1.8992548575624824e-05,9.81220364337787e-06,-1.1565743079700042e-05,5.3912732255412266e-05
-3.314464629511349e-05,1.6919449990382418e-05,3.5934891684519243e-07,-1.023868844640674e-05,5.790008799522184e-05
-3.1671803299104795e-05,1.704783790046349e-05,-4.830298166780267e-06,-1.1309955880278721e-05,5.963937292108312e-05
-3.057776848436333e-05,1.9348184650880285e-05,-1.3833331422574702e-06,-9.23932657315163e-06,5.572823647526093e-05
-3.061315874219872e-05,2.107077307300642e-05,1.7396283737980411e-06,-2.693576334422687e-06,5.549318666453473e-05
-2.983332160511054e-05,2.0811376089113764e-05,1.6997928469209e-06,9.272656598113826e-07,5.986390169709921e-05
-2.8868669687653892e-05,2.1947134882793762e-05,2.0367964737033617e-07,-3.1795007089385763e-06,6.286252028075978e-05
-2.690206019906327e-05,2.3335533114732243e-05,3.270361958129797e-06,-1.1926077604584862e-05,6.220671639312059e-05
-2.420607052044943e-05,2.3475158741348423e-05,7.339274816331454e-06,-1.5538289517280646e-05,5.946064629824832e-05
-2.2630933017353527e-05,2.3488006263505667e-05,6.623623903578846e-06,-1.556423922011163e-05,5.728249379899353e-05
-2.228763696621172e-05,2.2343945602187887e-05,3.749511051864829e-06,-1.6155960111063905e-05,5.982825314276852e-05
-2.2055412046029232e-05,1.9627932488219813e-05,1.7135008647528593e-06,-1.5805222574272193e-05,6.521832256112248e-05
-2.1739262592745945e-05,1.7610118447919376e-05,4.199406703264685e-06,-1.3306361324794125e-05,6.630783173022792e-05
-2.302018583577592e-05,1.6435877114417963e-05,6.0538204706972465e-06,-1.084727409761399e-05,6.240762741072103e-05
-2.525639683881309e-05,1.670619531068951e-05,3.1814097383175977e-06,-9.986581972043496e-06,6.075585770304315e-05
-2.8103186195949093e-05,1.8046965124085546e-05,-1.3022308849031106e-06,-8.761195203987882e-06,6.333224155241624e-05
-3.0334565963130444e-05,2.1198180547798984e-05,-2.3639577193534933e-06,-7.825406100891996e-06,6.346553709590808e-05
-3.106307485722937e-05,2.53399684879696e-05,-1.7191121060022851e-06,-9.802946806303225e-06,5.913556742598303e-05
-2.9133620046195574e-05,2.7603986382018775e-05,-2.1616242520394735e-06,-1.191652972920565e-05,5.5378914112225175e-05
-2.6274281481164508e-05,2.6277020879206248e-05,-2.9810387331963284e-06,-9.784756912267767e-06,5.447450894280337e-05
-2.4543222025386058e-05,2.13907133002067e-05,-2.3119606851196295e-07,-6.3085549300012644e-06,5.450090975500643e-05
-2.3232929379446432e-05,1.6324271200574003e-05,4.269256805855548e-06,-2.0327390757302055e-06,5.5945572967175394e-05
-2.3013088139123283e-05,1.8676941181183793e-05,3.1982767723093275e-06,1.174308067675156e-06,5.884982238058001e-05
-2.4653252694406547e-05,2.511145794414915e-05,-1.2577651204992435e-06,1.0888982160395244e-06,5.9880941989831626e-05
-2.4256583856185898e-05,2.6059466108563356e-05,-1.0875189218495507e-05,2.8759228598573827e-07,5.9053785662399605e-05
-1.8477830963092856e-05,2.4106200726237148e-05,-2.0906336430925876e-05,3.765230474073178e-07,5.973762381472625e-05
-1.3767526979791e-05,2.360630787734408e-05,-2.1944539184914902e-05,5.891099021937407e-07,6.26805194769986e-05
-1.5135041394387372e-05,2.3470374799217097e-05,-1.8107493815477937e-05,1.8454055634720135e-06,6.258778012124822e-05
-1.8572713088360615e-05,2.4529899746994488e-05,-1.2557448826555628e-05,2.4941422793745005e-07,6.205383397173136e-05
-2.2652020561508834e-05,2.505733755242545e-05,-8.405989319726359e-06,-5.765044079453219e-06,6.319866224657744e-05
-2.4966031560325064e-05,2.4616963855805807e-05,-6.618334737140685e-06,-1.0334139005863108e-05,6.301454413915053e-05
-2.8614827897399664e-05,2.272658093716018e-05,-2.8493568606791086e-06,-1.1587967492232565e-05,5.893503475817852e-05
-3.421837755013257e-05,1.767306457622908e-05,2.1222122086328454e-06,-1.042017902364023e-05,5.5300508392974734e-05
-3.726087015820667e-05,1.71764495462412e-05,6.149209184513893e-06,-7.475517122657038e-06,5.396986671257764e-05
-3.782624116865918e-05,1.94428394024726e-05,1.1956537491641939e-05,-6.912730896146968e-06,5.281199992168695e-05
-3.363945143064484e-05,2.4441098503302783e-05,1.477068963140482e-05,-6.153259619168239e-06,5.434241029433906e-05
-2.8992426450713538e-05,2.654130366863683e-05,1.03080747066997e-05,-2.694186150620226e-06,5.810267248307355e-05
-2.7148866138304584e-05,2.561915243859403e-05,2.216343546024291e-06,-1.0569018513706396e-06,6.241568189579993e-05
-2.8179136279504746e-05,2.6806912501342595e-05,-5.117448381497525e-06,-2.3997367861738894e-06,6.487008067779243e-05
-3.0235834856284782e-05,3.0597417207900435e-05,-7.006022769928677e-06,-4.820925369131146e-06,6.583986396435648e-05
-3.209948044968769e-05,3.143540016026236e-05,-3.091030293944641e-06,-6.625694368267432e-06,6.396711250999942e-05
-3.250842200941406e-05,2.7784615667769685e-05,2.1029536583228037e-06,-9.462804882787168e-06,6.12709773122333e-05
-3.168397233821452e-05,2.611525633255951e-05,8.197530405595899e-06,-1.2941804016008973e-05,6.0935592046007514e-05
-3.101387119386345e-05,2.8052336347172968e-05,1.7713504348648712e-05,-1.5601206541759893e-05,6.007375122862868e-05
-3.0089571737335064e-05,3.158301115036011e-05,2.730440792220179e-05,-1.6419307939941064e-05,5.619967123493552e-05
-2.9207163606770337e-05,3.308325176476501e-05,3.250819645472802e-05,-1.687554868112784e-05,5.324953963281587e-05
-3.018275492649991e-05,3.535970245138742e-05,3.087754885200411e-05,-1.559217162139248e-05,5.28635318914894e-05
-3.2374573493143544e-05,3.7006957427365705e-05,2.5757390176295303e-05,-1.199871076096315e-05,5.3568695875583217e-05
-3.447413837420754e-05,3.6876477679470554e-05,2.154242611140944e-05,-1.0672334610717371e-05,5.4448144510388374e-05
-3.5535511415218934e-05,3.763166023418307e-05,2.2033724235370755e-05,-1.2909477845823858e-05,5.312506982591003e-05
-3.6317447666078806e-05,4.189151877653785e-05,2.363464591326192e-05,-1.7153100998257287e-05,5.029072053730488e-05
-3.626528268796392e-05,4.418065509526059e-05,2.3500368115492165e-05,-1.8683811504160985e-05,5.0772960094036534e-05
-3.281928366050124e-05,4.287030242267065e-05,2.0994333681301214e-05,-1.8282067685504444e-05,5.561191574088298e-05
-2.860838867491111e-05,3.611201827879995e-05,1.3728843441640493e-05,-2.0906916688545607e-05,6.333374767564237e-05
-2.5918732717400417e-05,2.843560287146829e-05,7.013781214482151e-06,-2.1915429897489958e-05,6.506257341243327e-05
-2.2147474737721495e-05,2.9236669433885254e-05,1.8362921991865733e-06,-1.745524787111208e-05,6.153780122986063e-05
-1.5295567209250294e-05,3.257258140365593e-05,-1.0932801615126664e-06,-1.140288804890588e-05,6.053528340999037e-05
-5.778987087978749e-06,3.406590622034855e-05,-2.5164067665173206e-06,-1.4376833860296756e-05,6.280698289629072e-05
-1.1528098866619985e-06,3.054924673051573e-05,-2.73539671979961e-06,-2.3069404051057063e-05,6.906869384692982e-05
-6.929235496500041e-06,2.3253865947481245e-05,-2.5951480893127155e-06,-2.6639421776053496e-05,6.98845469742082e-05
-1.3447259334498085e-05,2.5566605472704396e-05,-4.293104666430736e-06,-2.8068392566638067e-05,6.659470091108233e-05
-1.641016388020944e-05,3.282820398453623e-05,-5.226194389251759e-06,-3.100734465988353e-05,6.259417568799108e-05
-1.592652733961586e-05,3.162151188007556e-05,-6.767272680008318e-06,-3.116678271908313e-05,6.118613964645192e-05
-1.783728839654941e-05,2.1935200493317097e-05,-7.725263458269183e-06,-2.623948603286408e-05,6.335367652354762e-05
-2.2074982553021982e-05,1.5357962183770724e-05,-7.060695679683704e-06,-2.2494194126920775e-05,6.492985266959295e-05
-2.5465373255428858e-05,1.5885338143561967e-05,-4.887548584520118e-06,-2.0967065211152658e-05,6.37345074210316e-05
-2.3572823920403607e-05,2.0296614820836112e-05,-2.3645889086765237e-06,-1.9609680748544633e-05,6.293497426668182e-05
-1.966129639185965e-05,2.4331613531103358e-05,-8.286692718684208e-07,-1.8596283553051762e-05,6.361617852235213e-05
-2.1922918676864356e-05,2.355199831072241e-05,-3.14266731038515e-06,-1.8410079064778984e-05,6.172557914396748e-05
-2.7749589207815006e-05,1.9490915292408317e-05,-7.77657623984851e-06,-1.7127142200479284e-05,5.948826947133057e-05
-3.0164868803694844e-05,1.685833922238089e-05,-9.607624633645173e-06,-1.623794923943933e-05,5.752508150180802e-05
-2.495622720743995e-05,1.739440813253168e-05,-7.205360816442408e-06,-1.6843077901285142e-05,5.5632684961892664e-05
-1.9609511582530104e-05,1.9476246961858124e-05,-2.47407183451287e-06,-1.561927820148412e-05,5.337325274012983e-05
-1.7717235095915385e-05,1.996333412535023e-05,-3.177451617375482e-07,-1.2913625141663942e-05,5.366389450500719e-05
-1.8939485016744584e-05,1.8183138308813795e-05,-1.5340074241976254e-06,-1.3318479432200547e-05,5.66372909815982e-05
-2.1780075257993303e-05,2.072209281323012e-05,-3.1020895221445244e-06,-1.561999124533031e-05,5.985648022033274e-05
-2.4978297005873173e-05,2.2290141714620404e-05,-3.3452793104515877e-06,-1.2325055649853311e-05,5.97697107878048e-05
-2.8969699997105636e-05,2.0009891159133986e-05,-1.5113441804714967e-06,-7.4273443715355825e-06,5.81087006139569e-05
-3.090545942541212e-05,2.0332709027570672e-05,-6.72453595029765e-08,-7.016374183876906e-06,5.543012957787141e-05
-2.89933814201504e-05,2.5598452339181677e-05,-2.4405837848462397e-06,-7.0862470238353126e-06,5.068089740234427e-05
-2.8191330784466118e-05,3.3281474316027015e-05,-3.178452516294783e-06,-8.4465882537188e-06,4.863868161919527e-05
-3.041669879166875e-05,3.554748764145188e-05,1.255912934539083e-06,-9.803105058381334e-06,5.1750714192166924e-05
-3.277608993812464e-05,3.4146822144975886e-05,4.868139512836933e-06,-9.63661750574829e-06,5.621249147225171e-05
-3.413487138459459e-05,3.5668981581693515e-05,2.4044136353040813e-06,-9.8217087725061e-06,5.8644363889470696e-05
-3.720684253494255e-05,3.888662831741385e-05,6.9768003641002e-07,-1.0149532499781344e-05,6.041596861905418e-05
-3.946842116420157e-05,4.2122541344724596e-05,1.0304113402526127e-06,-1.0292366823705379e-05,6.221483636181802e-05
-3.640458453446627e-05,4.794227425009012e-05,1.3737449080508668e-06,-1.3296255929162726e-05,6.287804717430845e-05
-2.7627456802292727e-05,5.527404209715314e-05,3.701043851833674e-06,-1.7866203052108176e-05,6.014053724356927e-05
-2.1883613953832537e-05,5.636087735183537e-05,6.59014813209069e-06,-1.6830830645631067e-05,5.6577890063636005e-05
-2.453746674291324e-05,5.455572681967169e-05,6.8333556555444375e-06,-1.3658302123076282e-05,5.307481114869006e-05
-2.9492281100829132e-05,5.2739462262252346e-05,3.579926897145924e-06,-9.993334060709458e-06,4.74436892545782e-05
-2.985523678944446e-05,4.5429023884935305e-05,9.861971648206236e-07,-8.551497558073606e-06,4.339764564065263e-05
-2.56186758633703e-05,2.5325916794827208e-05,9.667128324508667e-07,-1.2420607163221575e-05,4.4735097617376596e-05
-2.1026549802627414e-05,4.413850092532812e-06,3.027448656212073e-06,-1.764005355653353e-05,5.011979737901129e-05
-2.0505671272985637e-05,-7.740440537418181e-07,6.750078682671301e-06,-1.8303351680515334e-05,5.400837471825071e-05
-2.220212627435103e-05,8.460914614261128e-06,9.928881809173618e-06,-1.7397520423401147e-05,5.382940798881464e-05
-2.361460246902425e-05,1.863576289906632e-05,9.743198461364955e-06,-1.7767097233445384e-05,5.265657455311157e-05
-2.9732776965829544e-05,2.3133263312047347e-05,7.578835266031092e-06,-1.7058309822459705e-05,5.208967922953889e-05
-3.7465590139618143e-05,2.512713399482891e-05,5.703437636839226e-06,-1.5837962564546615e-05,5.4736065067118034e-05
-4.029743286082521e-05,2.5608227588236332e-05,5.734854767069919e-06,-1.654530751693528e-05,5.9617679653456435e-05
-3.919469236279838e-05,2.5519733753753826e-05,7.886326784500852e-06,-1.6269623301923275e-05,6.31609364063479e-05
-3.860400101984851e-05,2.6376461391919293e-05,1.1524404726515058e-05,-1.133955447585322e-05,6.563941860804334e-05
-3.817599645117298e-05,2.83604549622396e-05,1.419478121533757e-05,-7.768398063490167e-06,6.767451850464568e-05
-3.597067916416563e-05,2.8758327971445397e-05,1.1611190529947635e-05,-7.757322237011977e-06,6.608059629797935e-05
-3.479592123767361e-05,2.680600664461963e-05,7.79540823714342e-06,-8.402972525800578e-06,6.0918402596144006e-05
-4.016534876427613e-05,2.5362547603435814e-05,7.119404017430497e-06,-8.403109859500546e-06,5.906700243940577e-05
-4.4433480070438236e-05,2.6578556571621448e-05,4.493438154895557e-06,-4.6448294597212225e-06,6.003357339068316e-05
-4.0482947952114046e-05,2.6470914235687815e-05,-1.247013415195397e-06,1.0936396392935421e-06,6.0423873947001994e-05
-3.2852592994458973e-05,2.683694037841633e-05,-3.1534243589703692e-06,2.1065941382403253e-06,5.959940972388722e-05
-2.6323685233364813e-05,2.7128044166602194e-05,-7.333493385885959e-07,-1.011341851153702e-06,6.249144644243643e-05
-2.4522376406821422e-05,2.619657061586622e-05,3.1234483230946353e-06,-4.271567377145402e-06,6.829918129369617e-05
-2.5829685910139233e-05,2.5217279471689835e-05,6.270597168622771e-06,-6.1986929722479545e-06,7.096677290974185e-05
-2.6703828552854247e-05,2.5703604478621855e-05,7.1665299401502125e-06,-9.660770047048572e-06,7.067369006108493e-05
-2.641768332978245e-05,2.473927816026844e-05,1.1240797903155908e-05,-1.136851824412588e-05,6.997890886850655e-05
-2.4005657905945554e-05,2.5965024178731255e-05,1.723476998449769e-05,-8.538456313544884e-06,6.988190580159426e-05
-2.4714801838854328e-05,3.129863034700975e-05,2.0404220776981674e-05,-5.698638688045321e-06,6.731878238497302e-05
-3.122442285530269e-05,3.6871097108814865e-05,1.9083692677668296e-05,-6.210600986378267e-06,6.26575929345563e-05
-3.519205347402021e-05,3.9614249544683844e-05,1.4225393897504546e-05,-1.1075068869104143e-05,5.7933655625674874e-05
-3.299150557722896e-05,3.744426794582978e-05,1.1745003575924784e-05,-1.6437714293715544e-05,5.6778721045702696e-05
-2.8442442271625623e-05,3.180807834723964e-05,1.2870186765212566e-05,-1.6320198483299464e-05,5.769342533312738e-05
-2.3956939912750386e-05,2.566367584222462e-05,1.4997593098087236e-05,-1.2077608516847249e-05,6.0053895140299574e-05
-1.9241879272158258e-05,2.3723412596154958e-05,1.5684174286434427e-05,-9.909666914609261e-06,6.291946192504838e-05
-1.7133468645624816e-05,2.7203484933124855e-05,1.3347626008908264e-05,-1.1917196388822049e-05,6.40885773464106e-05
-2.003554254770279e-05,3.670337900985032e-05,9.452474841964431e-06,-1.2602999049704522e-05,6.380322884069756e-05
-2.5611780074541457e-05,4.522682138485834e-05,7.300639026652789e-06,-9.139676876657177e-06,6.21502404101193e-05
-2.895545731007587e-05,4.76688401249703e-05,5.994526418362511e-06,-3.683521072161966e-06,5.870858149137348e-05
-2.6196901671937667e-05,4.568055737763643e-05,2.2021315544407116e-06,-3.568805695408628e-08,5.428587974165566e-05
-2.19500270759454e-05,4.226353848935105e-05,-2.2841852569399634e-06,6.501011853288219e-07,5.2613810112234205e-05
-2.102414146065712e-05,3.945267599192448e-05,-3.5826396924676374e-06,-6.249630359889125e-07,5.3785352065460756e-05
-2.198664878960699e-05,3.704743357957341e-05,-9.200735462400189e-07,-2.6239949875161983e-06,5.6350199884036556e-05
-2.3548651370219886e-05,3.423431553528644e-05,4.722459834738402e-06,-2.3940933715493884e-06,5.885817517992109e-05
-2.4405686417594552e-05,3.123997521470301e-05,1.0502634722797666e-05,4.2618871987087914e-08,6.067768481443636e-05
-2.4067965568974614e-05,2.857363324437756e-05,1.404595241183415e-05,2.863833060473553e-06,6.078612932469696e-05
-2.5510144041618332e-05,2.7868929464602843e-05,1.2271679224795662e-05,2.84140105577535e-06,6.012087033013813e-05
-2.641950959514361e-05,2.6142713977606036e-05,3.554971954145003e-06,-1.1767834848797065e-06,6.092124021961354e-05
-2.8756558094755746e-05,2.7251709980191663e-05,-5.52065603187657e-06,-6.25400116405217e-06,5.986676114844158e-05
-3.140389162581414e-05,3.4159831557190046e-05,-7.571891273983056e-06,-7.185708909673849e-06,5.644109478453174e-05
-3.06996371364221e-05,3.792519783019088e-05,-4.603190973284654e-06,-5.6345757002418395e-06,5.700519250240177e-05
-3.301798278698698e-05,3.5052664316026494e-05,-4.828269766221638e-07,-2.885004278141423e-06,6.028688949299976e-05
-3.6936042306479067e-05,2.8424579795682803e-05,2.125495029758895e-06,-2.4731693883950356e-06,5.960300040896982e-05
-3.829628985840827e-05,2.5369401555508375e-05,4.025174348498695e-06,-5.305877039063489e-06,5.600032818620093e-05
-3.5168759495718405e-05,2.445615791657474e-05,7.4184927143505774e-06,-3.6685000850411598e-06,5.5698619689792395e-05
-3.1020659662317485e-05,2.4870363631634973e-05,1.1194345461262856e-05,2.4857766334207554e-07,5.8540703321341425e-05
-2.7729147404897958e-05,2.6461491870577447e-05,1.5988249288056977e-05,-1.9997713707198272e-08,6.174470036057755e-05
-2.7593720005825162e-05,2.5273338906117715e-05,1.6695928934495896e-05,-3.2672858196747256e-06,6.168467371026054e-05
-3.045073026441969e-05,2.1862097128177993e-05,1.3345786101126578e-05,-4.176997208560351e-06,5.9350848459871486e-05
-3.336674490128644e-05,1.5496480045840144e-05,9.152312486548908e-06,-2.407807869531098e-06,5.888430314371362e-05
-3.3965588954743e-05,1.0326930350856856e-05,5.840181529492838e-06,-7.111630111467093e-07,6.108406523708254e-05
-3.0494540624204092e-05,1.1547492249519564e-05,3.576630888346699e-06,-7.470212040061597e-07,6.194441812112927e-05
-2.417982614133507e-05,2.0336270608822815e-05,3.101216179857147e-06,-8.242533340308e-07,6.040634980308823e-05
-2.034834324149415e-05,2.781498733384069e-05,4.800909209734527e-06,1.2493262602220057e-06,5.976157262921333e-05
-2.0498409867286682e-05,2.8539630875457078e-05,5.89049659538432e-06,4.971357157046441e-06,5.984926247037947e-05
-2.1344327251426876e-05,2.8189604563522153e-05,6.667085472145118e-06,8.141609214362688e-06,6.0759350162697956e-05
-2.2446141883847304e-05,3.1357190891867504e-05,7.065979389153654e-06,7.843364983273204e-06,6.247535930015147e-05
-2.3652501113247126e-05,3.693343387567438e-05,6.8029594331164844e-06,4.343651198723819e-06,6.333554483717307e-05
-2.6511686883168295e-05,4.046344110975042e-05,7.506471320084529e-06,6.25587631475355e-07,6.398378900485113e-05
-2.929452784883324e-05,4.0349226765101776e-05,7.428788649121998e-06,-1.876751866802806e-06,6.520798342535272e-05
-2.7520107323653065e-05,3.999690670752898e-05,4.317063030612189e-06,-3.98849306293414e-06,6.368396134348586e-05
-2.16139160329476e-05,4.0988499677041546e-05,7.626200613231049e-07,-6.53330880595604e-06,5.920273906667717e-05
-1.685632742010057e-05,4.144059857935645e-05,-1.5264135981851723e-06,-7.261528935487149e-06,5.346684338292107e-05
-1.2669848729274236e-05,3.992008714703843e-05,3.724633188539883e-07,-3.749682946363464e-06,4.8932895879261196e-05
-8.761613571550697e-06,3.101926267845556e-05,5.809072263218695e-06,-3.5963462323707063e-06,5.0179667596239597e-05
-8.634433470433578e-06,1.729995710775256e-05,8.51794993650401e-06,-1.047624846250983e-05,5.388741192291491e-05
-1.1524140973051544e-05,9.67765663517639e-06,6.09192738920683e-06,-1.592859553056769e-05,5.5128395615611225e-05
-1.5836452803341672e-05,1.2868187695858069e-05,3.2724690299801296e-06,-1.499051541031804e-05,5.2700583182740957e-05
-2.249796671094373e-05,1.9720386262633838e-05,6.442287030949956e-06,-1.5898469428066164e-05,4.906074900645763e-05
-2.4464616217301227e-05,2.718074210861232e-05,1.3304200365382712e-05,-1.8591395928524435e-05,4.925007306155749e-05
-1.9044149667024612e-05,3.2004591048462316e-05,1.3456869055517018e-05,-1.7942596969078295e-05,4.9543286877451465e-05
-1.0935897080344148e-05,2.85526712104911e-05,9.402030627825297e-06,-1.872851498774253e-05,5.120380956213921e-05
-8.49140815262217e-06,2.22995276999427e-05,7.604741767863743e-06,-2.0355113520054147e-05,5.335736568667926e-05
-1.1717625056917313e-05,2.1205905795795843e-05,1.0100809049617965e-05,-2.160398980777245e-05,5.154020618647337e-05
-1.7613574527786113e-05,2.430895074212458e-05,1.363848878099816e-05,-1.9260542103438638e-05,4.920392166241072e-05
-2.2142849047668278e-05,2.5607476345612668e-05,1.544353654026054e-05,-1.5153255844779778e-05,5.078213143860921e-05
-2.115153256454505e-05,2.686194966372568e-05,1.4847614693280775e-05,-1.4580926290364005e-05,5.508399408427067e-05
-1.5045837244542781e-05,3.1409290386363864e-05,1.1932705092476681e-05,-1.6641777619952336e-05,5.986785618006252e-05
-1.0264834600093309e-05,3.643439777079038e-05,7.18262617738219e-06,-1.8227578038931824e-05,5.97412908973638e-05
-1.3252026292320807e-05,3.677941640489735e-05,1.7241325167560717e-06,-1.939703906828072e-05,5.533767762244679e-05
-1.7330194168607704e-05,3.568294414435513e-05,-5.567504217651731e-07,-1.9772571249632165e-05,5.3856656450079754e-05
-1.89732472790638e-05,3.443677633185871e-05,5.074203386357112e-07,-1.7044696505763568e-05,5.422312460723333e-05
-1.8387720047030598e-05,3.1300085538532585e-05,1.5634866485925158e-06,-1.353972311335383e-05,5.2647046686615795e-05
-1.7154448869405314e-05,2.6622607038007118e-05,6.541507104884658e-07,-1.209993388329167e-05,5.057016096543521e-05
-1.850600710895378e-05,2.1376061340561137e-05,2.3449335913028335e-06,-1.1985433957306668e-05,5.072818021290004e-05
-2.3426970074069686e-05,1.796935248421505e-05,6.2822959989716765e-06,-1.4507353625958785e-05,4.964061008649878e-05
-2.6044501282740384e-05,1.7738779206410982e-05,6.751713044650387e-06,-2.1321764506865293e-05,4.71386629214976e-05
-2.6822113795788027e-05,1.8371532860328443e-05,2.1769380964542506e-06,-2.782946830848232e-05,4.5823158870916814e-05
-2.4913091692724265e-05,1.7414038666174747e-05,-1.4452300547418417e-06,-2.8626494895434007e-05,4.870965130976401e-05
-1.9353197785676457e-05,1.933559360622894e-05,-4.6005808940208226e-07,-2.5934343284461647e-05,5.322258948581293e-05
-1.583030643814709e-05,2.2387850549421273e-05,5.698589120584074e-06,-2.2649464881396852e-05,5.4138658015290275e-05
-1.9463552234810777e-05,2.3733813577564433e-05,8.678037374920677e-06,-1.7436665075365454e-05,5.56864652025979e-05
-2.8184018447063863e-05,2.6680983864935115e-05,7.048809948173584e-06,-1.3525352187571116e-05,5.8319794334238395e-05
-3.239982106606476e-05,3.016338450834155e-05,4.43477938461001e-06,-1.2614713341463357e-05,6.026293340255506e-05
-3.067078796448186e-05,2.909651811933145e-05,2.5516681034787325e-06,-1.4678179468319286e-05,5.973510997137055e-05
-3.0079887437750585e-05,2.4856990421540104e-05,6.980183115956606e-07,-1.5465853721252643e-05,5.8474310208112e-05
-3.290158565505408e-05,2.342182597203646e-05,-5.901988515688572e-06,-1.6065159798017703e-05,5.738186155213043e-05
-3.22892919939477e-05,2.4742445020820014e-05,-1.5962132238200866e-05,-1.6598112779320218e-05,5.712334314011969e-05
-2.8146097974968143e-05,2.347585541428998e-05,-2.6128413082915358e-05,-1.418957890564343e-05,6.104796193540096e-05
-2.5461611585342325e-05,2.0529092580545694e-05,-2.767169280559756e-05,-1.040440474753268e-05,6.360179395414889e-05
-2.4012122594285756e-05,2.0417934138095006e-05,-2.1570242097368464e-05,-6.861131623736583e-06,6.345314614009112e-05
-2.5703937353682704e-05,2.555140235926956e-05,-1.1276297300355509e-05,-5.008101197745418e-06,6.0429076256696135e-05
-2.9781245757476427e-05,3.1726216548122466e-05,-9.695007747723139e-07,-6.3494567257293966e-06,6.003006637911312e-05
-3.3691569115035236e-05,3.226053013349883e-05,7.523655767727178e-06,-9.773915735422634e-06,6.0542533901752904e-05
-3.4800032153725624e-05,2.938655234174803e-05,1.4624424693465699e-05,-9.809093171497807e-06,6.106794171500951e-05
-3.4516040614107624e-05,2.6885585612035356e-05,2.0664510884671472e-05,-9.027486157719977e-06,6.0205627960385755e-05
-3.4273587516508996e-05,2.5175802875310183e-05,2.5259989342885092e-05,-1.1685732715704944e-05,5.765247260569595e-05
-3.350487895659171e-05,2.4141407266142778e-05,2.658588346093893e-05,-1.551252898934763e-05,5.6585518905194476e-05
-3.406939868000336e-05,2.2696076484862715e-05,2.7321975721861236e-05,-1.6882737327250652e-05,5.663594856741838e-05
-3.30501607095357e-05,2.060759288724512e-05,2.7616366423899308e-05,-1.867803803179413e-05,5.79870720684994e-05
-2.848615804396104e-05,2.0813455194002017e-05,2.560265602369327e-05,-2.1621506675728597e-05,6.161784403957427e-05
-2.4582386686233804e-05,2.4623981516924687e-05,2.1010708223911934e-05,-2.3298594896914437e-05,6.51595983072184e-05
-2.244231291115284e-05,2.826842865033541e-05,1.6333391613443382e-05,-2.247868906124495e-05,6.357000529533252e-05
-2.129795575456228e-05,2.771995605144184e-05,1.4334485967992805e-05,-2.0325847799540497e-05,6.109147216193378e-05
-2.2376878405339085e-05,2.665672218427062e-05,1.6545765902264975e-05,-1.8566603102954105e-05,6.150612898636609e-05
-2.238001070509199e-05,3.153810393996537e-05,2.0474044504226185e-05,-1.6286459867842495e-05,6.37856574030593e-05
-2.3646371118957177e-05,3.5029406717512757e-05,2.4236569515778683e-05,-1.3194559869589284e-05,6.117879820521921e-05
-2.8985248718527146e-05,2.951420538011007e-05,2.6925081328954548e-05,-1.4875374290568288e-05,5.666852666763589e-05
-3.432245284784585e-05,2.4298442440340295e-05,2.6264600819558837e-05,-2.3102697014110163e-05,5.931821942795068e-05
-3.700649904203601e-05,3.1251689506461844e-05,1.7761569324648008e-05,-2.307400427525863e-05,6.240666698431596e-05
-3.658287096186541e-05,4.540204463410191e-05,8.228502338170074e-06,-1.4798399206483737e-05,5.991691432427615e-05
-3.7840822187718004e-05,5.251658149063587e-05,6.744314759998815e-06,-9.408319783688057e-06,5.8505040215095505e-05
-3.996741725131869e-05,5.123072332935408e-05,8.768705811235122e-06,-6.909235708008055e-06,5.888480882276781e-05
-3.85741914215032e-05,4.468342012842186e-05,8.091970812529325e-06,-6.3154475355986506e-06,5.966129174339585e-05
-4.031842763652094e-05,3.7838093703612685e-05,5.410319317888934e-06,-6.170233064040076e-06,5.878226875211112e-05
-4.018389154225588e-05,2.727232094912324e-05,2.0998390937165823e-06,-6.254547315620584e-06,5.969787889625877e-05
-3.4572465665405616e-05,1.7441720046917908e-05,7.311887770811154e-07,-3.9428814488928765e-06,6.130897236289456e-05
-3.141315028187819e-05,1.969816912605893e-05,1.5442999767856236e-07,-1.6353067167074187e-06,6.293202750384808e-05
-3.3438132959418e-05,2.780874456220772e-05,-2.415323706372874e-06,4.2916209253007764e-08,6.165273225633428e-05
-3.531149195623584e-05,3.389435732970014e-05,-4.541485395748168e-06,2.116845507771359e-06,6.014915925334208e-05
-3.2157378882402554e-05,3.56866730726324e-05,-4.737071321869735e-06,3.6020242077938747e-06,6.197743641678244e-05
-2.5776427719392814e-05,3.581780401873402e-05,-3.4427114314894425e-06,5.3207509154162835e-06,6.453519745264202e-05
-2.2102845832705498e-05,3.582622230169363e-05,-1.5636321677447995e-06,6.719192697346443e-06,6.594329897779971e-05
-2.4011675122892484e-05,3.639719579950906e-05,-2.3655311451875605e-06,6.291122645052383e-06,6.51294831186533e-05
-2.653868250490632e-05,3.587347237044014e-05,-8.50792093842756e-06,3.922506039089058e-06,6.383085565175861e-05
-2.5337782062706538e-05,3.316873335279524e-05,-1.3794513506582007e-05,3.9012138586258516e-06,6.199920608196408e-05
-2.054536707873922e-05,2.926217348431237e-05,-1.242288726643892e-05,5.268477252684534e-06,6.355035293381661e-05
-1.769578011590056e-05,2.6866142434300855e-05,-7.929156708996743e-06,4.122351128899027e-06,6.65246116113849e-05
-2.0002176825073548e-05,2.637522447912488e-05,-4.8198176045843866e-06,1.4910415302438196e-06,6.669296999461949e-05
-2.2002610421623103e-05,2.8340495191514492e-05,8.039838803597377e-07,6.525484650410363e-07,6.30770082352683e-05
-2.0416646293597296e-05,3.1382143788505346e-05,8.269450518127996e-06,1.1400264554595196e-07,6.019424836267717e-05
-1.8059396097669378e-05,3.084171476075426e-05,1.3828946066496428e-05,-6.602938356081722e-07,5.78862673137337e-05
-1.583187076903414e-05,2.6963132768287323e-05,1.8294096662430093e-05,5.106452931613603e-07,5.349364073481411e-05
-1.5940740922815166e-05,2.1913432647124864e-05,2.0166429749224335e-05,2.164838406315539e-06,5.007382060284726e-05
-1.876151691249106e-05,2.174600012949668e-05,1.91863946383819e-05,2.8279939670028398e-06,5.059552131569944e-05
-2.4041752112680115e-05,2.450918691465631e-05,1.736653211992234e-05,7.19791341907694e-06,5.651489846059121e-05
-2.7117543140775524e-05,2.3957780285854824e-05,1.5808158423169516e-05,1.0384570487076417e-05,6.0091646446380764e-05
-2.7684895030688494e-05,2.1620700863422826e-05,1.3138569556758739e-05,6.068741186027182e-06,5.886063809157349e-05
-2.618007783894427e-05,2.325034438399598e-05,9.001691978482995e-06,-1.5667110346839763e-06,5.803011663374491e-05
-2.2515599994221702e-05,2.8276546800043434e-05,5.131551006343216e-06,-4.352927135187201e-06,5.8055029512615874e-05
-2.247362681373488e-05,3.0202392736100592e-05,-3.2757429835328367e-06,-2.3004433842288563e-06,5.91147763771005e-05
-2.4059811039478518e-05,3.080681563005783e-05,-1.3694395420316141e-05,8.091573704405164e-07,5.8238572819391266e-05
-2.5578017812222242e-05,3.2376887247664854e-05,-1.915805296448525e-05,3.1007797929305525e-07,5.881555625819601e-05
-2.4650011255289428e-05,3.4556556784082204e-05,-1.789948873920366e-05,-4.578434072755044e-06,6.045271584298462e-05
-2.101778045471292e-05,3.7170189898461103e-05,-1.1702974006766453e-05,-7.860833648010157e-06,6.483433389803395e-05
-2.0390811187098734e-05,3.652925443020649e-05,-4.280300345271826e-06,-1.063800482370425e-05,6.666206172667444e-05
-2.355977994739078e-05,3.1355051760328934e-05,7.65059667173773e-07,-1.3411970940069295e-05,6.486427446361631e-05
-2.7482019504532218e-05,2.4899527488742024e-05,3.4465069802536163e-06,-1.7413472960470244e-05,6.349775503622368e-05
-3.0828919989289716e-05,1.8239032215205953e-05,6.07315178058343e-06,-2.0215829863445833e-05,6.367072637658566e-05
-3.2885051041375846e-05,1.7508888049633242e-05,9.604137630958576e-06,-2.041859261225909e-05,6.310047319857404e-05
-3.189436756656505e-05,2.413848960713949e-05,1.2396696547511965e-05,-2.1598139937850647e-05,6.239517097128555e-05
-3.073098559980281e-05,3.0200240871636197e-05,1.1034275303245522e-05,-2.589347423054278e-05,6.540850881719962e-05
-3.0936691473471e-05,3.131154880975373e-05,6.611188837268855e-06,-2.8942115022800863e-05,6.62733509670943e-05
-2.9067628929624334e-05,3.20853287121281e-05,-5.5420377975679e-07,-2.883095839933958e-05,6.255439075175673e-05
-2.5904266294674017e-05,3.65222804248333e-05,-1.090621663024649e-05,-2.7936815968132578e-05,6.01992906013038e-05
-2.2908079699845985e-05,4.4113599869888276e-05,-2.0292241970309988e-05,-2.84640791505808e-05,6.422140722861513e-05
-1.8501719750929624e-05,5.0399852625560015e-05,-2.1737663701060228e-05,-3.052877218578942e-05,6.618802581215277e-05
-1.48754825204378e-05,4.431801426107995e-05,-1.722565502859652e-05,-2.9247490601846948e-05,6.376806413754821e-05
-1.6233585483860224e-05,2.0925972421537153e-05,-1.2007239092781674e-05,-2.3984057406778447e-05,6.190485146362334e-05
-1.9309096387587488e-05,-8.899215572455432e-06,-6.7175978983868845e-06,-1.782874642231036e-05,6.372405186994001e-05
-1.9114215319859795e-05,-2.2078036636230536e-05,-3.27698153057554e-08,-1.3832378499500919e-05,6.703425606247038e-05
-2.0709578166133724e-05,-8.812879059405532e-06,7.20033995094127e-06,-1.3074602975393645e-05,6.691738963127136e-05
-2.2673144485452212e-05,1.4883616131555755e-05,1.4482327969744802e-05,-1.0815964742505457e-05,6.350452167680487e-05
-2.2062400603317656e-05,2.6080040697706863e-05,1.8953984181280248e-05,-6.1838172769057564e-06,5.9245136071695015e-05
-1.9852403056574985e-05,2.466485238983296e-05,2.0473469703574665e-05,-6.540647518704645e-06,5.0984410336241126e-05
-2.2581609300686978e-05,2.3156886527431197e-05,2.2250231268117204e-05,-8.909306416171603e-06,4.4360822357703e-05
-2.910990770033095e-05,2.7191230401513167e-05,2.129376844095532e-05,-1.1426317541918252e-05,4.409987377584912e-05
-2.877090264519211e-05,3.239524085074663e-05,1.4799391465203371e-05,-1.463356147723971e-05,4.537112181424163e-05
-2.7668515031109564e-05,3.23011408909224e-05,4.803782303497428e-06,-1.4355799066834152e-05,4.539061410469003e-05
-2.71024491667049e-05,2.605226654850412e-05,-1.3753573284702725e-06,-1.175257875729585e-05,4.812743281945586e-05
-2.340758146601729e-05,2.0849451175308786e-05,-2.4596798198217584e-07,-7.6006863309885375e-06,5.248151865089312e-05
-1.97457593458239e-05,2.105561907228548e-05,3.6062695016880753e-06,-5.799686277896399e-06,5.71772652619984e-05
-2.3089211026672274e-05,2.4334583940799348e-05,4.309348696551751e-06,-5.931286068516783e-06,5.970599522697739e-05
-2.8933995054103434e-05,2.7835852961288765e-05,1.2762799315169104e-06,-6.002963345963508e-06,5.9007339586969465e-05
-3.2090392778627574e-05,2.959821722470224e-05,-1.8358605302637443e-06,-6.564580417034449e-06,5.636295099975541e-05
-3.0286882974905893e-05,3.358825415489264e-05,-1.4812591189183877e-06,-7.900962373241782e-06,5.327416511136107e-05
-2.6208022973150946e-05,3.7035042623756453e-05,8.073511708062142e-07,-8.542730029148515e-06,5.198018698138185e-05
-2.3918850274640135e-05,3.6369234294397756e-05,1.996965011130669e-06,-7.836876648070756e-06,5.327527105691843e-05
-2.5961388018913567e-05,3.4756736567942426e-05,3.4373656490060966e-06,-8.647650247439742e-06,5.755102029070258e-05
-3.104516872554086e-05,3.343956632306799e-05,5.558344582823338e-06,-9.559819773130585e-06,6.0499340179376304e-05
-3.203569576726295e-05,3.1675666832597926e-05,3.313076604172238e-06,-8.041840374062303e-06,6.148245302028954e-05
-2.8555074095493183e-05,2.936666351160966e-05,-2.4078185560938437e-06,-4.404927494761068e-06,6.246664270292968e-05
-2.5048131647054106e-05,2.3933629563543946e-05,-4.634357537725009e-06,-4.600091415341012e-06,6.382170977303758e-05
-2.4126627977238968e-05,1.3039684745308477e-05,-2.062696466964553e-06,-8.661044375912752e-06,6.274340557865798e-05
-2.6013831302407198e-05,4.789289960172027e-06,7.657288279006025e-07,-1.0951188414765056e-05,6.240362563403323e-05
-2.9122220439603552e-05,6.590730208699824e-06,1.5878316617090604e-06,-1.0147145985683892e-05,6.39390418655239e-05
-2.8406728233676404e-05,1.279239404539112e-05,3.6170017665426712e-06,-7.743587957520504e-06,6.42106169834733e-05
-2.6659485229174607e-05,1.807433000067249e-05,5.09777282786672e-06,-5.522468654817203e-06,6.330518226604909e-05
-2.577471241238527e-05,2.4731201847316697e-05,5.606075774267083e-06,-2.431738948871498e-06,6.231969746295363e-05
-2.7061305445386097e-05,3.2774521969258785e-05,5.21818174092914e-06,-3.6720134630741086e-06,6.221023795660585e-05
-3.0620209145126864e-05,4.027053000754677e-05,4.328356681071455e-06,-6.050360752851702e-06,6.235401815501973e-05
-3.423825546633452e-05,4.424455983098596e-05,5.480415438796626e-06,-3.7836723549844464e-06,6.350674811983481e-05
-3.6664048820966855e-05,4.2884839785983786e-05,8.35470655147219e-06,-9.402525620316737e-07,6.447914347518235e-05
-3.6489935155259445e-05,4.332537355367094e-05,1.076082480722107e-05,-6.056118877495464e-07,6.382678839145228e-05
-3.40049882652238e-05,4.56450434285216e-05,1.0586953067104332e-05,-5.491800038726069e-06,6.364608270814642e-05
-3.473713877610862e-05,4.5058644900564104e-05,9.926885468303226e-06,-9.468413736613002e-06,6.130028486950323e-05
-3.447327617323026e-05,4.052103395224549e-05,9.72399993770523e-06,-1.0059095984615851e-05,5.867269646842033e-05
-3.1333584047388285e-05,3.6010529584018514e-05,1.014560621115379e-05,-7.798510523571167e-06,5.7014505728147924e-05
-3.0220291591831483e-05,3.66627391485963e-05,1.1582233128137887e-05,-7.0770752245152835e-06,5.737824540119618e-05
-3.384626324987039e-05,3.640877912403084e-05,1.4270620340539608e-05,-8.500464900862426e-06,5.8247092965757474e-05
-3.7900950701441616e-05,3.065371129196137e-05,1.5995285139069892e-05,-9.76743012870429e-06,5.897638766327873e-05
-3.8863669033162296e-05,2.4193575882236473e-05,1.4003005162521731e-05,-9.257915735361166e-06,5.8079782320419326e-05
-3.7676014471799135e-05,2.0626870536943898e-05,7.149792509153485e-06,-1.092896764021134e-05,5.873518966836855e-05
-3.365428710822016e-05,2.2428725060308352e-05,4.2231584984619985e-07,-1.599791539774742e-05,6.016583938617259e-05
-3.0175313440850005e-05,2.7403382773627527e-05,7.734806786174886e-07,-1.8370610632700846e-05,5.908862658543512e-05
-3.122182170045562e-05,3.110928810201585e-05,4.396654730953742e-06,-1.7278669474762864e-05,5.816551129100844e-05
-3.553895658114925e-05,2.920400038419757e-05,6.056290658307262e-06,-1.6848875020514242e-05,5.7339511840837076e-05
-3.511068280204199e-05,2.4033750378293917e-05,5.171233624423621e-06,-1.9137954950565472e-05,5.530014823307283e-05
-2.9266886485856958e-05,2.391643101873342e-05,3.0257274374889676e-06,-2.106806823576335e-05,5.3046973334858194e-05
-2.216883331129793e-05,2.9796030503348447e-05,2.1724181351601146e-06,-1.996365244849585e-05,5.486581358127296e-05
-1.9531982616172172e-05,3.407551412237808e-05,2.2516546778206248e-06,-1.5792926205904223e-05,5.820533260703087e-05
-1.9605300622060895e-05,3.4476146538509056e-05,3.230151151001337e-06,-1.4995447600085754e-05,6.014639438944869e-05
-1.6304400560329668e-05,3.500917591736652e-05,6.583843060070649e-06,-1.4462769286183175e-05,6.0245380154810846e-05
-1.0731386282714084e-05,3.7025307392468676e-05,5.46678711543791e-06,-1.1785514288931154e-05,6.1616679886356e-05
-9.95147001958685e-06,3.8763333577662706e-05,-6.824135425631539e-07,-9.359770956507418e-06,6.126921653049067e-05
-1.6408208466600627e-05,3.8472277083201334e-05,-2.8412362098606536e-06,-8.187705134332646e-06,5.721222987631336e-05
-2.3472082830267027e-05,3.8427944673458114e-05,2.323951548532932e-06,-7.083422133291606e-06,5.0865477533079684e-05
-2.8566444598254748e-05,3.261023448430933e-05,5.828187568113208e-06,-5.3610524446412455e-06,5.0476697651902214e-05
-3.167854083585553e-05,2.664916610228829e-05,5.507413789018756e-06,-4.037897724629147e-06,5.38544736627955e-05
-2.9324375645956025e-05,3.0013736250111833e-05,7.403193649224704e-06,-4.0895324673329014e-06,5.3232004574965686e-05
-2.4074741304502822e-05,3.682202805066481e-05,9.730852980283089e-06,-4.716458533948753e-06,5.273642091196962e-05
-2.0503095583990216e-05,3.7297053495422006e-05,9.175530976790469e-06,-7.490049483749317e-06,5.600901204161346e-05
-2.155465517716948e-05,3.138475585728884e-05,3.1936845061864005e-06,-1.1229327355977148e-05,5.838739525643177e-05
-2.6736488507594913e-05,2.7286998374620453e-05,-3.0567500743927667e-06,-1.1258773156441748e-05,5.800701183034107e-05
-2.883601700887084e-05,2.4534909243811853e-05,-4.747323146148119e-06,-8.798831913736649e-06,5.8209789131069556e-05
-2.5318369807791896e-05,2.1270430806907825e-05,-4.246754997438984e-06,-9.828051588556264e-06,5.778222839580849e-05
-2.5277551685576327e-05,1.728332063066773e-05,-3.909578936145408e-06,-1.295903348363936e-05,5.780380161013454e-05
-2.9036602427368052e-05,1.4963893590902444e-05,-3.7857566326238157e-07,-1.6653071725158952e-05,5.871866596862674e-05
-2.824112743837759e-05,1.8434493540553376e-05,4.282842382963281e-06,-1.9664119463413954e-05,6.108253001002595e-05
-2.4107257559080608e-05,2.395030423940625e-05,7.707766599196475e-06,-1.9374963812879287e-05,6.316274084383622e-05
-2.152794877474662e-05,2.7891983336303383e-05,9.954830602509901e-06,-1.7235706764040515e-05,6.356314406730235e-05
-2.1300429580151103e-05,2.9743989216513e-05,1.0709353773563635e-05,-1.548534601170104e-05,6.293748447205871e-05
-2.1105033738422208e-05,3.233117240597494e-05,9.844330634223297e-06,-1.5631736459909007e-05,6.247786222957075e-05
-1.979345688596368e-05,3.441504668444395e-05,6.516637768072542e-06,-1.6769772628322244e-05,6.196942558744922e-05
-1.7705451682559215e-05,3.314260902698152e-05,2.446231974317925e-06,-1.8210141206509434e-05,6.222756928764284e-05
-1.657855318626389e-05,2.938612124125939e-05,-1.9610438073414116e-07,-1.936462285812013e-05,6.123047205619514e-05
-1.843790232669562e-05,2.6046762286568992e-05,-1.5224745766317938e-06,-2.0191149815218523e-05,5.981759386486374e-05
-2.524951742088888e-05,2.5446228391956538e-05,-1.5613508139722398e-06,-1.935030013555661e-05,6.0323389334371313e-05
-3.0782462999923155e-05,2.6808866095962003e-05,3.62005010856592e-07,-1.9145678379572928e-05,5.893763227504678e-05
-2.9586135497083887e-05,2.9586542950710282e-05,4.07342395192245e-06,-1.619411341380328e-05,5.499401595443487e-05
-2.980929821205791e-05,3.300853131804615e-05,7.597634976264089e-06,-1.109402182919439e-05,5.4969445045571774e-05
-3.244234176236205e-05,3.447021299507469e-05,6.664331522188149e-06,-8.942268323153257e-06,5.663048432325013e-05
-3.142083005513996e-05,3.497756188153289e-05,3.947156983485911e-06,-6.6773886828741524e-06,5.496137964655645e-05
-3.0472638172795996e-05,3.490636663627811e-05,2.904671646319912e-06,-8.41720884636743e-06,5.770581992692314e-05
-2.7848933314089663e-05,3.291562097729184e-05,3.668704948722734e-06,-1.182487903861329e-05,6.227291305549443e-05
-2.3833561499486677e-05,3.1878476875135675e-05,3.6939443361916346e-06,-8.667054316902068e-06,6.408229091903195e-05
-2.5268882382079028e-05,3.266174826421775e-05,3.430541028137668e-06,-4.231578259350499e-06,5.870328823220916e-05
-2.7307656637276523e-05,3.4015840356005356e-05,4.5607175707118586e-06,-2.8934923648193944e-06,5.180101652513258e-05
-2.4892180590541102e-05,2.6939660529023968e-05,9.863657396635972e-06,-3.1714043871033937e-06,5.350006904336624e-05
-2.1384601495810784e-05,1.913346568471752e-05,1.5695099136792123e-05,-2.9034160888841143e-06,5.9917350881733e-05
-1.9169057850376703e-05,1.5180280570348259e-05,1.629070538911037e-05,-3.1103293167689117e-06,6.36158074485138e-05
-1.8386263036518358e-05,1.310305560764391e-05,1.4077179912419524e-05,-2.149557985831052e-06,6.078744263504632e-05
-1.9673107090056874e-05,1.5005255590949673e-05,1.4189451576385181e-05,-7.042867764539551e-07,5.688039163942449e-05
-1.941312257258687e-05,1.9307100956211798e-05,1.739114486554172e-05,-1.7783069097276893e-06,5.627996870316565e-05
-1.7034291886375286e-05,2.252112972200848e-05,1.8449112758389674e-05,-6.000047960696975e-06,5.777547266916372e-05
-1.5321600585593842e-05,2.1697345800930634e-05,1.4911077414581086e-05,-8.400248589168768e-06,6.082361869630404e-05
-1.4894182641000953e-05,2.365314503549598e-05,9.645411410019733e-06,-6.58656745144981e-06,6.402624421752989e-05
-1.6510133718838915e-05,2.9154551157262176e-05,7.787357390043326e-06,-3.3115347832790576e-06,6.31551883998327e-05
-1.83903885044856e-05,3.514803756843321e-05,1.0572474820946809e-05,-1.534295506644412e-06,6.11736613791436e-05
-1.7358353943563998e-05,3.826459578704089e-05,1.6035895896493457e-05,-3.1321380902227247e-06,6.242845847737044e-05
-1.4957151506678201e-05,3.7627767596859485e-05,2.082528590108268e-05,-8.496673217450734e-06,6.37398479739204e-05
-1.527311178506352e-05,3.380423368071206e-05,2.0420933651621453e-05,-1.4392017874342855e-05,6.382424908224493e-05
-1.84986802196363e-05,2.8902324629598297e-05,1.5720133887953125e-05,-1.5898447600193322e-05,6.365973240463063e-05
-2.2869142412673682e-05,2.3446582417818718e-05,1.50262503666454e-05,-1.4163453670335002e-05,6.446931365644559e-05
-2.635377495607827e-05,1.5767256627441384e-05,1.7922820916282944e-05,-1.2288161087781191e-05,6.78201176924631e-05
-2.774157292151358e-05,9.41079906624509e-06,1.8756623830995522e-05,-1.1763760085159447e-05,7.007418025750667e-05
-2.6758316380437464e-05,1.1992413419648074e-05,1.6884499927982688e-05,-1.15107295641792e-05,6.997910531936213e-05
-2.3329092073254287e-05,1.9918214093195274e-05,1.5341352991526946e-05,-1.205799708259292e-05,6.842522998340428e-05
-2.1247695258352906e-05,2.5605935661587864e-05,1.2196226634841878e-05,-9.573858733347151e-06,6.929007940925658e-05
-2.3556751330033876e-05,2.6997468012268655e-05,6.382261744874995e-06,-5.825431344419485e-06,7.090714643709362e-05
-2.8093574655940756e-05,2.414720074739307e-05,2.5885801733238623e-06,-3.302943468952435e-06,6.847286567790434e-05
-3.498903606669046e-05,2.523214243410621e-05,2.1526177533814916e-06,-2.7878550099558197e-06,6.399852281901985e-05
-3.883450699504465e-05,3.267190550104715e-05,3.307743554614717e-06,-7.997511602297891e-06,6.261918315431103e-05
-3.498149089864455e-05,3.615495006670244e-05,4.6091581680229865e-06,-1.1573058145586401e-05,6.448726344387978e-05
-3.2814052246976644e-05,3.240877413190901e-05,6.18161311649601e-06,-1.1111584171885625e-05,6.433795351767913e-05
-3.4752298233797774e-05,2.3936374418553896e-05,1.2104095503673307e-06,-1.3020589904044755e-05,6.0285561630735174e-05
-3.3678847103146836e-05,1.9292498109280132e-05,-8.237993824877776e-06,-1.635667467780877e-05,5.575205432251096e-05
-3.126201045233756e-05,2.412116009509191e-05,-1.2963759218109772e-05,-1.9063998479396105e-05,5.366233017412014e-05
-3.3379568776581436e-05,2.8477490559453145e-05,-1.1130558050354011e-05,-2.0640438378904946e-05,5.315161251928657e-05
-3.9466729504056275e-05,2.9170205380069092e-05,-6.530649898195406e-06,-2.233294799225405e-05,5.441871689981781e-05
-4.2553576349746436e-05,2.938374200311955e-05,-4.523024472291581e-06,-2.4287319320137613e-05,5.558735938393511e-05
-4.1554583731340244e-05,2.924006366811227e-05,-3.6690037177322665e-06,-2.4850136469467543e-05,5.5917389545356855e-05
-3.95269671571441e-05,2.657068762346171e-05,-1.9010940377484076e-06,-2.3850245270296e-05,5.554649396799505e-05
-3.615292007452808e-05,2.467454396537505e-05,3.7962260535095993e-07,-2.3467528080800548e-05,5.599462747341022e-05
-3.3489061024738476e-05,2.6901503588305786e-05,2.208449132012902e-06,-2.382764796493575e-05,5.617070564767346e-05
-3.459083382040262e-05,3.146234303130768e-05,8.520023015989864e-07,-2.281701199535746e-05,5.5669646826572716e-05
-3.7224726838758215e-05,3.396452666493133e-05,-3.825319254247006e-06,-1.9112905647489242e-05,5.6612941989442334e-05
-3.7091744161443785e-05,3.468884460744448e-05,-6.37304083284107e-06,-1.4940752407710534e-05,5.781094660051167e-05
-3.4790711652021855e-05,3.730526805156842e-05,-6.000249868520768e-06,-1.401619374519214e-05,5.752101424150169e-05
-3.264964107074775e-05,3.788518370129168e-05,-3.9148640098574106e-06,-1.4762711543880869e-05,5.5812975915614516e-05
-3.17735321004875e-05,3.2742074836278334e-05,3.100167020875233e-07,-1.653894651099108e-05,5.428523581940681e-05
-3.450254735071212e-05,2.458230301272124e-05,4.876153525401605e-06,-1.7161863070214167e-05,5.245897773420438e-05
-3.731233300641179e-05,1.9492212231853046e-05,1.1190792065463029e-05,-1.3986812518851366e-05,5.048297316534445e-05
-3.553893475327641e-05,1.9775679902522825e-05,1.9134098693029955e-05,-1.1831444680865388e-05,4.93308762088418e-05
-3.3935357350856066e-05,2.4684446543687955e-05,2.610374394862447e-05,-1.2324955605436116e-05,5.0427199312252924e-05
-3.4138531191274524e-05,3.167082104482688e-05,2.8103555450798012e-05,-1.1940223885176238e-05,5.090984996058978e-05
-3.7446450733114034e-05,3.489525988698006e-05,2.6730949684861116e-05,-8.782310942478944e-06,5.051039988757111e-05
-3.863741221721284e-05,3.319761890452355e-05,2.609035982459318e-05,-5.186105681787012e-06,5.4855499911354855e-05
-3.408798511372879e-05,3.1546023819828406e-05,2.3996271920623258e-05,-5.462373792397557e-06,5.6404325732728466e-05
-3.117297092103399e-05,2.894523277063854e-05,2.0568209947668947e-05,-6.152414698590292e-06,5.3085037507116795e-05
-2.8540702260215767e-05,2.7567466531763785e-05,1.6406380382250063e-05,-6.184653557284037e-06,5.262882768874988e-05
-2.859902633645106e-05,3.033784196304623e-05,1.3716521607420873e-05,-6.0104666772531345e-06,5.766027243225835e-05
-3.069016747758724e-05,3.325891157146543e-05,1.1100657502538525e-05,-4.0797422684590856e-07,6.249551370274276e-05
-2.69493721134495e-05,3.4218461223645136e-05,8.509647159371525e-06,1.4271082591221784e-06,6.072785618016496e-05
-2.301379936398007e-05,3.2030588045017794e-05,4.681015070673311e-06,-4.639612143364502e-06,5.817372220917605e-05
-2.2410304154618643e-05,3.1204890547087416e-05,2.2030769741832046e-06,-9.534161108604167e-06,5.8574678405420855e-05
-2.437405419186689e-05,3.1824249163037166e-05,2.351743887629709e-06,-1.2732898539979942e-05,5.9917518228758126e-05
-2.7074831450590864e-05,3.2399679184891284e-05,1.8671265706871054e-06,-1.4114157238509506e-05,5.893859633943066e-05
-2.677096927072853e-05,3.395503881620243e-05,7.081122532781592e-08,-1.3776867490378208e-05,5.705446164938621e-05
-2.3647358830203302e-05,3.572208515834063e-05,-4.202405307296431e-06,-1.337752564722905e-05,5.7957320677815005e-05
-1.916906148835551e-05,3.5981545806862414e-05,-7.662007192266174e-06,-1.4832004126219545e-05,6.189740815898404e-05
-1.6707428585505113e-05,3.2235497201327235e-05,-7.19736453902442e-06,-1.59444007294951e-05,6.312110053841025e-05
-1.7553005818626843e-05,2.6419271307531744e-05,-2.7213272915105335e-06,-1.4783943697693758e-05,6.105549982748926e-05
-1.9895838704542257e-05,2.5268143872381188e-05,-4.4720661662722705e-07,-1.3026668057136703e-05,5.848382716067135e-05
-1.9848324882332236e-05,2.811825652315747e-05,-1.5286228745026165e-06,-1.3675805348611902e-05,5.4894091590540484e-05
-1.697662446531467e-05,2.976737596327439e-05,-2.643147809067159e-06,-1.567736399010755e-05,5.175028491066769e-05
-1.390800935041625e-05,3.089412712142803e-05,-7.324887860704621e-07,-1.500823964306619e-05,5.1266088121337816e-05
-1.3144470358383842e-05,3.3503572922199965e-05,2.1545110939769074e-06,-1.302344480791362e-05,5.3283678425941616e-05
-1.7449265214963816e-05,4.0525679651182145e-05,1.7462998584960587e-06,-1.4846460544504225e-05,5.412034806795418e-05
-2.4075792680378072e-05,4.6620531065855175e-05,-1.6794502926131827e-06,-1.7638803910813294e-05,5.214337579673156e-05
-2.7210877306060866e-05,4.564135451801121e-05,-2.6553450425126357e-06,-1.5196734238998033e-05,5.295385926729068e-05
-2.742897777352482e-05,4.148923108004965e-05,2.3062172260779334e-07,-1.1405584700696636e-05,5.708134995074943e-05
-2.3596492610522546e-05,4.318288483773358e-05,2.4068428956525167e-06,-1.2432507901394274e-05,5.627427890431136e-05
-1.7175534594571218e-05,4.527219061856158e-05,2.933224322987371e-06,-1.740266270644497e-05,5.432484977063723e-05
-1.4731195733475033e-05,3.785567605518736e-05,4.236319909978192e-06,-1.7547639799886383e-05,5.7873494370142e-05
-1.8672191799851134e-05,1.8988010197062977e-05,7.246033874253044e-06,-1.6209300156333484e-05,6.136007868917659e-05
-2.343307642149739e-05,-2.8360097985569155e-06,7.460518645530101e-06,-1.7999456758843735e-05,5.978891931590624e-05
-2.4367196601815522e-05,-9.616534953238443e-06,3.954391559091164e-06,-1.9653454728540964e-05,5.823083847644739e-05
-2.2101401555119082e-05,-9.054001992581107e-08,1.532021656203142e-06,-1.9590957890613936e-05,5.8581394114298746e-05
-1.8967011783388443e-05,1.07975702121621e-05,3.259337290728581e-06,-1.6333928215317428e-05,6.0426700656535104e-05
-2.03095878532622e-05,1.6549900465179235e-05,8.243046067946125e-06,-1.2895076906715985e-05,6.101088001742028e-05
-2.5103590814978816e-05,2.06844288186403e-05,9.407079232914839e-06,-8.626445378467906e-06,6.147598469397053e-05
-2.6390922357677482e-05,2.366448643442709e-05,7.315436050703283e-06,-6.5049916884163395e-06,6.269269943004474e-05
-2.4315657356055453e-05,2.4365930585190654e-05,4.854218332184246e-06,-8.775125024840236e-06,6.188757834024727e-05
-2.3968728783074766e-05,2.1560656023211777e-05,1.9569990854506614e-06,-1.3883045539841987e-05,5.931659325142391e-05
-2.3734841306577437e-05,2.114757262461353e-05,-3.189817334714462e-07,-1.827186679292936e-05,5.6419052270939574e-05
-2.4382788978982717e-05,2.6543726562522352e-05,-6.090357373977895e-07,-1.8119126252713613e-05,5.7882130931830034e-05
-2.346192741242703e-05,3.457595084910281e-05,1.062772483351182e-07,-1.4908908269717358e-05,6.153361755423248e-05
-2.130477332684677e-05,3.926309727830812e-05,1.57980508674882e-07,-9.625802704249509e-06,6.124703941168264e-05
-2.1246114556561224e-05,3.673019091365859e-05,2.060598262687563e-06,-4.438933046913007e-06,5.5735144997015595e-05
-2.3125407096813433e-05,3.145053415209986e-05,4.0613826968183275e-06,-1.7550703432789305e-06,5.201493331696838e-05
-2.514393418096006e-05,2.8952519642189145e-05,4.329523562773829e-06,-1.8156933947466314e-06,5.4194762924453244e-05
-2.6128980607609265e-05,2.988494270539377e-05,1.8986327177117346e-06,-2.773572532532853e-06,5.8108027587877586e-05
-2.6435342078912072e-05,3.081826071138494e-05,-4.873931516158336e-07,-4.344613898865646e-06,5.691870319424197e-05
-2.9383687433437444e-05,2.8441269023460336e-05,-8.433100902038859e-07,-8.327303476107772e-06,5.2132036216789857e-05
-3.431058212299831e-05,2.3984599465620704e-05,4.6352050731002237e-07,-1.4703203305543866e-05,5.003278420190327e-05
-3.639325586846098e-05,2.1122014004504308e-05,-1.653225126574398e-06,-1.9126604456687346e-05,5.24906390637625e-05
-3.603293589549139e-05,1.994739068322815e-05,-6.995448984525865e-06,-2.165943442378193e-05,5.557959229918197e-05
-3.296521754236892e-05,2.1603906134259887e-05,-9.147314813162666e-06,-2.1641137209371664e-05,5.68305367778521e-05
-2.8947060854989104e-05,2.6771664124680683e-05,-9.17063789529493e-06,-1.851609704317525e-05,5.9328522183932364e-05
-2.8440617825253867e-05,2.997523915837519e-05,-7.376022495009238e-06,-1.52593020175118e-05,6.0754660808015615e-05
-2.773515552689787e-05,2.8005466447211802e-05,-5.8788000387721695e-06,-1.3775527804682497e-05,6.106602086219937e-05
-2.5354032914037816e-05,2.7732603484764695e-05,-5.897446499147918e-06,-1.6520640201633796e-05,6.278351065702736e-05
-2.4901266442611814e-05,2.58549080172088e-05,-3.971550540882163e-06,-1.98956549866125e-05,6.67700805934146e-05
-2.3492515538237058e-05,2.1730971639044583e-05,-1.5521446812272188e-06,-1.8093394828611054e-05,6.801066047046334e-05
-2.531138488848228e-05,1.6944857634371147e-05,1.3505217566489591e-06,-1.2558949492813554e-05,6.711591413477436e-05
-2.620972372824326e-05,1.0558729627518915e-05,4.249486664775759e-06,-9.36091055336874e-06,6.585270602954552e-05
-2.429940468573477e-05,7.180763532232959e-06,7.370089406322222e-06,-1.1406996236473788e-05,6.309596210485324e-05
-2.087512802972924e-05,1.0968900824082084e-05,9.805888112168759e-06,-1.4675523743790109e-05,6.289556040428579e-05
-1.9098368284176104e-05,2.0090039470233023e-05,1.2005561984551605e-05,-1.3619124729302712e-05,6.110598042141646e-05
-2.0808436602237634e-05,2.889440474973526e-05,1.3997991118230857e-05,-9.391117600898724e-06,5.5954442359507084e-05
-2.4671076971571892e-05,3.625119643402286e-05,1.2909039469377603e-05,-7.194627869466785e-06,5.2940456953365356e-05
-2.9747501685051247e-05,4.0557308238931e-05,1.039809467329178e-05,-7.537633337051375e-06,5.3086700063431635e-05
-3.243956598453224e-05,4.4349682866595685e-05,8.055076250457205e-06,-6.513237622129964e-06,5.4950167395872995e-05
-3.1537030736217275e-05,4.740381700685248e-05,2.17678643821273e-06,-1.949273837453802e-06,5.899194366065785e-05
-2.7213145585847087e-05,4.910205825581215e-05,-1.1464500857982785e-05,1.099402766158164e-06,6.103163104853593e-05
-2.437682451272849e-05,4.586858267430216e-05,-2.4700811991351657e-05,3.443346656695212e-07,5.951384810032323e-05
-2.526185016904492e-05,3.643684249254875e-05,-2.700651384657249e-05,-1.7488545154265012e-06,5.8522527979221195e-05
-2.8974394808756188e-05,2.2343314412864856e-05,-1.9622315448941663e-05,-2.8085792109777685e-06,6.001229849061929e-05
-2.8816284611821175e-05,1.1204819202248473e-05,-1.2191978385089897e-05,-3.26840631714731e-06,6.260487862164155e-05
-2.2234287825995125e-05,1.0997578101523686e-05,-6.629603376495652e-06,-4.101305876247352e-06,6.342872075038031e-05
-1.548299223941285e-05,1.7474601918365806e-05,1.1342672223690897e-06,-4.939312930218875e-06,6.498699804069474e-05
-1.4228606232791208e-05,2.1744268451584503e-05,1.236569914908614e-05,-8.148748747771606e-06,6.711490277666599e-05
-1.723027708067093e-05,1.9970462744822726e-05,2.374024552409537e-05,-1.3865937944501638e-05,6.90017404849641e-05
-2.5074928998947144e-05,2.1032034055679105e-05,2.9480652301572263e-05,-1.6961230357992463e-05,7.451109559042379e-05
-3.3323918614769354e-05,3.0137387511786073e-05,3.1124745873967186e-05,-1.5569314200547524e-05,7.789535447955132e-05
-3.286734499852173e-05,3.708010262926109e-05,3.271910463809036e-05,-1.5613724826835096e-05,7.453921716660261e-05
-2.88265055132797e-05,3.702063622768037e-05,3.435145117691718e-05,-1.9346738554304466e-05,6.872264930279925e-05
-2.739996307354886e-05,3.47620589309372e-05,3.595763701014221e-05,-2.0199086065986194e-05,6.318218220258132e-05
-3.144894799333997e-05,3.496158024063334e-05,3.562165147741325e-05,-1.615641485841479e-05,5.911542757530697e-05
-3.5423418012214825e-05,3.9197824662551284e-05,3.4224391129100695e-05,-1.2144211723352782e-05,5.6717079132795334e-05
-3.2881234801607206e-05,3.870041837217286e-05,2.9430395443341695e-05,-6.7800806391460355e-06,5.477090962813236e-05
-3.3054850064218044e-05,3.409195414860733e-05,2.5571278456482105e-05,-3.86003584651462e-08,5.353889355319552e-05
-3.284215563326143e-05,3.2248794013867155e-05,2.5761819415492937e-05,1.5758481595185003e-06,5.268651511869393e-05
-2.9301245376700535e-05,3.0059925848036073e-05,2.51235887844814e-05,4.353244946742052e-07,5.071956547908485e-05
-2.408468753856141e-05,2.7999336452921852e-05,2.2490243281936273e-05,1.994621015910525e-06,5.1646038627950475e-05
-1.8734399418463e-05,2.857770050468389e-05,1.9138868083246052e-05,1.4279645483838976e-06,5.4726955568185076e-05
-1.6155956473085098e-05,3.0385017453227192e-05,1.4331992133520544e-05,1.793305273167789e-06,5.2818108088104054e-05
-1.6673817299306393e-05,3.235443000448868e-05,8.447820619039703e-06,5.28729196958011e-06,4.693339724326506e-05
-1.939366848091595e-05,3.578553150873631e-05,7.151258614612743e-06,9.154541658062954e-06,4.3597628973657265e-05
-2.3997949028853327e-05,4.0897997678257525e-05,6.228129223018186e-06,7.530543825851055e-06,4.523912866716273e-05
-2.6804857043316588e-05,4.314765828894451e-05,1.1884455375366088e-07,1.349894546365249e-06,5.061054616817273e-05
-2.391501584497746e-05,3.825986641459167e-05,-8.02089834905928e-06,-2.5408753572264686e-06,5.48098141734954e-05
-2.0448536815820262e-05,3.099629611824639e-05,-1.2382478416839149e-05,-2.2065025859774323e-06,5.2669623983092606e-05
-2.018822851823643e-05,3.0101193260634318e-05,-1.395185427099932e-05,1.6809694614039472e-07,4.775107663590461e-05
-2.3639311621082015e-05,3.2043382816482335e-05,-1.26387431009789e-05,2.415140215816791e-06,4.639968756237067e-05
-2.7633246645564213e-05,3.200902574462816e-05,-8.28056909085717e-06,5.6906583267846145e-06,4.8468900786247104e-05
-2.6655730835045688e-05,2.9623693990288302e-05,-2.3543254883406917e-06,1.0165173080167733e-05,5.085457814857364e-05
-1.8153528799302876e-05,2.5806653866311535e-05,1.961059751920402e-06,1.4314326108433306e-05,5.376319677452557e-05
-1.1558306141523644e-05,2.2580428776564077e-05,2.727679429881391e-06,1.3573962860391475e-05,5.6420925830025226e-05
-1.0925917194981594e-05,2.1892117729294114e-05,1.1386158860204887e-07,8.052753400988877e-06,5.771168798673898e-05
-1.1421127965149935e-05,2.095326635753736e-05,-2.6294665076420642e-06,-1.5217893860608456e-06,5.703177157556638e-05
-1.28212650452042e-05,1.841216544562485e-05,7.433698101522168e-08,-8.063054337981157e-06,5.716868690797128e-05
-1.620098737475928e-05,1.9438886738498695e-05,7.2163679760706145e-06,-6.522766398120439e-06,6.0737162129953504e-05
-1.5634024748578668e-05,2.32901111303363e-05,1.4092115634412039e-05,-3.2161553917831043e-06,6.358374957926571e-05
-1.2579931535583455e-05,2.517765278753359e-05,1.5025366337795276e-05,-5.254946245258907e-06,6.364737782860175e-05
-1.3947655133961234e-05,2.4621753254905343e-05,1.096312735171523e-05,-9.957198017218616e-06,6.107141962274909e-05
-1.636442721064668e-05,2.443513585603796e-05,9.559649697621353e-06,-1.1152887054777239e-05,5.9526388213271275e-05
-1.7147327525890432e-05,2.3286420400836505e-05,1.1210005141037982e-05,-9.941023563442286e-06,5.7645160268293694e-05
-2.0288176528993063e-05,2.409559783700388e-05,1.3115110050421208e-05,-9.710727681522258e-06,5.683393465005793e-05
-2.3686332497163676e-05,2.7744421458919533e-05,1.3497959116648417e-05,-1.0690154340409208e-05,5.8439993154024705e-05
-2.3681719540036283e-05,3.0322469683596864e-05,1.1089973668276798e-05,-1.4957941857574042e-05,6.026208939147182e-05
-2.090357338602189e-05,3.222937084501609e-05,9.987204066419508e-06,-2.196662717324216e-05,6.128659151727334e-05
-1.9727587641682476e-05,3.2107844162965193e-05,1.05092185549438e-05,-2.4675648091943003e-05,6.013126403558999e-05
-2.122293517459184e-05,3.285048296675086e-05,1.0775113878480624e-05,-1.7663567632553168e-05,6.059076986275613e-05
-2.414897971902974e-05,3.237008422729559e-05,7.6134951996209566e-06,-9.227725058735814e-06,6.090607348596677e-05
-2.6282785256626084e-05,3.0418879759963602e-05,4.1205853449355345e-06,-5.947762474534102e-06,5.990717181703076e-05
-2.5645267669460736e-05,2.9010328944423236e-05,2.8865592867077794e-06,-3.986873707617633e-06,5.811001028632745e-05
-2.460963514749892e-05,2.643293009896297e-05,2.8046692932548467e-06,-3.979868779424578e-06,5.960035196039826e-05
-2.3282571419258602e-05,2.5631306925788522e-05,3.7426279959618114e-06,-6.492268767033238e-06,6.288209260674194e-05
-2.3264006813406013e-05,2.666087675606832e-05,5.534437605092535e-06,-1.0762246347439941e-05,6.274996121646836e-05
-2.57454867096385e-05,2.7392134143156e-05,6.694147941743722e-06,-1.5141525182116311e-05,6.23466185061261e-05
-2.809957913996186e-05,2.988831329275854e-05,4.90808952235966e-06,-1.5421655916725285e-05,6.306221621343866e-05
-2.8289288820815273e-05,3.6499666748568416e-05,9.6137557648035e-07,-9.854714335233439e-06,6.386128370650113e-05
-2.7948161005042493e-05,3.928520527551882e-05,-3.4446745758032193e-06,-5.2274513109296095e-06,6.326280708890408e-05
-2.793793464661576e-05,3.5145243600709364e-05,-5.361072908272035e-06,-3.948866833525244e-06,5.9646390582202e-05
-2.9057442588964477e-05,3.1973831937648356e-05,-5.702815087715862e-06,-4.411697318573715e-06,5.48544958292041e-05
-3.103396011283621e-05,3.142394052702002e-05,-6.892149031045847e-06,-5.461478394863661e-06,5.430528472061269e-05
-3.0917559342924505e-05,2.5653875127318315e-05,-7.229250059026526e-06,-5.8141663430433255e-06,5.653356129187159e-05
-2.5706573069328442e-05,2.111063258780632e-05,-7.20021671440918e-06,-7.152193575166166e-06,5.6072149163810536e-05
-2.5021470719366334e-05,2.2811687813373283e-05,-6.878143722133245e-06,-8.97331028681947e-06,5.4473148338729516e-05
-2.9611628633574583e-05,3.150308839394711e-05,-1.9947617602156242e-06,-1.0149190529773477e-05,5.483465065481141e-05
-2.830824269040022e-05,4.004596848972142e-05,4.581665052683093e-06,-1.21036946438835e-05,5.254535062704235e-05
-2.5273053324781358e-05,3.628433114499785e-05,7.3565902312111575e-06,-1.5174967302300502e-05,5.24306196894031e-05
-2.4660053895786405e-05,3.2744650525273755e-05,6.528671292471699e-06,-1.2372616765787825e-05,5.936265006312169e-05
-2.5449258828302845e-05,3.3660398912616074e-05,6.831905920989811e-06,-7.830944923625793e-06,6.258080975385383e-05
-3.043730976060033e-05,3.395696694497019e-05,6.673721600236604e-06,-7.450039902323624e-06,6.02297113800887e-05
-3.551713234628551e-05,3.106317308265716e-05,3.417540256123175e-06,-7.098452897480456e-06,5.9464357036631554e-05
-3.641243893071078e-05,2.9157299650250934e-05,-4.7662627622457876e-08,-7.960968105180655e-06,6.149338878458366e-05
-3.556214505806565e-05,3.195132740074769e-05,-3.6352007555251475e-06,-1.356906614091713e-05,6.083739208406769e-05
-3.725762871908955e-05,3.2070238376036286e-05,-4.578153948386898e-06,-1.8027811165666208e-05,5.7137378462357447e-05
-4.0486975194653496e-05,2.9947335860924795e-05,-2.9062555313430494e-06,-1.5760660971864127e-05,5.606382546829991e-05
-4.249635094311088e-05,3.1226158171193674e-05,-3.5113582725898596e-06,-1.304027591686463e-05,5.865427010576241e-05
-4.3375344830565155e-05,3.4154516470152885e-05,-5.374272859626217e-06,-1.2874763342551887e-05,5.940353003097698e-05
-4.388367960928008e-05,3.426630064495839e-05,-5.770845746155828e-06,-1.638090907363221e-05,5.8086850913241506e-05
-4.380927202873863e-05,3.071948594879359e-05,-1.8853321535061696e-06,-1.83666888915468e-05,5.8468151109991595e-05
-4.177259688731283e-05,2.5471159460721537e-05,4.4477837946033105e-06,-1.526698179077357e-05,5.9298836276866496e-05
-4.0802089642966166e-05,2.1791402105009183e-05,8.130017704388592e-06,-1.1775972780014854e-05,5.931737905484624e-05
-4.055221506860107e-05,2.0121276975260116e-05,6.331979420792777e-06,-1.0680968443921302e-05,6.046376074664295e-05
-3.896130874636583e-05,1.834167596825864e-05,-8.818471428639896e-07,-1.0473499969521072e-05,6.211108120623976e-05
-3.55346746800933e-05,1.591151340107899e-05,-1.0340109838580247e-05,-1.0283183655701578e-05,6.369720358634368e-05
-3.380923953955062e-05,1.6683776266290806e-05,-1.724223511700984e-05,-8.206373422581237e-06,6.457878043875098e-05
-3.8535046769538894e-05,2.0533716451609507e-05,-1.994375816138927e-05,-5.542543021874735e-06,6.261582893785089e-05
-4.5133998355595395e-05,2.4183153072954156e-05,-1.885654819488991e-05,-5.230012448009802e-06,5.771446376456879e-05
-4.303887180867605e-05,2.5578794520697556e-05,-1.3351439520192798e-05,-5.324165158526739e-06,5.307148603606038e-05
-3.8079917430877686e-05,2.1269665012368932e-05,-6.218228918442037e-06,-4.204113793093711e-06,5.429866723716259e-05
-3.662093513412401e-05,1.8143067791243084e-05,2.5332644781883573e-06,-3.652388159025577e-06,5.7904082495952025e-05
-3.518356606946327e-05,2.567414594523143e-05,1.1434532098064665e-05,-7.940424438857008e-06,5.844139013788663e-05
-3.401262438273989e-05,3.660129368654452e-05,1.8787015505949967e-05,-1.2683679415204097e-05,5.672087354469113e-05
-3.2617783290334046e-05,4.5888002205174416e-05,2.5416346034035087e-05,-1.731002703309059e-05,5.37471569259651e-05
-3.2790481782285497e-05,5.174605030333623e-05,2.898683123930823e-05,-1.9861514374497347e-05,5.3892479627393186e-05
-3.0852286727167666e-05,5.1017912483075634e-05,2.8733287763316184e-05,-1.915537541208323e-05,5.7415443734498695e-05
-2.9102307962602936e-05,5.153156598680653e-05,2.8418722649803385e-05,-1.8653616280062124e-05,5.9308946219971403e-05
-3.062408359255642e-05,5.5978143791435286e-05,2.838315413100645e-05,-1.9112876543658786e-05,5.9900947235291824e-05
-3.062906034756452e-05,5.0003469368675724e-05,2.66932875092607e-05,-1.8919834474218078e-05,6.057678547222167e-05
-3.0090603104326874e-05,2.4303679310833104e-05,2.4330725864274427e-05,-1.6257317838608287e-05,6.150231638457626e-05
-2.7721907827071846e-05,-6.825171567470534e-06,2.0625875549740158e-05,-1.307036836806219e-05,6.088922600611113e-05
-2.4744260372244753e-05,-1.6324518583132885e-05,1.898779191833455e-05,-6.534764452226227e-06,6.283066613832489e-05
-2.500357004464604e-05,2.0425446223271138e-07,2.1559060769504867e-05,8.971120450951275e-07,6.634410965489224e-05
-2.9873532184865326e-05,2.0501536710071377e-05,2.1381089027272537e-05,4.450617780094035e-06,6.781988486181945e-05
-3.490301969577558e-05,2.902148298744578e-05,1.3583055988419801e-05,3.6826081668550614e-06,6.594668229809031e-05
-3.347020174260251e-05,2.5272220227634534e-05,3.8048210626584478e-06,1.3439797612591065e-06,6.197379843797535e-05
-2.6270874514011666e-05,2.0006162230856717e-05,-2.3788222733855946e-06,-1.1166877129653585e-06,6.025573384249583e-05
-1.8486807675799355e-05,2.1762856704299338e-05,-6.149211458250647e-06,-4.279115273675416e-06,5.958976544206962e-05
-1.3131451851222664e-05,3.150338670820929e-05,-6.524854597955709e-06,-6.620103704335634e-06,5.767682159785181e-05
-1.0052991456177551e-05,4.076795812579803e-05,-4.466987775231246e-06,-6.6779530243366025e-06,5.60754124308005e-05
-1.1051345609303098e-05,4.1459476051386446e-05,-3.6282926885178313e-06,-4.693252776633017e-06,5.57188359380234e-05
-1.292928027396556e-05,3.714207196026109e-05,-4.128706677875016e-06,-4.58044269180391e-06,5.643796976073645e-05
-1.2383098692225758e-05,3.32525341946166e-05,-3.641674311438692e-06,-5.801197403343394e-06,5.61686756554991e-05
-8.048816198424902e-06,2.7895530365640298e-05,1.4337282436827081e-06,-7.457021183654433e-06,5.458095984067768e-05
-2.0689110442617675e-06,2.1389501853263937e-05,9.204518391925376e-06,-9.383023098052945e-06,5.510409391717985e-05
-1.0543926691752858e-06,1.8429080228088424e-05,1.3691993444808759e-05,-9.616152055968996e-06,5.7859499065671116e-05
-3.662286417238647e-06,1.909129787236452e-05,1.2713041542156134e-05,-8.49197203933727e-06,6.05673594691325e-05
-2.773515461740317e-06,1.8482964151189663e-05,7.685713171667885e-06,-6.4129212660191115e-06,5.9245885495329276e-05
-4.036015468500409e-07,1.831809822760988e-05,3.984511749877129e-06,-4.919660113955615e-06,5.926075391471386e-05
-1.213016503243125e-06,2.108058106387034e-05,1.2659505728151998e-06,-7.317833023989806e-06,6.361145642586052e-05
-6.908952400408452e-06,1.948754652403295e-05,7.801070296409307e-07,-1.2658480954996776e-05,6.827917968621477e-05
-1.449173032597173e-05,1.717422310321126e-05,2.863596137103741e-06,-1.3460879927151836e-05,6.644852692261338e-05
-1.7755490262061357e-05,1.6085792594822124e-05,6.2681051531399135e-06,-1.1719319445546716e-05,5.975631938781589e-05
-1.82169460458681e-05,1.5105209058674518e-05,9.97137431113515e-06,-1.1867566172441002e-05,5.432675970951095e-05
-1.7812975784181617e-05,1.7381207726430148e-05,1.236315438291058e-05,-1.1901221114385407e-05,5.487068119691685e-05
-1.7817412299336866e-05,2.1359490347094834e-05,1.2144535503466614e-05,-1.0077623301185668e-05,5.9147641877643764e-05
-1.7776885215425864e-05,2.510671765776351e-05,6.863899216114078e-06,-9.663111086410936e-06,6.0089758335379884e-05
-1.8223721781396307e-05,2.8199530788697302e-05,3.1833610592002515e-06,-1.455523852200713e-05,5.7536279200576246e-05
-1.7692031178739853e-05,2.9281756724230945e-05,3.7530339795921464e-06,-1.6921052520046942e-05,5.423364927992225e-05
-1.645130578253884e-05,3.0291284929262474e-05,5.5712635003146715e-06,-1.5929848814266734e-05,5.40078581252601e-05
-1.8514616385800764e-05,3.3146639907499775e-05,5.28251075593289e-06,-1.5811740013305098e-05,5.527653775061481e-05
-2.2575148250325583e-05,3.626089164754376e-05,3.330642357468605e-06,-1.801262806111481e-05,5.6276247050845996e-05
-2.5637191356508993e-05,3.6397104850038886e-05,5.553800406232767e-07,-1.9180961317033507e-05,5.700764086213894e-05
-2.476385452609975e-05,3.3626598451519385e-05,-5.607739126389788e-07,-1.7865473637357354e-05,5.940120536251925e-05
-2.1367493900470436e-05,3.2892283343244344e-05,3.042179287149338e-06,-1.559878364787437e-05,6.001395740895532e-05
-2.1917981939623132e-05,3.2547006412642077e-05,8.408935173065402e-06,-1.2219600648677442e-05,5.739119660574943e-05
-2.6840687496587634e-05,2.9411621653707698e-05,8.806499863567296e-06,-1.0327405107091181e-05,5.686586519004777e-05
-3.181811553076841e-05,2.343096275581047e-05,4.5602614591189194e-06,-1.1020553756679874e-05,5.886804501642473e-05
-3.296029899502173e-05,1.9451035768724978e-05,9.914480187944719e-07,-1.0876557098526973e-05,6.017718988005072e-05
-2.9721548344241455e-05,2.094424780807458e-05,-3.3133967463072622e-06,-8.90488263394218e-06,6.092191324569285e-05
-2.8827011192333885e-05,2.5144317987724207e-05,-1.2604590665432625e-05,-7.686840945098083e-06,6.269510049605742e-05
-3.165090311085805e-05,2.663329360075295e-05,-2.3646656700293534e-05,-4.996541065338533e-06,6.459957512561232e-05
-3.319210736663081e-05,2.414340815448668e-05,-2.919671533163637e-05,-4.051541054650443e-06,6.724099512211978e-05
-3.460158404777758e-05,2.3346585294348188e-05,-2.862190558516886e-05,-5.919914201513166e-06,7.044692029012367e-05
-3.589178959373385e-05,2.9560855182353407e-05,-2.6792286007548682e-05,-4.624445409717737e-06,6.90198503434658e-05
-3.286826176918112e-05,3.688047581817955e-05,-2.3565671654068865e-05,-2.9513525987567846e-06,6.127151573309675e-05
-3.043507422262337e-05,3.6027398891747e-05,-1.346186672890326e-05,-4.6374307203223e-06,5.3465158998733386e-05
-3.236204429413192e-05,3.434911195654422e-05,3.684103830892127e-06,-3.32098784383561e-06,5.066578523837961e-05
-3.4950713597936556e-05,3.780584302148782e-05,1.9798000721493736e-05,1.383851440550643e-06,5.5966025684028864e-05
-3.6461166018852964e-05,3.826785905403085e-05,2.8106167519581504e-05,3.1587612738803728e-06,6.228678830666468e-05
-3.6097513657296076e-05,3.4609369322424755e-05,3.1071082048583776e-05,-4.809742790712335e-07,6.150276021799073e-05
-3.583840953069739e-05,3.081895556533709e-05,3.113413549726829e-05,-5.2688183131976984e-06,5.970797792542726e-05
-3.599207411753014e-05,2.9668874049093574e-05,3.128190655843355e-05,-8.21068442746764e-06,5.89576993661467e-05
-3.406942414585501e-05,3.7645917473128065e-05,3.028564970009029e-05,-8.519998118572403e-06,6.0026748542441055e-05
-3.3545591577421874e-05,4.8458492528880015e-05,2.7262914954917505e-05,-6.861790552648017e-06,6.051870514056645e-05
-3.484247645246796e-05,5.258044620859437e-05,2.6303972845198587e-05,-5.758320639870362e-06,5.727136885980144e-05
-3.233098686905578e-05,4.786491990671493e-05,2.9310331228771247e-05,-7.666880264878273e-06,5.5124230129877105e-05
-2.989846143464092e-05,4.006624294561334e-05,2.837055035342928e-05,-1.023158802127e-05,5.705759394913912e-05
-3.372586070327088e-05,3.955601641791873e-05,2.1111287423991598e-05,-1.3090094398648944e-05,5.970595884718932e-05
-4.142260513617657e-05,4.0826169424690306e-05,1.3412336556939408e-05,-1.631079248909373e-05,6.0012163885403425e-05
-4.527148848865181e-05,3.3687243558233604e-05,7.0595319812127855e-06,-1.6940122804953717e-05,6.0151840443722904e-05
-4.1954084736062214e-05,2.1244146410026588e-05,1.1888132434023646e-07,-1.596603760845028e-05,5.893660636502318e-05
-3.8443729863502085e-05,1.4270396604842972e-05,-7.204037956398679e-06,-1.4171038856147788e-05,5.7992645452031866e-05
-3.7873418477829546e-05,1.4409465620701667e-05,-1.2559610695461743e-05,-1.098424218071159e-05,5.9937709011137486e-05
-3.553641363396309e-05,1.5536252249148674e-05,-1.4891771570546553e-05,-7.915672540548258e-06,6.312921323115006e-05
-2.832702375599183e-05,1.612413143448066e-05,-1.2928701835335232e-05,-9.247411071555689e-06,6.492752436315641e-05
-2.111524372594431e-05,2.0262123143766075e-05,-7.391069175355369e-06,-1.124548271036474e-05,6.546387885464355e-05
-1.65666569955647e-05,2.7841531846206635e-05,-1.8556232816990814e-07,-1.193282241729321e-05,6.449729698942974e-05
-1.642742245167028e-05,3.40629048878327e-05,6.237498837435851e-06,-1.239414450537879e-05,6.090647366363555e-05
-2.0349752958281897e-05,3.65176638297271e-05,1.3445433978631627e-05,-1.1419128895795438e-05,5.853393304278143e-05
-2.2586209524888545e-05,3.785235094255768e-05,1.9496130335028283e-05,-1.2387132301228121e-05,5.955888991593383e-05
-2.149675492546521e-05,4.129085209569894e-05,2.0074619897059165e-05,-1.664953560975846e-05,6.11180075793527e-05
-1.9634544514701702e-05,4.63311152998358e-05,1.9916793462471105e-05,-2.094820411002729e-05,6.243250390980393e-05
-2.0890121959382668e-05,4.912567601422779e-05,2.4700710127945058e-05,-2.3188829800346866e-05,6.338958337437361e-05
-2.768529884633608e-05,4.288959826226346e-05,2.759413473540917e-05,-1.9699946278706193e-05,6.033003228367306e-05
-3.450850272201933e-05,3.232460221624933e-05,2.3323658751905896e-05,-1.2292563042137772e-05,5.678596789948642e-05
-3.6355664633447304e-05,2.80173662758898e-05,1.9313310986035503e-05,-9.62353078648448e-06,5.678684829035774e-05
-3.283438491052948e-05,2.8741147616528906e-05,1.8458824342815205e-05,-1.1989880476903636e-05,5.465805952553637e-05
-2.8098163966205902e-05,2.911714000219945e-05,1.5763595001772046e-05,-1.1029433153453283e-05,5.234637501416728e-05
-2.69216707238229e-05,2.4547971406718716e-05,1.1943474419240374e-05,-8.297663953271694e-06,5.3008971008239314e-05
-2.4814038624754176e-05,1.4618591194448527e-05,2.493897454769467e-06,-8.62221531860996e-06,5.61114757147152e-05
-2.3065564164426178e-05,3.259243385400623e-06,-1.2148475434514694e-05,-1.0414408279757481e-05,5.847164720762521e-05
-2.042946289293468e-05,-2.229406845799531e-06,-1.902048461488448e-05,-1.1935369911952876e-05,5.863033584319055e-05
-1.786269604053814e-05,4.053171323903371e-06,-1.5825065929675475e-05,-1.4730997463630047e-05,5.808440982946195e-05
-1.861481723608449e-05,1.3414858585747425e-05,-1.2117701771785505e-05,-1.802322549337987e-05,5.727017924073152e-05
-2.0158233382971957e-05,2.281480556121096e-05,-9.707821845950093e-06,-1.976983367057983e-05,5.97298530919943e-05
-1.921295370266307e-05,3.114010178251192e-05,-6.120411853771657e-06,-2.0217035853420384e-05,6.348856550175697e-05
-1.8058646674035117e-05,3.4520340705057606e-05,-2.822316901074373e-06,-1.9754224922508e-05,6.639766797889024e-05
-1.9877041268046014e-05,3.3115993574028835e-05,-1.3845303783455165e-06,-2.206112003477756e-05,6.424995081033558e-05
-2.3519090973422863e-05,2.743633376667276e-05,1.255870415661775e-06,-2.7481195502332412e-05,5.914871871937066e-05
-2.9055265258648433e-05,2.0193539967294782e-05,7.957577508932445e-06,-3.0440769478445873e-05,5.81233216507826e-05
-3.4731845516944304e-05,1.6528500054846518e-05,1.3653778296429664e-05,-2.7210060579818673e-05,5.8147968957200646e-05
-3.655278487713076e-05,1.7277812730753794e-05,1.2841026546084322e-05,-2.409693115623668e-05,5.465284993988462e-05
-3.41640661645215e-05,1.7671440218691714e-05,8.080663064902183e-06,-2.3814123778720386e-05,5.019986565457657e-05
-3.224221654818393e-05,1.5607296518282965e-05,4.959229045198299e-06,-2.157125527446624e-05,4.891512799076736e-05
-3.0516954211634584e-05,1.4250755157263484e-05,4.975821866537444e-06,-1.9438661183812656e-05,5.2476159908110276e-05
-2.8882368496851996e-05,1.708116542431526e-05,5.864632839802653e-06,-2.337932528462261e-05,5.599713767878711e-05
-2.920650331361685e-05,2.018384293478448e-05,5.793438049295219e-06,-2.739170304266736e-05,5.577402043854818e-05
-2.6667306883609854e-05,2.3939872335176915e-05,5.0205926527269185e-06,-2.621801286295522e-05,5.336100366548635e-05
-2.2161650122143328e-05,2.7895928724319674e-05,2.5682022624096135e-06,-2.2498625185107812e-05,5.085627344669774e-05
-2.1832960555911995e-05,2.7521591619006358e-05,-3.3695221191010205e-07,-2.0929501260980032e-05,5.148646960151382e-05
-2.0667892385972664e-05,2.289280564582441e-05,-2.099750190609484e-06,-2.104513805534225e-05,5.331007923814468e-05
-1.8374037608737126e-05,2.2425218048738316e-05,-3.3308599540760042e-06,-1.923912532220129e-05,6.007175034028478e-05
-2.0137980754952878e-05,2.6080504540004767e-05,-3.929691501980415e-06,-2.0165009118500166e-05,6.600784399779513e-05
-2.4498544007656164e-05,2.91764681605855e-05,-2.992142299262923e-06,-2.090495399897918e-05,6.360899715218693e-05
-2.8707376259262674e-05,3.205617758794688e-05,-3.351727173139807e-06,-1.9471683117444627e-05,5.982823859085329e-05
-3.1337061955127865e-05,3.6344506952445954e-05,-4.495677785598673e-06,-1.8631075363373384e-05,5.848619912285358e-05
-3.211685907444917e-05,4.231063212500885e-05,-6.510205366794253e-06,-1.9334493117639795e-05,6.118462624726817e-05
-3.397952968953177e-05,4.470153362490237e-05,-3.888178525812691e-06,-2.0338147805887274e-05,6.513977132271975e-05
-3.2965333957690746e-05,4.233221261529252e-05,2.5361405278090388e-06,-2.1230047423159704e-05,6.941287574591115e-05
-2.9649549105670303e-05,3.8733149267500266e-05,4.497067493502982e-06,-2.0203779058647342e-05,7.125410047592595e-05
-2.910742477979511e-05,3.509658563416451e-05,3.4348795452388003e-06,-1.824782339099329e-05,7.219877443276346e-05
-3.0238328690757044e-05,2.681426121853292e-05,3.027210823347559e-06,-1.9288638213765807e-05,7.394016574835405e-05
-2.8960235795238987e-05,1.470677580073243e-05,2.550575118220877e-06,-1.973781400010921e-05,7.529005233664066e-05
-2.671211041160859e-05,9.065282938536257e-06,1.5447109262822778e-06,-1.8194275980931707e-05,7.57797752157785e-05
-2.7750660592573695e-05,1.582426921231672e-05,2.564517217251705e-06,-1.531396083009895e-05,7.339559670072049e-05
-2.9768167223664932e-05,2.7598867745837197e-05,7.023106263659429e-06,-1.2801964658137877e-05,7.064257079036906e-05
-2.951399983430747e-05,3.798913530772552e-05,1.1361666111042723e-05,-1.0636811566655524e-05,7.09444866515696e-05
-2.7844916985486634e-05,4.3826796172652394e-05,1.103537215385586e-05,-1.1346916835464071e-05,7.160437235143036e-05
-2.5707133318064734e-05,4.164587880950421e-05,7.92071659816429e-06,-1.530015651951544e-05,6.865632894914597e-05
-2.287942152179312e-05,3.173627192154527e-05,5.677654826286016e-06,-1.6565483747399412e-05,6.354058859869838e-05
-2.2907575839781202e-05,2.2791573428548872e-05,5.753181994805345e-06,-1.2710621376754716e-05,5.815216354676522e-05
-2.701581979636103e-05,2.138608215318527e-05,3.7144673115108162e-06,-7.978023859323002e-06,5.564669845625758e-05
-3.169298724969849e-05,2.592882447061129e-05,1.4211547068043728e-06,-6.217847840161994e-06,5.61042434128467e-05
-3.383909643162042e-05,3.366548116900958e-05,3.856484454445308e-06,-5.3826570365345106e-06,5.70823103771545e-05
-3.0671944841742516e-05,4.3578904296737164e-05,9.411241080670152e-06,-2.4979456156870583e-06,5.473094279295765e-05
-2.266028786834795e-05,4.894976518698968e-05,1.368552511848975e-05,-8.547003176317958e-07,5.207152207731269e-05
-2.2032219931134023e-05,4.158337105764076e-05,1.5083101061463822e-05,-2.0729640937133809e-07,5.1376857300056145e-05
-2.7479925847728737e-05,2.8310603738646023e-05,1.7132097127614543e-05,5.349404091248289e-06,5.249688547337428e-05
-2.6526839064899832e-05,2.5414456104044802e-05,1.9116887415293604e-05,9.943911209120415e-06,5.647624857374467e-05
-2.216366738139186e-05,3.005356302310247e-05,1.9885808796971105e-05,1.0305738214810845e-05,5.8473618992138654e-05
-2.3601274733664468e-05,2.8793278033845127e-05,2.079445584968198e-05,8.926957889343612e-06,5.903035344090313e-05
-2.807281089189928e-05,2.5546107281115837e-05,2.247037446068134e-05,4.746834747493267e-06,5.865183993591927e-05
-2.8949287298019044e-05,2.470320396241732e-05,2.6676270863390528e-05,3.010980208273395e-06,5.639067603624426e-05
-2.5861554604489356e-05,2.5433400878682733e-05,2.600200787128415e-05,6.734358521498507e-06,5.882019831915386e-05
-2.5202809410984628e-05,2.5198442017426714e-05,1.9628558220574632e-05,1.1584436833800282e-05,6.156675954116508e-05
-2.4403194402111694e-05,2.8090875275665894e-05,1.4557436770701315e-05,1.2362478628347162e-05,5.9001034969696775e-05
-2.4271201255032793e-05,3.152903445879929e-05,1.2264225915714633e-05,9.32110742724035e-06,5.366752884583548e-05
-2.6844027161132544e-05,3.2019015634432435e-05,9.590640729584266e-06,5.351560503186192e-06,4.965488551533781e-05
-2.5863448172458448e-05,3.01659238175489e-05,6.592939826077782e-06,2.0735706129926257e-06,5.03889168612659e-05
-2.3275533749256283e-05,2.8540434868773445e-05,5.451261131383944e-06,1.3743845101998886e-06,5.6554421462351456e-05
-2.0452185708563775e-05,2.775778921204619e-05,6.765168109268416e-06,1.7864271057987935e-06,6.34938696748577e-05
-1.7163250959129073e-05,2.8020047466270626e-05,9.916414455801714e-06,1.0812053687914158e-06,6.37881676084362e-05
-1.4957920939195901e-05,2.98163722618483e-05,9.243014574167319e-06,-1.0942152357529267e-06,5.795159813715145e-05
-1.713872370601166e-05,3.085913340328261e-05,4.199247996439226e-06,-2.6557024739304325e-06,5.4289856052491814e-05
-2.2707234165864065e-05,3.080703754676506e-05,-1.613449171600223e-06,-4.103311766812112e-06,5.66105663892813e-05
-2.4763818146311678e-05,3.100866888416931e-05,-4.306683422328206e-06,-5.024988695367938e-06,6.250618025660515e-05
-2.107656473526731e-05,3.283994738012552e-05,-3.2409698178526014e-06,-2.874184701795457e-06,6.739858508808538e-05
-2.0781109924428165e-05,3.441157969064079e-05,-7.07405604316591e-07,-1.3026097178681084e-07,6.580754416063428e-05
-2.4965063857962377e-05,3.1504358048550785e-05,1.356814550490526e-06,-2.5997312604886247e-06,6.116768781794235e-05
-2.7065550966653973e-05,2.2801239538239315e-05,1.2254827197466511e-06,-9.119848982663825e-06,5.929244071012363e-05
-2.7725502150133252e-05,1.8706823539105244e-05,6.142279858067923e-07,-1.2375566257105675e-05,6.169261178001761e-05
-2.7818474336527288e-05,2.1652758732670918e-05,-7.000518280619872e-07,-1.0658291103027295e-05,6.097882578615099e-05
-2.6176585379289463e-05,2.5163810278172605e-05,-4.374599029688397e-06,-3.645747028713231e-06,5.323095683706924e-05
-2.4628003302495927e-05,2.456818037899211e-05,-6.860506346129114e-06,1.8664450180949643e-06,4.5698790927417576e-05
-2.3544680516351946e-05,2.5023533453349955e-05,-5.19055720360484e-06,-3.0602986953454092e-06,4.6148630644893274e-05
-2.4285074687213637e-05,3.0289043934317306e-05,-7.006725013525283e-07,-4.520312813838245e-06,5.372778105083853e-05
-2.4926064725150354e-05,4.0024118789006025e-05,1.157276983576594e-06,1.9934589090553345e-06,6.005650357110426e-05
-2.678495366126299e-05,4.2995368858100846e-05,1.3638446034747176e-06,5.155042344995309e-06,6.218843918759376e-05
-2.810591468005441e-05,3.58534452971071e-05,2.0717059214803157e-06,4.081978659087326e-06,6.345035217236727e-05
-2.9014441679464653e-05,3.166675378452055e-05,2.6587085812934674e-06,3.36595394401229e-06,6.199214840307832e-05
-3.2019041100284085e-05,3.1774838134879246e-05,3.3301669191132532e-06,9.624550330045167e-07,5.9719663113355637e-05
-3.0739556677872315e-05,3.142405694234185e-05,2.9136258490325417e-06,-2.1171854314161465e-06,5.8037629059981555e-05
-3.0231465643737465e-05,3.080767783103511e-05,8.174093863999587e-07,-1.5501403822781867e-06,5.726387462345883e-05
-3.101089168922044e-05,2.9194297894719057e-05,-1.3572011994256172e-06,-2.382092361585819e-06,5.96588033658918e-05
-3.008337262144778e-05,2.703900281630922e-05,-3.846404524665559e-06,-4.669501777243568e-06,6.143185601104051e-05
-2.903883796534501e-05,2.603710163384676e-05,-4.220255050313426e-06,-6.065885372663615e-06,5.961728675174527e-05
-2.949319787148852e-05,2.6614843591232784e-05,-3.610674411902437e-06,-5.41307690582471e-06,5.48829666513484e-05
-2.934428812295664e-05,2.9502933102776296e-05,-4.840678229811601e-06,-4.513729436439462e-06,5.261850674287416e-05
-2.790797225316055e-05,3.27925881720148e-05,-5.21605306857964e-06,-7.044860012683785e-06,5.260750913294032e-05
-2.8702466806862503e-05,3.4650736779440194e-05,-3.6398541851667687e-06,-1.1980737326666713e-05,5.3814161219634116e-05
-3.067767829634249e-05,3.6246685340302065e-05,-5.047986633144319e-07,-1.660265843383968e-05,5.489178147399798e-05
-3.160877895425074e-05,3.991493576904759e-05,3.3587641610210994e-06,-2.0835230316151865e-05,5.422631511464715e-05
-3.0778435757383704e-05,4.085483305971138e-05,8.38598316477146e-06,-2.1787125660921447e-05,5.319083356880583e-05
-2.7373289412935264e-05,2.938796933449339e-05,1.054860604199348e-05,-1.7458420188631862e-05,5.363971649785526e-05
-2.630733979458455e-05,9.145574949798174e-06,8.082058229774702e-06,-1.0875060070247855e-05,5.425963900052011e-05
-3.0715287721250206e-05,-1.0703226962505141e-06,5.729250460717594e-06,-6.767634204152273e-06,5.2667124691652134e-05
-3.526772343320772e-05,7.740252840449102e-06,6.100751306803431e-06,-8.023161171877291e-06,5.182016684557311e-05
-3.740861575352028e-05,2.5230883693438955e-05,6.514633241749834e-06,-1.095333936973475e-05,5.2759238315047696e-05
-3.781601844821125e-05,3.503108018776402e-05,7.73335705162026e-06,-1.128183794207871e-05,5.383555981097743e-05
-3.7624715332640335e-05,3.295081842225045e-05,8.989556590677239e-06,-1.2174153198429849e-05,5.534833690035157e-05
-3.227784691262059e-05,2.537198452046141e-05,8.812080523057375e-06,-1.637551213207189e-05,5.730304110329598e-05
-2.6342773708165623e-05,2.0653487808885984e-05,7.225089120765915e-06,-2.1439896954689175e-05,6.0931663028895855e-05
-2.4115966880344786e-05,1.867173887148965e-05,7.17309512765496e-06,-2.1315225239959545e-05,6.517946894746274e-05
-2.2616824935539626e-05,2.1547757569351234e-05,1.0746337466116529e-05,-1.6970330761978403e-05,6.369132461259142e-05
-2.733471592364367e-05,2.8612734240596183e-05,1.2702160347544122e-05,-1.6323338059009984e-05,6.075118653825484e-05
-3.337964881211519e-05,3.1604780815541744e-05,1.217068620462669e-05,-1.6559042705921456e-05,6.142110214568675e-05
-3.2084761187434196e-05,3.043545439140871e-05,1.280709602724528e-05,-1.2610813428182155e-05,6.233585736481473e-05
-2.947137545561418e-05,3.334637585794553e-05,1.583499579282943e-05,-7.194279532996006e-06,6.128740642452613e-05
-2.9521714168367907e-05,3.907780774170533e-05,1.816686381062027e-05,-3.923557869711658e-06,5.919718023505993e-05
-2.8903354177600704e-05,3.893462780979462e-05,1.5953646652633324e-05,-4.163041012361646e-06,5.733895523007959e-05
-2.637862417032011e-05,3.5190350899938494e-05,1.2026237527607009e-05,-5.9433095884742215e-06,5.4606556659564376e-05
-2.406602470728103e-05,2.9699303922825493e-05,9.288131877838168e-06,-8.298726243083365e-06,5.0946186092915013e-05
-2.1102528990013525e-05,2.457180744386278e-05,7.344219284277642e-06,-1.3441283044812735e-05,4.8325673560611904e-05
-1.9088734916294925e-05,2.4409750039922073e-05,5.9023914218414575e-06,-1.7387519619660452e-05,4.8903912102105096e-05
-1.9475497538223863e-05,3.0993913242127746e-05,5.65488517167978e-06,-1.78846312337555e-05,5.2507046348182485e-05
-2.1006795577704906e-05,3.763628046726808e-05,4.674788215197623e-06,-1.8228834960609674e-05,5.356895053409971e-05
-2.5243662093998864e-05,3.800854756264016e-05,-1.1075486554545932e-06,-2.1028479750384577e-05,5.108867844683118e-05
-2.986585423059296e-05,3.588559411582537e-05,-9.372997737955302e-06,-2.243000562884845e-05,4.9823451263364404e-05
-2.927011883002706e-05,3.669149737106636e-05,-1.3955955182609614e-05,-2.0283134290366434e-05,5.2332194172777236e-05
-2.2259946490521543e-05,3.7728015740867704e-05,-1.3269567716633901e-05,-1.8386426745564677e-05,5.730798875447363e-05
-1.7735179426381364e-05,3.265965642640367e-05,-9.457582564209588e-06,-1.87816458492307e-05,6.148516695247963e-05
-2.1935886252322234e-05,2.4995635612867773e-05,-4.911871656076983e-06,-1.838824937294703e-05,6.346157169900835e-05
-2.8089409170206636e-05,1.787710061762482e-05,-8.785624459051178e-07,-1.5206703210424166e-05,6.499644223367795e-05
-3.0107947168289684e-05,1.2529898413049523e-05,4.965878815710312e-06,-1.3755807231063955e-05,6.64252947899513e-05
-3.069986996706575e-05,1.5165246622927953e-05,1.3708669939660467e-05,-1.7347667380818166e-05,6.599083280889317e-05
-2.5734592782100663e-05,1.9611939933383837e-05,2.0771316485479474e-05,-2.1821530026500113e-05,6.248801219044253e-05
-1.768570473359432e-05,1.8478815036360174e-05,1.938550303748343e-05,-2.0455971025512554e-05,5.882964251213707e-05
-1.9132332454319112e-05,1.970013909158297e-05,1.2679536666837521e-05,-1.5197867469396442e-05,5.867762956768274e-05
-2.4110035155899823e-05,2.597081765998155e-05,7.562060545751592e-06,-1.3829585441271774e-05,5.9092562878504395e-05
-2.4503278837073594e-05,3.362556890351698e-05,8.61290936882142e-06,-1.4605205251427833e-05,5.9905472880927846e-05
-2.5554450985509902e-05,4.0670332964509726e-05,1.1514768630149774e-05,-8.963026630226523e-06,6.020813452778384e-05
-2.9577506211353466e-05,4.16681868955493e-05,1.3281804058351554e-05,-2.5650699626567075e-06,6.101332473917864e-05
-3.133884456474334e-05,3.758338061743416e-05,1.4439759979723021e-05,-2.0798042896785773e-06,6.16367397014983e-05
-2.9390366762527265e-05,3.526917134877294e-05,1.4801736142544542e-05,-2.0125924038438825e-06,6.009596836520359e-05
-2.9745062420261092e-05,3.1792100344318897e-05,1.5238875676004682e-05,-1.5201738960968214e-06,5.8202735090162605e-05
-3.266103522037156e-05,2.1403207938419655e-05,1.2658440027735196e-05,-2.659884103195509e-06,5.4275256843538955e-05
-3.4003380278591067e-05,1.4099398867983837e-05,1.0698119695007335e-05,-2.987147126987111e-06,5.055344445281662e-05
-3.230047877877951e-05,1.8486412955098785e-05,1.0266276149195619e-05,-4.959442776453216e-06,5.104114825371653e-05
-2.9555718356277794e-05,2.3540264010080136e-05,1.037631318467902e-05,-8.825795703160111e-06,5.339157723938115e-05
-2.5104118321905844e-05,1.9695324226631783e-05,1.1146936230943538e-05,-9.568765563017223e-06,5.365583274397068e-05
-1.8422053472022526e-05,1.0234143701381981e-05,1.0092579941556323e-05,-6.7560090428742114e-06,5.515610610018484e-05
-1.2381963642837945e-05,6.997988293733215e-06,7.266984994203085e-06,-4.901493866782403e-06,5.900508040213026e-05
-1.1387114682293031e-05,1.4467364962911233e-05,4.399671524879523e-06,-7.459692824340891e-06,5.946396413492039e-05
-1.4348825970955659e-05,2.3958580641192384e-05,1.656823769735638e-06,-1.3218726962804794e-05,5.658982991008088e-05
-1.5440535207744688e-05,2.69125393970171e-05,-4.235079359204974e-06,-1.5134069144551177e-05,5.667563891620375e-05
-1.5872778021730483e-05,2.421983845124487e-05,-1.6078241969808005e-05,-1.1099238690803759e-05,5.787395275547169e-05
-1.6811234672786668e-05,2.169418803532608e-05,-2.928116373368539e-05,-7.570019988634158e-06,5.722830246668309e-05
-1.6994288671412505e-05,2.1978157747071236e-05,-3.122786074527539e-05,-9.384638360643294e-06,5.693300408893265e-05
-1.6453515854664147e-05,2.594486613816116e-05,-1.788846930139698e-05,-1.31828719531768e-05,5.703208444174379e-05
-1.6830053937155753e-05,3.2522453693673015e-05,-1.388957002745883e-06,-1.4068848031456582e-05,5.616710404865444e-05
-1.8930088117485866e-05,3.660781658254564e-05,8.747854735702276e-06,-1.3608888366434257e-05,5.603255704045296e-05
-2.2212398107512854e-05,3.38186691806186e-05,1.6805017367005348e-05,-1.2886451258964371e-05,5.8811485359910876e-05
-2.1978306904202327e-05,3.032517633982934e-05,2.6022282327176072e-05,-1.3305982974998187e-05,6.295706407399848e-05
-1.7923714040080085e-05,3.3552609238540754e-05,3.3393054764019325e-05,-1.619052818568889e-05,6.778813985874876e-05
-1.518325098004425e-05,3.670296791824512e-05,3.7152349250391126e-05,-1.729717041598633e-05,6.814086373196915e-05
-1.6764090105425566e-05,3.4774362575262785e-05,3.649517020676285e-05,-1.5246065231622197e-05,6.322535773506388e-05
-2.3505119315814227e-05,2.998394484166056e-05,2.969311572087463e-05,-1.6371241144952364e-05,5.9073936427012086e-05
-2.6680352675612085e-05,2.4756594939390197e-05,2.384694198553916e-05,-1.9730607164092362e-05,5.595854963758029e-05
-2.292243152623996e-05,2.072001552733127e-05,2.12709819606971e-05,-1.897177571663633e-05,5.3369141824077815e-05
-2.0024634068249725e-05,2.025107642111834e-05,2.0145042071817443e-05,-1.5280258594430052e-05,5.277304444462061e-05
-2.150576256099157e-05,2.1367284716689028e-05,2.0748657334479503e-05,-1.5246398106683046e-05,5.2464904001681134e-05
-2.231931284768507e-05,2.1361100152716972e-05,1.3561647392634768e-05,-1.9552990124793723e-05,5.256957228993997e-05
-2.1130497771082446e-05,2.5024699425557628e-05,2.7071907879872015e-06,-2.3022170353215188e-05,5.530037742573768e-05
-2.1728214051108807e-05,2.8211770768393762e-05,-3.433720621615066e-06,-2.4236494937213138e-05,5.872650217497721e-05
-2.133317138941493e-05,2.8669948733295314e-05,-2.5949946120817913e-06,-2.453754495945759e-05,5.936040906817652e-05
-2.228412813565228e-05,2.6159556000493467e-05,2.2021899894753005e-06,-2.3937152946018614e-05,5.8884088502964005e-05
-2.658667835930828e-05,2.461542680975981e-05,6.24210997557384e-06,-2.3667060304433107e-05,5.9099456848343834e-05
-3.1851359381107613e-05,2.6506439098739065e-05,9.040462828124873e-06,-2.2405436538974755e-05,5.989164128550328e-05
-3.3441989216953516e-05,2.8437732908059843e-05,9.775780199561268e-06,-1.8265314793097787e-05,6.326800212264061e-05
-3.1520456104772165e-05,2.9205781174823642e-05,6.485131507361075e-06,-1.3771546036878135e-05,6.730209133820608e-05
-2.8840835511800833e-05,2.959606354124844e-05,1.3336284609977156e-06,-1.1250652278249618e-05,6.792473868699744e-05
-2.8209837182657793e-05,2.9707711291848682e-05,-1.768933088897029e-06,-1.0665110494301189e-05,6.72240203130059e-05
-2.992515146615915e-05,2.6506568246986717e-05,-3.32821855408838e-06,-1.018193597701611e-05,6.55725016258657e-05
-3.13244599965401e-05,1.8655648091225885e-05,-3.663514462459716e-06,-7.310166893148562e-06,6.205480895005167e-05
-3.149347685393877e-05,1.1540924788278062e-05,-4.04115689889295e-06,-4.3876202653336804e-06,5.980669448035769e-05
-2.808401404763572e-05,1.0981609193549957e-05,-2.9551174520747736e-06,-5.624312962027034e-06,6.022547313477844e-05
-2.4807815862004645e-05,1.3860186300007626e-05,-4.491422487262753e-07,-9.10142443899531e-06,6.210179708432406e-05
-2.315217352588661e-05,1.8235032257507555e-05,2.4024550384638133e-06,-1.2913347745779902e-05,6.293133628787473e-05
-2.2179485313245095e-05,2.0817578842979856e-05,3.748200924746925e-06,-1.4691198884975165e-05,6.360107363434508e-05
-2.2652679035672918e-05,2.2884523787070066e-05,1.7560752212375519e-06,-9.754822713148315e-06,6.5202999394387e-05
-2.448134546284564e-05,2.3588196199852973e-05,-9.792985622425476e-08,-3.472419393801829e-06,6.423995364457369e-05
-2.7011474230675958e-05,2.561388464528136e-05,-1.1618974440352758e-06,-2.0088891687919386e-06,6.182891229400411e-05
-2.6206245820503682e-05,3.0394416171475314e-05,-4.0820677895681e-06,-6.327096798486309e-06,6.258003850234672e-05
-2.1113872207934037e-05,3.373097933945246e-05,-5.155786311661359e-06,-1.1807337614300195e-05,6.542817573063076e-05
-1.934306783368811e-05,3.399723573238589e-05,-2.5183801426464925e-06,-1.134573085437296e-05,6.467162893386558e-05
-2.4494111130479723e-05,3.250324516557157e-05,-2.7476340846988023e-07,-1.0918498446699232e-05,6.019991997163743e-05
-3.119356551906094e-05,3.197577825631015e-05,-2.190887016695342e-06,-1.3174940249882638e-05,5.878183219465427e-05
-3.06280235236045e-05,3.042752723558806e-05,-5.619682269752957e-06,-1.2460236575861927e-05,5.95201418036595e-05
-2.6724654162535444e-05,3.003701931447722e-05,-7.747843483230099e-06,-7.72613384469878e-06,6.043635949026793e-05
-2.5911669581546448e-05,3.281046883785166e-05,-7.428820026689209e-06,-9.744125009092386e-07,6.188017141539603e-05
-2.8228181690792553e-05,3.888861829182133e-05,-3.513017418299569e-06,2.3398370103677735e-06,6.34915049886331e-05
-2.912487070716452e-05,4.060813444084488e-05,-6.413957294171269e-07,2.570416768321593e-07,6.415857205865905e-05
-2.5992003429564647e-05,3.6743043892784044e-05,-1.2796989494745503e-06,6.47585522983718e-07,6.263670366024598e-05
-2.5100071070482954e-05,3.508321606204845e-05,-2.9005511805735296e-06,3.4329621030337876e-06,6.106049113441259e-05
-2.69040247076191e-05,3.816672688117251e-05,-2.862706651285407e-06,3.244633489885018e-06,6.221194780664518e-05
-2.9465190891642123e-05,4.0344686567550525e-05,-2.951096803371911e-06,-3.9210027580338647e-07,6.542207847815007e-05
-3.1347408366855234e-05,3.881399970850907e-05,-6.7241976466903e-06,-5.087987119622994e-06,6.675903568975627e-05
-3.2544579880777746e-05,3.91274006688036e-05,-1.3518247214960866e-05,-9.251467417925596e-06,6.546573422383517e-05
-3.188881601090543e-05,4.199620889266953e-05,-1.7251159079023637e-05,-1.2574781976582017e-05,6.476791168097407e-05
-2.9415625249384902e-05,3.9814152842154726e-05,-1.5281670130207203e-05,-1.5395966329379007e-05,6.566231604665518e-05
-2.6907453502644785e-05,3.160618507536128e-05,-1.1365608770574909e-05,-1.6164603948709555e-05,6.79054792271927e-05
-2.708386818994768e-05,2.6228963179164566e-05,-5.896466973354109e-06,-1.3519017556973267e-05,6.81422752677463e-05
-2.9435243050102144e-05,2.52026929956628e-05,3.1633053367841057e-06,-1.219420664710924e-05,6.311688775895163e-05
-2.9733500923612155e-05,2.653564115462359e-05,9.890651199384592e-06,-1.2925966984767001e-05,5.7925510191125795e-05
-2.6539639293332584e-05,2.6693973268265836e-05,1.1156400432810187e-05,-1.4126980204309803e-05,5.634009721688926e-05
-2.405629311397206e-05,2.323593434994109e-05,1.2091138160030823e-05,-1.645443626330234e-05,5.626954589388333e-05
-2.439579475321807e-05,1.7367759937769733e-05,1.4585300959879532e-05,-1.8419159459881485e-05,5.697389133274555e-05
-2.555261380621232e-05,1.8093220205628313e-05,1.5941741366987117e-05,-2.088059227389749e-05,5.5199285270646214e-05
-2.9531232939916663e-05,2.9693088436033577e-05,1.6266289094346575e-05,-2.2625677956966683e-05,5.462347326101735e-05
-2.9887320124544203e-05,4.3673771870089695e-05,1.8322103642276488e-05,-2.0656996639445424e-05,5.9435573348309845e-05
-2.841750392690301e-05,4.823980270884931e-05,1.8312955944566056e-05,-1.5069332221173681e-05,6.362633575918153e-05
-3.079618909396231e-05,4.476421599974856e-05,1.824400715122465e-05,-1.2716634955722839e-05,6.436977128032595e-05
-3.368055695318617e-05,4.0108327084453776e-05,1.9648914530989714e-05,-1.6027661331463605e-05,6.289271550485864e-05
-3.585105878300965e-05,3.855114846373908e-05,2.076816417684313e-05,-1.5715542758698575e-05,6.159112672321498e-05
-3.5601395211415365e-05,3.996150553575717e-05,2.2913649445399642e-05,-1.136855917138746e-05,5.883026824449189e-05
-3.4017666621366516e-05,3.596973328967579e-05,2.4679562557139434e-05,-4.72194096801104e-06,5.797926496597938e-05
-3.1857198337092996e-05,2.9553004424087703e-05,2.2252637791098095e-05,1.7560017795403837e-06,5.774272358394228e-05
-3.0145964046823792e-05,2.8833694159402512e-05,1.7758104149834253e-05,4.820321009901818e-06,5.627092104987241e-05
-3.10899195028469e-05,3.258341894252226e-05,1.6136385966092348e-05,3.0246906135289464e-06,5.710523691959679e-05
-3.299343734397553e-05,3.05693902191706e-05,1.551945024402812e-05,1.8113621536031133e-06,5.937871537753381e-05
-3.3254229492740706e-05,2.5050450858543627e-05,1.6345367839676328e-05,3.6091212223254843e-06,5.9948106354568154e-05
-3.108892633463256e-05,2.250729812658392e-05,1.8221444406663068e-05,5.487426733452594e-06,5.7934168580686674e-05
-2.8811809897888452e-05,2.2910284315003082e-05,1.9041102859773673e-05,5.935217814112548e-06,5.568879350903444e-05
-2.8694747015833855e-05,2.436018257867545e-05,1.790872192941606e-05,3.4480069643905153e-06,5.1926563173765317e-05
-2.9326762160053477e-05,2.607947499200236e-05,1.688095653662458e-05,-1.0571723123575794e-06,4.839649045607075e-05
-2.7089068680652417e-05,2.7455282179289497e-05,1.681090725469403e-05,-4.890111995337065e-06,4.97042310598772e-05
-2.2235173673834652e-05,2.8441616450436413e-05,1.7297910744673572e-05,-7.427042419294594e-06,5.214704651734792e-05
-1.7345364540233277e-05,3.0419121685554273e-05,1.6038608009694144e-05,-9.080661584448535e-06,5.138599226484075e-05
-1.512101516709663e-05,3.111879777861759e-05,1.3678843060915824e-05,-9.530266652291175e-06,4.896924292552285e-05
-1.5007750334916636e-05,2.8722746719722636e-05,1.5570556570310146e-05,-8.711844202480279e-06,4.833304774365388e-05
-1.6824882550281473e-05,2.5363184249727055e-05,1.899748713185545e-05,-5.485499514179537e-06,5.0735045078909025e-05
-1.985137896554079e-05,2.2895505026099272e-05,1.7541988199809566e-05,-3.83709448215086e-06,5.454377242131159e-05
-2.0933897758368403e-05,2.02053997782059e-05,1.3615904208563734e-05,-4.5614388000103645e-06,5.941250128671527e-05
-2.4270657377201132e-05,1.9974946553702466e-05,7.396729870379204e-06,-6.778779606975149e-06,6.330844189506024e-05
-2.8820209990954027e-05,2.2038155293557793e-05,2.243773877808053e-07,-9.202851288137026e-06,6.488115468528122e-05
-2.7664313165587373e-05,2.3815375243430026e-05,-4.5611022869707085e-06,-1.3002031664655078e-05,6.502799078589305e-05
-2.3919639716041274e-05,2.528870572859887e-05,-6.585221399291186e-06,-1.263929698325228e-05,6.290632154559717e-05
-2.7629712349153124e-05,2.5977004042943008e-05,-7.314014510484412e-06,-8.025583156268112e-06,5.87329086556565e-05
-3.5245713661424816e-05,2.9189222914283164e-05,-6.9457687459362205e-06,-7.615088634338463e-06,5.6416221923427656e-05
-3.6035882658325136e-05,3.304921483504586e-05,-4.220414666633587e-06,-9.348743333248422e-06,5.492176569532603e-05
-3.234143150621094e-05,3.209296482964419e-05,-5.821998456667643e-06,-6.166426373965805e-06,5.5173892178572714e-05
-2.937177850981243e-05,2.932935421995353e-05,-7.923216799099464e-06,-4.606294794484711e-07,5.454864731291309e-05
-2.7936484912061132e-05,2.9944436391815543e-05,-7.066572834446561e-06,4.3269861293993017e-07,5.028789018979296e-05
-2.8793745514121838e-05,3.289109736215323e-05,-5.402698207035428e-06,-2.44799412030261e-06,4.765059566125274e-05
-2.921584018622525e-05,3.101093170698732e-05,-5.457682163978461e-06,-4.638966402126243e-06,5.184562178328633e-05
-2.7277190383756533e-05,2.4900373318814673e-05,-6.3105480876402e-06,-2.8446363558032317e-06,5.882028926862404e-05
-2.4488988856319338e-05,2.0158488041488454e-05,-6.165515969769331e-06,1.323407730069448e-07,6.196508184075356e-05
-2.3685131964157335e-05,2.269192373205442e-05,-6.724339982611127e-06,2.0832374048040947e-06,6.026658957125619e-05
-2.526851858419832e-05,2.6420611902722158e-05,-7.736035513516981e-06,2.44816277472637e-07,5.494756260304712e-05
-2.8201537134009413e-05,2.7723355742637068e-05,-6.533740361192031e-06,-2.910707507908228e-06,5.131081707077101e-05
-3.041579657292459e-05,2.7966212655883282e-05,-3.3738836009433726e-06,-3.0355799935932737e-06,5.064128708909266e-05
-2.9672259188373573e-05,2.9234197427285835e-05,-1.0874745157707366e-06,-3.279443262727e-06,5.2011426305398345e-05
-2.7551568564376794e-05,2.870878961402923e-05,-1.1577120631045545e-06,-7.637954695383087e-06,5.3569034207612276e-05
-2.8573444069479592e-05,2.212699837400578e-05,-2.483249318174785e-06,-1.3394309462455567e-05,5.2868970669806004e-05
-3.112720514764078e-05,1.4033962543180678e-05,-5.4849929256306496e-06,-1.662913382460829e-05,5.271737609291449e-05
-3.252652822993696e-05,1.1123839612992015e-05,-9.573821444064379e-06,-1.6266489183180965e-05,5.4979351261863485e-05
-3.335736982990056e-05,1.644632538955193e-05,-8.599380635132547e-06,-1.4921454749128316e-05,5.58939682377968e-05
-3.437254054006189e-05,2.532272264943458e-05,-3.399592287678388e-06,-1.2188919754407834e-05,5.5328517191810533e-05
-3.486011701170355e-05,3.188390837749466e-05,1.1312700962662348e-06,-7.499391358578578e-06,5.5306136346189305e-05
-3.48204885085579e-05,3.237192868255079e-05,2.598386799945729e-06,-5.855717972735874e-06,5.877930379938334e-05
-3.370476406416856e-05,3.140344415442087e-05,2.4925120669649914e-06,-6.398107871063985e-06,6.375851080520079e-05
-3.1061590561876073e-05,3.4319535188842565e-05,3.00035367217788e-06,-1.1003719919244759e-05,6.362713611451909e-05
-2.94771834887797e-05,3.947857840103097e-05,4.912994427286321e-06,-1.7070564354071394e-05,6.111371476436034e-05
-2.6111145416507497e-05,4.058696504216641e-05,5.9994281400577165e-06,-2.1514348190976307e-05,5.906815567868762e-05
-2.561771179898642e-05,4.175328649580479e-05,5.527671874006046e-06,-2.2084406737121753e-05,5.8480622101342306e-05
-2.6051053282571957e-05,4.3686293793143705e-05,4.996923507860629e-06,-2.053106618404854e-05,6.109182140789926e-05
-2.0823455997742712e-05,3.998972169938497e-05,6.367752575897612e-06,-1.9255010556662455e-05,6.204513920238242e-05
-1.5851039279368706e-05,2.6532001356827095e-05,7.802772415743675e-06,-1.8842720237444155e-05,6.182664219522849e-05
-1.534202601760626e-05,8.193886969820596e-06,6.903522717038868e-06,-2.0266268620616756e-05,6.318122905213386e-05
-1.5696536138420925e-05,-1.787908701089691e-07,3.340649755045888e-06,-2.063772080873605e-05,6.413663504645228e-05
-1.576515569468029e-05,9.282358405471314e-06,-2.787406572224427e-07,-2.0458068320294842e-05,6.042394306859933e-05
-1.5796047591720708e-05,2.463071905367542e-05,-1.3793179505228181e-06,-2.0254177798051387e-05,5.5132484703790396e-05
-1.7095171642722562e-05,3.388196637388319e-05,1.5559586472591036e-06,-2.056172706943471e-05,5.2608542318921536e-05
-1.841296580096241e-05,3.480249870335683e-05,5.830409008922288e-06,-2.113692789862398e-05,5.415122723206878e-05
-1.8038248526863754e-05,3.387067044968717e-05,8.026589057408273e-06,-2.0877119823126122e-05,5.6887223763624206e-05
-1.6741485524107702e-05,3.42678431479726e-05,9.419787602382712e-06,-2.00415506697027e-05,5.634038825519383e-05
-1.492784849688178e-05,3.4976095776073635e-05,9.136655535257887e-06,-2.1730584194301628e-05,5.711295307264663e-05
-1.5466634067706764e-05,3.494013435556553e-05,6.7226283135823905e-06,-2.213884363300167e-05,5.9539099311223254e-05
-1.6310037608491257e-05,3.2348976674256846e-05,4.582829660648713e-06,-1.9229177269153297e-05,5.985156894894317e-05
-1.6818677977425978e-05,3.048129474336747e-05,4.480556981434347e-06,-1.697650623100344e-05,5.873523696209304e-05
-1.8490489310352132e-05,3.168250623275526e-05,3.305485279270215e-06,-1.8744840417639352e-05,5.982046059216373e-05
-1.9644790882011876e-05,3.349320468259975e-05,-2.2002703303769522e-07,-2.12925278901821e-05,6.270891026360914e-05
-2.1572992409346625e-05,3.312214539619163e-05,-2.0402594600454904e-06,-2.172960012103431e-05,6.401140853995457e-05
-2.5110526621574536e-05,3.119253960903734e-05,-1.0698330470404471e-06,-2.077627505059354e-05,6.160746852401644e-05
-2.4229151676991023e-05,2.9934073609183542e-05,-9.52490438521636e-07,-1.783118386811111e-05,6.0544683947227895e-05
-2.25382736971369e-05,3.091573671554215e-05,-7.3518987164789e-07,-1.5709707440692e-05,6.27546469331719e-05
-2.6854480893234722e-05,3.106879012193531e-05,4.3027569063269766e-07,-1.6133655662997626e-05,6.337135710055009e-05
-3.458647188381292e-05,3.241096783312969e-05,-1.9961337329732487e-06,-1.3548070455726702e-05,6.043255052645691e-05
-3.7102676287759095e-05,3.260636731283739e-05,-3.923998974642018e-06,-1.191885894513689e-05,5.9924135712208226e-05
-3.209602800779976e-05,3.127944000880234e-05,-3.1901849979476538e-06,-1.503289877291536e-05,6.2101666117087e-05
-2.851335193554405e-05,2.8583772291312926e-05,-9.064875143849349e-07,-1.8617341993376613e-05,6.0960006521781906e-05
-2.99305120279314e-05,2.7043974114349112e-05,3.1799254429643042e-06,-1.90168520930456e-05,5.754978337790817e-05
-2.7204034267924726e-05,2.788134224829264e-05,5.778191280114697e-06,-1.4571439351129811e-05,5.440453242044896e-05
-2.22972194023896e-05,2.5761391952983104e-05,7.161199391703121e-06,-1.0944194400508422e-05,5.4474312491947785e-05
-2.0180643332423642e-05,2.0570749256876297e-05,4.2075807868968695e-06,-8.564544259570539e-06,5.729974145651795e-05
-2.1792848201585002e-05,1.4597691915696487e-05,3.863000983983511e-06,-1.0348917385272216e-05,5.823952960781753e-05
-2.5647108486737125e-05,1.4483564882539213e-05,7.521583029301837e-06,-1.188898750115186e-05,5.637675349134952e-05
-2.5562882001395337e-05,1.935452200996224e-05,9.414612577529624e-06,-1.01005707620061e-05,5.505043372977525e-05
-2.4819742975523695e-05,2.322358704986982e-05,9.761311048350763e-06,-7.158352673286572e-06,5.348745980882086e-05
-2.537134241720196e-05,2.2692320271744393e-05,1.0083665074489545e-05,-5.0120092964789364e-06,5.1098817493766546e-05
-2.9048012947896495e-05,1.8422746506985277e-05,1.0108250535267871e-05,-3.1185945772449486e-06,5.035555295762606e-05
-3.06878391711507e-05,1.870985397545155e-05,8.294611689052545e-06,-5.663675324285578e-07,5.395732296165079e-05
-2.9430584618239664e-05,2.5940487830666825e-05,5.81259882892482e-06,7.82347285621654e-07,5.8247242122888565e-05
-2.8358435884001665e-05,3.291495886514895e-05,4.4606731535168365e-06,1.2110328952985583e-06,6.0418304201448336e-05
-2.850346572813578e-05,3.1648000003769994e-05,6.5455456024210434e-06,2.2504050321003888e-06,6.192821456352249e-05
-3.0111055821180344e-05,2.6123329007532448e-05,9.968601261789445e-06,3.844103503070073e-06,6.233806197997183e-05
-3.520930476952344e-05,2.3264998162630945e-05,1.0147058674192522e-05,3.172595825162716e-06,6.207217666087672e-05
-4.112431270186789e-05,2.4014419977902435e-05,5.589490683632903e-06,1.3760381989413872e-06,6.190130079630762e-05
-4.111025555175729e-05,2.8640446544159204e-05,1.938981085913838e-06,1.8959650560645969e-07,6.523620686493814e-05
-3.637762711150572e-05,3.3763022656785324e-05,1.7038646547007374e-06,4.921022878079384e-07,6.926010973984376e-05
-3.1628173019271344e-05,3.0430341212195344e-05,2.371633854636457e-06,1.1353522495483048e-06,7.127872959244996e-05
-2.755271998466924e-05,2.1792335246573202e-05,-1.8142932844966708e-07,-4.3892455892091675e-08,7.358095899689943e-05
-2.2892998458701186e-05,2.3453732865164056e-05,-3.6668168377218535e-06,-1.983173206099309e-06,7.514774915762246e-05
-2.060780389001593e-05,3.514897616696544e-05,-3.9886103877506685e-06,-2.816851974785095e-06,7.170768367359415e-05
-2.0137018509558402e-05,4.139991506235674e-05,-1.1260103747190442e-06,-3.192006715835305e-06,6.481661694124341e-05
-1.8161859770771116e-05,4.106846608920023e-05,1.2520503105406533e-06,-2.775096618279349e-06,6.092180046834983e-05
-1.3106888218317181e-05,3.9609814848518e-05,3.91919866160606e-06,-1.6641129150229972e-06,5.7192119129467756e-05
-1.159748080681311e-05,3.784591535804793e-05,8.759189768170472e-06,-2.175739126641929e-07,5.289780892780982e-05
-1.6024279830162413e-05,3.966454460169189e-05,1.2091769349353854e-05,-2.6363843517174246e-06,5.115563908475451e-05
-1.9904475266230293e-05,4.1181501728715375e-05,1.2574112588481512e-05,-6.451417448261054e-06,4.8320744099328294e-05
-2.239746208942961e-05,4.357995203463361e-05,9.997641427617054e-06,-8.781581527728122e-06,4.7107256250455976e-05
-2.812133971019648e-05,4.631370393326506e-05,9.955190762411803e-06,-8.115412128972821e-06,5.098425754113123e-05
-3.0985673220129684e-05,4.614519639289938e-05,1.1578690646274481e-05,-4.062736934429267e-06,5.4809104767628014e-05
-2.730859887378756e-05,4.2408799345139414e-05,1.030860312312143e-05,-6.679863986391865e-07,5.582295489148237e-05
-2.376615157118067e-05,3.3907901524798945e-05,8.840857844916172e-06,-1.5006364719738485e-06,5.37329979124479e-05
-2.5873610866256058e-05,2.442729237372987e-05,7.954848115332425e-06,-3.892705080943415e-06,4.977749995305203e-05
-2.8995385946473107e-05,2.080370904877782e-05,8.101135790639091e-06,-6.021896297170315e-06,4.960956357535906e-05
-2.6947654987452552e-05,2.4579005184932612e-05,1.0588617442408577e-05,-8.239556336775422e-06,5.46565352124162e-05
-2.3057627913658507e-05,2.6511665055295452e-05,1.3172137187211774e-05,-9.693889296613634e-06,5.892957778996788e-05
-2.1366964574554004e-05,2.295467675139662e-05,1.2929114745929837e-05,-1.0796012247737963e-05,6.12642033956945e-05
-2.005454371101223e-05,1.8316755813430063e-05,1.2105903806514107e-05,-1.1013773473678157e-05,6.163703073980287e-05
-1.886929567262996e-05,1.7293332348344848e-05,1.3315230717125814e-05,-1.0586079042695928e-05,5.91783900745213e-05
-2.0006629711133428e-05,2.0719935491797514e-05,1.4938674212316982e-05,-9.189142474497203e-06,5.786859037471004e-05
-2.447231781843584e-05,2.648638837854378e-05,1.4234115951694548e-05,-9.163067261397373e-06,6.121479964349419e-05
-2.971235880977474e-05,3.257135540479794e-05,1.3956975635665003e-05,-1.1123405784019269e-05,6.369143375195563e-05
-3.207091867807321e-05,3.8286005292320624e-05,1.5647085092496127e-05,-1.318216436629882e-05,6.277304782997817e-05
-3.088669473072514e-05,4.1065992263611406e-05,1.6141073501785286e-05,-1.332844840362668e-05,6.106704677222297e-05
-2.932725692517124e-05,3.896634734701365e-05,1.6705702364561148e-05,-1.3052392205281649e-05,6.0046764701837674e-05
-2.9792459827149287e-05,3.477688005659729e-05,1.664685805735644e-05,-1.2624980627151672e-05,5.9321464505046606e-05
-2.947582288470585e-05,2.8811231459258124e-05,1.4224422557163052e-05,-1.1772705875046086e-05,5.982294533168897e-05
-2.788383972074371e-05,2.374745236011222e-05,1.397788855683757e-05,-9.39893834583927e-06,6.329771713353693e-05
-2.1082913008285686e-05,2.2316376998787746e-05,1.647033241169993e-05,-5.725132723455317e-06,6.588621909031644e-05
