-2.4714558094274253e-05,3.0239642001106404e-05,-1.1819995052064769e-05,-6.5069539232354145e-06,6.222211959538981e-05
-2.8332118745311163e-05,2.6869442081078887e-05,-4.937168114338419e-07,-8.203043762478046e-06,5.813295138068497e-05
-3.2310839742422104e-05,2.0172339645796455e-05,9.814348231884651e-06,-1.1745174560928717e-05,5.8554400311550125e-05
-3.5196128010284156e-05,1.621383853489533e-05,1.3709985978493933e-05,-1.1875413292727899e-05,6.255121115827933e-05
-3.3125099434982985e-05,1.5537492799921893e-05,1.580876050866209e-05,-8.251668987213634e-06,6.33388917776756e-05
-2.8724984076688997e-05,1.7745967852533795e-05,1.875176531029865e-05,-3.4502143080317182e-06,6.236275658011436e-05
-2.555076571297832e-05,1.8855062080547214e-05,1.9750706997001544e-05,-1.8263128822582075e-06,5.818580757477321e-05
-2.5714327421155758e-05,1.7780328562366776e-05,1.8714015823206864e-05,-5.53608197151334e-06,5.430349847301841e-05
-2.6210691430605948e-05,1.8780012396746315e-05,1.6245980077655986e-05,-1.0031801139120944e-05,5.167840936337598e-05
-2.5611236196709797e-05,2.019361090788152e-05,1.3877352103008889e-05,-1.0224438483419362e-05,5.261938349576667e-05
-2.4581368052167818e-05,2.1830021069035865e-05,1.2913455975649413e-05,-8.487390005029738e-06,5.6261160352732986e-05
-2.5907860617735423e-05,2.15590262087062e-05,1.3425355973595288e-05,-6.986384505580645e-06,5.8863948652287945e-05
-2.7212467102799565e-05,2.2158366846269928e-05,1.2215293281769846e-05,-8.495709153066855e-06,5.80300074943807e-05
-2.4924152967287228e-05,2.4473665689583868e-05,6.605214366572909e-06,-1.2346384210104588e-05,5.8488814829615876e-05
-1.9881465050275438e-05,2.659947313077282e-05,-3.348327766161674e-07,-1.4867797290207818e-05,5.875499118701555e-05
-1.4416908925340977e-05,2.7693913580151275e-05,-6.113355993875302e-06,-1.3617819604405668e-05,5.655913264490664e-05
-1.1339491720718797e-05,2.8265003493288532e-05,-8.157016964105424e-06,-1.1718952919181902e-05,5.5440206779167056e-05
-1.3709875020140316e-05,2.718063842621632e-05,-5.809871709061554e-06,-1.4785185157961678e-05,5.5874606914585456e-05
-2.169778417737689e-05,2.6613017325871624e-05,-2.1302678305801237e-06,-1.9812396203633398e-05,5.582405356108211e-05
-2.994705027958844e-05,2.9221599106676877e-05,2.9080993044772185e-06,-2.1071020455565304e-05,5.67360439163167e-05
-3.408203338040039e-05,2.7888343538506888e-05,1.0604236194922123e-05,-1.9437477021710947e-05,6.011960067553446e-05
-3.17278245347552e-05,1.846150917117484e-05,1.6864380086190067e-05,-1.9131588487653062e-05,6.085856875870377e-05
-2.664729254320264e-05,1.2547479855129495e-05,1.976211933651939e-05,-1.870565756689757e-05,6.024688991601579e-05
-2.108576700265985e-05,1.7370957721141167e-05,2.0279883756302297e-05,-1.62461419677129e-05,6.448433850891888e-05
-1.4101583474257495e-05,2.4985785785247572e-05,2.0792158466065302e-05,-1.2435836652002763e-05,7.110535079846159e-05
-7.805691893736366e-06,2.81565407931339e-05,2.1570678654825315e-05,-7.934909262985457e-06,7.338203431572765e-05
-5.777847036370076e-06,2.6674073524191044e-05,1.8602229829411954e-05,-4.106493179278914e-06,7.207773887785152e-05
-8.517684364051092e-06,2.610316914797295e-05,1.3993111679155845e-05,-5.97138478042325e-06,6.503087206510827e-05
-1.3949313142802566e-05,2.4039716663537547e-05,1.1906387044291478e-05,-7.5526427281147335e-06,6.16872712271288e-05
-1.7845712136477232e-05,2.021731052082032e-05,1.1692468433466274e-05,-9.070742635231e-06,6.411839422071353e-05
-2.0472874894039705e-05,2.3552067432319745e-05,1.179503306047991e-05,-1.3438850146485493e-05,6.704506813548505e-05
-2.4274655515910126e-05,3.003020719916094e-05,1.2936980965605471e-05,-1.5898331184871495e-05,6.862312875455245e-05
-2.9841306968592107e-05,3.0123303076834418e-05,1.3827469047100749e-05,-1.6564115867367946e-05,6.495392881333828e-05
-3.112854028586298e-05,3.0919811251806095e-05,1.1420353985158727e-05,-1.7476426364737563e-05,6.12258372711949e-05
-2.6700558009906672e-05,3.559747347026132e-05,6.878236035845475e-06,-1.617387169972062e-05,5.757566759712063e-05
-2.0658648281823844e-05,3.6893186916131526e-05,3.647681978691253e-06,-1.2233663255756255e-05,5.556013638852164e-05
-1.8749413356999867e-05,3.250981535529718e-05,4.414457634993596e-06,-1.1169337085448205e-05,5.4811967856949195e-05
-2.2141370209283195e-05,2.5563203962519765e-05,7.220160114229657e-06,-9.56832263909746e-06,5.6390930694760755e-05
-2.5548746634740382e-05,2.3153319489210844e-05,1.0297838343831245e-05,-6.6673392211669125e-06,5.8614561567083e-05
-2.5264223950216547e-05,2.6424108000355773e-05,1.2244755453139078e-05,-6.457330528064631e-06,5.9589234297163785e-05
-2.4542281607864425e-05,2.859737833205145e-05,1.184702978207497e-05,-8.512631211488042e-06,5.855082054040395e-05
-2.6923587938654236e-05,2.6227849957649596e-05,8.700797479832545e-06,-6.576708983629942e-06,5.5576892918907106e-05
-2.7383130145608447e-05,2.425666752969846e-05,4.222100869810674e-06,-1.571722805238096e-06,5.4813543101772666e-05
-2.371297341596801e-05,2.58374657278182e-05,2.3317547857004683e-06,2.1320656742318533e-06,5.857856012880802e-05
-2.144839527318254e-05,2.7694755772245117e-05,3.445928086875938e-06,5.144414444657741e-06,6.065203342586756e-05
-2.497992682037875e-05,2.7311623853165656e-05,3.820934580289759e-06,5.445987881103065e-06,5.688199962605722e-05
-2.9265136618050747e-05,2.7363365006749518e-05,2.580599357315805e-06,-1.6328601759596495e-07,5.2376788516994566e-05
-2.9796981834806502e-05,3.145209848298691e-05,1.4681171478514443e-06,-7.770053343847394e-06,5.262219929136336e-05
-2.7437790777185e-05,3.8398535252781585e-05,1.9360536498425063e-06,-1.1354062735335901e-05,5.6152395700337365e-05
-2.5441429897909984e-05,4.270662975613959e-05,5.292088644637261e-06,-1.2151136616012082e-05,5.6383825722150505e-05
-2.607485293992795e-05,4.2547097109491006e-05,7.447700227203313e-06,-1.3539634892367758e-05,5.476956721395254e-05
-2.9149590773158707e-05,3.8003588997526094e-05,3.962151822634041e-06,-1.407018589816289e-05,5.348699414753355e-05
-3.0573435651604086e-05,3.494395059533417e-05,-1.962893065865501e-06,-1.1854557669721544e-05,5.502987914951518e-05
-3.0838415113976225e-05,3.4876109566539526e-05,-5.180271273275139e-06,-1.1658581570372917e-05,5.694803621736355e-05
-3.092419865424745e-05,3.4045362554024905e-05,-4.668942892749328e-06,-1.3550642506743316e-05,5.630832674796693e-05
-3.389106132090092e-05,3.2736457797000185e-05,-2.4513840344297932e-06,-1.1454172636149451e-05,5.419685476226732e-05
-3.7681278627133e-05,2.92245349555742e-05,-3.6600629300664878e-06,-7.861673111619893e-06,5.4520834964932874e-05
-3.5097782529192045e-05,2.803363349812571e-05,-8.05240142653929e-06,-5.261974820314208e-06,5.713995415135287e-05
-2.8538053811644204e-05,2.4665625460329466e-05,-1.1317308235447854e-05,-3.4952877285832074e-06,6.011195728206076e-05
-2.8153805033070967e-05,2.1966205167700537e-05,-1.079403591575101e-05,-5.346413672668859e-06,6.204495730344206e-05
-3.434994869166985e-05,2.8492700948845595e-05,-6.296653737081215e-06,-7.000757250352763e-06,6.223670789040625e-05
-3.69638109987136e-05,3.773740536416881e-05,-1.5142267102419282e-06,-8.506595804647077e-06,6.037158163962886e-05
-3.44209729519207e-05,4.175737194600515e-05,3.4784977742674528e-06,-1.0092323464050423e-05,5.747578325099312e-05
-3.161130734952167e-05,3.937955989385955e-05,8.051310942391865e-06,-1.3498298358172178e-05,5.54202233615797e-05
-3.367172394064255e-05,3.316851143608801e-05,8.578381311963312e-06,-1.6606425560894422e-05,5.503401916939765e-05
-3.442060551606119e-05,2.808565659506712e-05,6.082538220653078e-06,-1.7108577594626695e-05,5.4770651331637055e-05
-3.093755731242709e-05,2.911242154368665e-05,2.6274767606082605e-06,-1.262650857825065e-05,5.3972624300513417e-05
-2.8427069992176257e-05,3.36534867528826e-05,3.2304706110153347e-06,-5.357871941669146e-06,5.619842340820469e-05
-2.7466305255074985e-05,3.537619340931997e-05,6.916663096490083e-06,-1.2440844443517562e-07,5.948893158347346e-05
-2.556798244768288e-05,3.4580574720166624e-05,1.0964429748128168e-05,3.1583167583448812e-06,6.0042584664188325e-05
-2.4891734938137233e-05,3.3880292903631926e-05,1.3299077181727625e-05,4.027368504466722e-06,5.735341619583778e-05
-2.749298255366739e-05,3.0708582926308736e-05,1.3958134331915062e-05,4.136983989155851e-06,5.48557291040197e-05
-2.88992996502202e-05,2.6560206606518477e-05,1.4245189959183335e-05,3.1949598451319616e-06,5.4217216529650614e-05
-2.7339610824128613e-05,2.5341243599541485e-05,1.3273624063003808e-05,-1.3744955822403426e-06,5.2191506256349385e-05
-2.4380904505960643e-05,2.3401100406772457e-05,1.1952944078075234e-05,-7.840616490284447e-06,4.70154445793014e-05
-2.2992491722106934e-05,1.8780085156322457e-05,1.2319025699980557e-05,-1.07299065348343e-05,4.3311662011547014e-05
-2.2582058591069654e-05,1.977860665647313e-05,1.4012844985700212e-05,-1.0017225577030331e-05,4.575689308694564e-05
-2.2844142222311348e-05,2.6160600100411102e-05,1.351643822999904e-05,-6.123873845353955e-06,5.225537461228669e-05
-2.5809238650253974e-05,2.82382097793743e-05,1.1148221346957143e-05,-3.2593065952823963e-06,5.458616215037182e-05
-2.856487117242068e-05,2.8322687285253778e-05,6.661724910372868e-06,-3.3784476727305446e-06,5.5286836868617684e-05
-2.9754342904197983e-05,3.057947105844505e-05,4.5848896661482286e-06,-6.765324542357121e-06,5.703906936105341e-05
-3.0269866329035722e-05,3.1679384846938774e-05,6.224440312507795e-06,-9.019077879202086e-06,5.910341133130714e-05
-3.0717441404704005e-05,3.150865086354315e-05,4.581328084896086e-06,-7.1622921495873015e-06,6.106863293098286e-05
-3.0734288884559646e-05,3.0213994250516407e-05,1.7795164239942096e-06,-5.628111921396339e-06,5.920060721109621e-05
-3.092871338594705e-05,3.078240843024105e-05,3.2979260140564293e-06,-5.073081410955638e-06,5.8023357269121334e-05
-2.9431761504383758e-05,3.140036642435007e-05,4.783732492796844e-06,-3.5267983093945077e-06,5.770452116848901e-05
-2.6771582270157523e-05,2.9468428692780435e-05,2.9462016755132936e-06,-3.6312806059868308e-06,5.514507938642055e-05
-2.7559495720197447e-05,2.8313212169450708e-05,-1.5693943851147196e-06,-3.4732229323708452e-06,5.294923539622687e-05
-2.7410724214860238e-05,3.189382186974399e-05,-3.7838308344362304e-06,-1.8300813735550037e-06,5.168512507225387e-05
-2.696462433959823e-05,3.6745317629538476e-05,-1.9539015738700982e-06,-2.7461253466753988e-06,5.296053132042289e-05
-2.6682406314648688e-05,3.734479832928628e-05,1.9155002917159436e-07,-5.168405095901107e-06,5.7626846682978794e-05
-2.539767410780769e-05,3.359776746947318e-05,-8.372958859581558e-08,-6.711416972393636e-06,6.234832108020782e-05
-2.4501328880432993e-05,3.0510071155731566e-05,-1.8725371546679526e-06,-8.15811290522106e-06,6.397162360372022e-05
-2.5136227122857235e-05,2.9074339181534015e-05,-1.9230731140851276e-06,-6.5854906097229104e-06,6.311899778665975e-05
-2.468082311679609e-05,2.8204522095620632e-05,6.858883807581151e-07,-2.1788237063447013e-06,6.275517807807773e-05
-2.1214593289187178e-05,2.7634829166345298e-05,2.878656005123048e-06,6.862826467113337e-07,6.322911940515041e-05
-1.9195769709767774e-05,2.663453597051557e-05,3.5567518352763727e-06,1.4974925477417855e-07,6.409877096302807e-05
-2.0242378013790585e-05,2.5118906705756672e-05,3.849036147585139e-06,5.38672225047776e-07,6.460111035266891e-05
-1.963583054021001e-05,2.5301544155809097e-05,4.729103238787502e-06,2.7494909318193095e-06,6.398709956556559e-05
-1.572939072502777e-05,3.164036388625391e-05,5.094183052278822e-06,3.158894287480507e-06,6.478354771388695e-05
-1.2480934856284875e-05,3.879296127706766e-05,4.8928486648947e-06,1.2340833563939668e-06,6.708141881972551e-05
-1.1352539331710432e-05,3.779597318498418e-05,4.8520728341827635e-06,-2.8488227599154925e-06,6.736834620824084e-05
-1.3045176274317782e-05,2.5194052795995958e-05,5.256791155261453e-06,-7.726286639808677e-06,6.443393795052543e-05
-1.6233512724284083e-05,1.173192504211329e-05,6.605991529795574e-06,-1.1028328117390629e-05,6.179841147968546e-05
-1.8202073988504708e-05,7.54845996198128e-06,6.367487458192045e-06,-1.0465955710969865e-05,6.39364225207828e-05
-1.6537629562662914e-05,1.5608296962454915e-05,6.037798812030815e-06,-8.659836566948798e-06,6.872278027003631e-05
-1.5078097021614667e-05,2.9926635761512443e-05,8.833279935061e-06,-8.888104275683872e-06,6.889727228553966e-05
-1.5128563063626643e-05,3.6077413824386895e-05,1.1757925676647574e-05,-1.4519923752231989e-05,6.438960554078221e-05
-1.681226240179967e-05,2.601958840386942e-05,1.5187497410806827e-05,-1.904872442537453e-05,6.560466135852039e-05
-2.2910091502126306e-05,1.5485000403714366e-05,1.4618307432101574e-05,-2.0317940652603284e-05,6.907240458531305e-05
-2.9160117264837027e-05,1.8306423953617923e-05,6.7392588789516594e-06,-2.056072116829455e-05,7.044168887659907e-05
-2.9787754101562314e-05,2.7721589503926225e-05,1.8381894051344716e-06,-2.066552042379044e-05,7.103906682459638e-05
-2.5945222660084255e-05,3.271152309025638e-05,-1.4784177437832113e-07,-2.0164507077424787e-05,6.968228262849152e-05
-2.4362627300433815e-05,3.2629617635393515e-05,-1.2456632703106152e-06,-1.8016558897215873e-05,6.55411058687605e-05
-2.8036021831212565e-05,3.511783143039793e-05,-1.5626230833731825e-06,-1.584537858434487e-05,5.73172073927708e-05
-3.417814878048375e-05,3.935588028980419e-05,-1.4574693523172755e-06,-1.6277745089610107e-05,5.322819924913347e-05
-4.005338269053027e-05,4.193500353721902e-05,-1.7639624729781644e-06,-1.6907850294956006e-05,5.4603668104391545e-05
-4.4113548938184977e-05,3.8938636862440035e-05,-1.4311192444438348e-06,-1.415943552274257e-05,5.616549970000051e-05
-4.591617107507773e-05,3.324944191263057e-05,8.431716480572504e-08,-1.2237993360031396e-05,5.5837306717876345e-05
-4.236451422912069e-05,2.723284524108749e-05,2.9367431579885306e-06,-1.2222660188854206e-05,5.435295679490082e-05
-3.5851287975674495e-05,2.240622416138649e-05,5.8067766985914204e-06,-1.3432758350973018e-05,5.576210969593376e-05
-3.154927981086075e-05,2.0611905711120926e-05,9.458525710215326e-06,-1.2441980288713239e-05,6.215013127075508e-05
-3.061108509427868e-05,2.3039128791424446e-05,1.1945518053835258e-05,-1.002480712486431e-05,6.564367504324764e-05
-3.17330050165765e-05,2.7489486456033774e-05,1.033800799632445e-05,-1.130579948949162e-05,6.190488784341142e-05
-3.1819934520171955e-05,3.068572550546378e-05,7.938521775940899e-06,-1.5827743482077494e-05,5.606031118077226e-05
-2.9915490813436918e-05,3.1941861379891634e-05,7.190360975073418e-06,-1.8013246517512016e-05,5.1314811571501195e-05
-2.7824007702292874e-05,3.154867226839997e-05,6.195562036737101e-06,-1.5631980204489082e-05,5.0319293222855777e-05
-2.6756222723633982e-05,3.0232818971853703e-05,2.7600779048952973e-06,-1.3842750377079938e-05,5.301028795656748e-05
-2.6463387257535942e-05,2.6837524274014868e-05,-4.361743037861743e-07,-1.7176636902149767e-05,5.446923023555428e-05
-2.8018359444104135e-05,2.2243551939027384e-05,-9.8817679372587e-07,-2.3450336811947636e-05,5.317758768796921e-05
-3.078532972722314e-05,1.7460910385125317e-05,2.2894030280440347e-06,-2.6904222977464087e-05,5.24213319295086e-05
-3.3225911465706304e-05,1.2187872016511392e-05,3.4516103823989397e-06,-2.8851711249444634e-05,5.387930650613271e-05
-3.365856900927611e-05,3.40943506671465e-06,9.56330040935427e-07,-3.00872306979727e-05,5.518418402061798e-05
-3.1097315513761714e-05,2.7478427000460215e-07,-1.2306122698646504e-06,-2.537960244808346e-05,5.782155130873434e-05
-2.50869616138516e-05,1.5359020835603587e-05,2.623182808747515e-06,-1.5332776456489228e-05,6.203090015333146e-05
-1.9704937585629523e-05,4.5081262214807793e-05,1.0865193871723022e-05,-3.910692612407729e-06,6.303445115918294e-05
-2.2310923668555915e-05,5.844267434440553e-05,1.1611491572693922e-05,7.788024731780752e-07,6.234052125364542e-05
-2.4812694391584955e-05,4.862103014602326e-05,6.912483968335437e-06,-1.9453214008535724e-06,5.9821464674314484e-05
-2.1091484086355194e-05,3.927333455067128e-05,4.483450538828038e-06,-3.241118974983692e-06,5.543721272260882e-05
-1.8679242202779278e-05,3.502358958940022e-05,3.1681693144491874e-06,-5.542138296732446e-06,5.087315003038384e-05
-2.0822311853407882e-05,3.158641993650235e-05,9.368617384097888e-07,-1.085723579308251e-05,5.086096643935889e-05
-2.5438197553739883e-05,2.606860471132677e-05,-3.1388826755573973e-06,-1.2635054190468509e-05,5.467585287988186e-05
-2.4576533178333193e-05,2.2082298528403044e-05,-4.446571438165847e-06,-1.0116958947037347e-05,5.746813985751942e-05
-2.1933949028607458e-05,2.3936025172588415e-05,-2.4838126932991145e-07,-9.432897968508769e-06,5.7274879509350285e-05
-2.3100796170183457e-05,2.8790205760742538e-05,6.975952146603959e-06,-1.1712899322446901e-05,5.5893586250022054e-05
-2.6020201403298415e-05,2.866222166630905e-05,1.0511422260606196e-05,-1.4231738532544114e-05,5.5234959290828556e-05
-2.6191008146270178e-05,2.6000281650340185e-05,8.473903108097147e-06,-1.3411858162726276e-05,5.484677240019664e-05
-2.5279578039771877e-05,2.5436906071263365e-05,4.776849436893826e-06,-1.0416983968752902e-05,5.4434422054328024e-05
-2.468001184752211e-05,2.7869684345205314e-05,3.3034641546692e-06,-8.805656761978753e-06,5.519985279534012e-05
-2.2206828361959197e-05,2.884436253225431e-05,4.537227141554467e-06,-8.083369721134659e-06,5.578716081799939e-05
-2.0318235328886658e-05,2.6983667339663953e-05,6.422130354621913e-06,-5.719831278838683e-06,5.350591891328804e-05
-2.0553537979139946e-05,2.5929077310138382e-05,8.536782843293622e-06,-8.149329460138688e-07,5.06779870192986e-05
-2.1713078240281902e-05,2.6731677280622534e-05,1.0622772606438957e-05,2.907877387769986e-06,4.8105965106515214e-05
-1.9641718608909287e-05,2.6630381398717873e-05,1.1401865776861086e-05,4.150225322518963e-06,4.868441101280041e-05
-1.6633215636829846e-05,2.3442516976501793e-05,8.171755325747654e-06,2.8130878035881324e-06,5.197524660616182e-05
-1.695872560958378e-05,2.093893454002682e-05,3.0494600196107058e-06,-1.0713455367294955e-06,5.659494854626246e-05
-1.9317276382935233e-05,2.0951041733496822e-05,2.3269485609489493e-06,-5.825318112329114e-06,6.042080349288881e-05
-1.9452152628218755e-05,2.1884150555706583e-05,6.304875114437891e-06,-7.934696441225242e-06,6.327054143184796e-05
-2.081423190247733e-05,2.0891156964353286e-05,9.214810233970638e-06,-8.587223419453949e-06,6.412307993741706e-05
-2.4821165425237268e-05,2.285344453412108e-05,1.0956794540106785e-05,-8.846548553265166e-06,6.258046778384596e-05
-2.7411979317548685e-05,2.95655718218768e-05,1.1137505680380855e-05,-8.778932169661857e-06,6.094890341046266e-05
-2.700187178561464e-05,3.389105768292211e-05,1.0405699867988005e-05,-1.08646181615768e-05,5.998344931867905e-05
-2.3573486032546498e-05,3.5063909308519214e-05,1.3276573554321658e-05,-1.1549785995157436e-05,5.787693589809351e-05
-2.2262343918555416e-05,3.706524148583412e-05,1.6942845832090825e-05,-7.9786896094447e-06,6.032962119206786e-05
-2.164368561352603e-05,3.655851833173074e-05,1.6352911188732833e-05,-3.841241777990945e-06,6.380262493621558e-05
-2.0835021132370457e-05,3.5051874874625355e-05,1.3430180842988193e-05,-4.769842234964017e-06,6.17416444583796e-05
-2.1160192773095332e-05,3.567503881640732e-05,1.2557143236335833e-05,-8.840622285788413e-06,6.268609286053106e-05
-2.1283874957589433e-05,3.597990144044161e-05,1.4091122466197703e-05,-1.1958410141232889e-05,6.413252413040027e-05
-2.2520560378325172e-05,3.3859301765915006e-05,1.3530655451177154e-05,-1.3101943295623641e-05,6.361127452692017e-05
-2.0636922272387892e-05,2.7857167879119515e-05,1.0458888027642388e-05,-1.1522492968651932e-05,6.16882971371524e-05
-1.8156359146814793e-05,2.2871889086673036e-05,7.710346835665405e-06,-7.652805834368337e-06,6.39564823359251e-05
-1.5902896848274395e-05,2.5356002879561856e-05,5.351377240003785e-06,-3.4335848795308266e-06,6.653868331341073e-05
-1.4715485121996608e-05,3.2513999030925333e-05,4.637069650925696e-06,-3.293359213785152e-06,6.688723078696057e-05
-1.650505691941362e-05,3.6850618926109746e-05,6.170205779199023e-06,-6.452854904637206e-06,6.535052671097219e-05
-2.1985035346006043e-05,3.5776258300757036e-05,5.3679254961025435e-06,-8.246609468187671e-06,6.253537867451087e-05
-2.7078120183432475e-05,3.47119894286152e-05,3.3212049856956583e-06,-6.1126143009460066e-06,6.155405571917072e-05
-2.8055555958417244e-05,3.370676131453365e-05,3.998115971626248e-06,-4.413683200255036e-06,6.075853161746636e-05
-2.6975461878464557e-05,2.7288246201351285e-05,5.162499292055145e-06,-7.1072513492254075e-06,6.0230595408938825e-05
-2.6272131435689516e-05,1.7924257917911746e-05,1.5175536418610136e-06,-1.0224931429547723e-05,6.1126054788474e-05
-2.559849599492736e-05,1.504650845163269e-05,-2.4989958546939306e-06,-9.83277914201608e-06,6.366489105857909e-05
-2.07469111046521e-05,2.122177647834178e-05,-1.6945704146564822e-06,-7.624833415320609e-06,6.330953328870237e-05
-1.6504553059348837e-05,2.7572697945288382e-05,2.268735897814622e-06,-6.241541086637881e-06,6.094533819123171e-05
-1.6899026377359405e-05,2.8430664315237664e-05,4.452400844456861e-06,-3.962594746553805e-06,5.778516424470581e-05
-2.0639985450543463e-05,2.717741699598264e-05,1.5131879536056658e-06,-3.1658623811381403e-06,5.451896504382603e-05
-2.432457586110104e-05,2.6075094865518622e-05,-2.3405643787555164e-06,-5.950530066911597e-06,5.3607036534231156e-05
-2.748489896475803e-05,2.6172339858021587e-05,-9.098279747377092e-07,-8.29575310490327e-06,5.648009755532257e-05
-2.672238042578101e-05,2.741486969171092e-05,1.586811322340509e-06,-8.21633693703916e-06,5.9525413234950975e-05
-2.2458716557594016e-05,2.6326113584218547e-05,1.5023914556877571e-06,-5.994739694870077e-06,5.801920997328125e-05
-2.2203072148840874e-05,2.6063975383294746e-05,2.449198063914082e-06,-6.082421805331251e-06,5.3457843023352325e-05
-2.561292058089748e-05,2.829600271070376e-05,2.5573992843419546e-06,-7.49207219996606e-06,5.099662666907534e-05
-2.4940263756434433e-05,2.6525300199864432e-05,5.762754540228343e-07,-9.2314630819601e-06,5.486839290824719e-05
-2.0469211449380964e-05,2.564197166066151e-05,-3.0404630706470925e-06,-1.3263752407510765e-05,6.270718586165458e-05
-2.2901776901562698e-05,2.9930206437711604e-05,-4.6665786612720694e-06,-1.4407361049961764e-05,6.355653022183105e-05
-3.137025123578496e-05,3.255978663219139e-05,-8.086502020887565e-06,-1.4135795936454087e-05,6.0884503909619525e-05
-3.512354305712506e-05,3.433593155932613e-05,-1.1652512512227986e-05,-1.66951613209676e-05,5.993332888465375e-05
-3.085189746343531e-05,3.454754551057704e-05,-1.2668487215705682e-05,-1.9378847355255857e-05,6.153726280899718e-05
-2.642547042341903e-05,3.331257903482765e-05,-9.577886885381304e-06,-1.994458034459967e-05,6.301768735283986e-05
-2.7860420232173055e-05,2.8821794330724515e-05,-2.5829647256614408e-06,-1.9204635464120656e-05,6.38445999356918e-05
-2.9230510335764848e-05,2.3268667064257897e-05,2.5399892820132663e-06,-1.565767524880357e-05,6.417802069336176e-05
-3.318925519124605e-05,2.2405089111998677e-05,3.17477019962098e-06,-1.0990537703037262e-05,6.241718801902607e-05
-4.133102993364446e-05,2.6271669412381016e-05,2.770423179754289e-06,-5.776621037512086e-06,6.09410235483665e-05
-4.663662184611894e-05,2.971280991914682e-05,5.207311915000901e-06,-1.0681887943064794e-06,6.231688894331455e-05
-4.496127075981349e-05,2.991059773194138e-05,8.318555046571419e-06,-1.5487770497202291e-06,6.686640699626878e-05
-4.0317368984688073e-05,2.981383295264095e-05,1.0809172636072617e-05,-8.228842489188537e-06,6.977147131692618e-05
-3.8248803321039304e-05,3.149040276184678e-05,1.2190766938147135e-05,-1.4631859812652692e-05,6.808513717260212e-05
-4.016578895971179e-05,3.254023249610327e-05,1.3469621080730576e-05,-1.7805679817683995e-05,6.49716384941712e-05
-4.342375177657232e-05,3.063940675929189e-05,1.4890591955918353e-05,-2.0052439140272327e-05,6.441163714043796e-05
-4.2871219193330035e-05,2.9638329579029232e-05,1.6713502191123553e-05,-2.1109937733854167e-05,6.257180211832747e-05
-3.861075674649328e-05,3.093502527917735e-05,1.70166003954364e-05,-2.1593010387732647e-05,5.6390817917417735e-05
-3.397997352294624e-05,3.261696838308126e-05,1.7061818653019145e-05,-2.0193141608615406e-05,5.130680074216798e-05
-3.380170892341994e-05,3.1801144359633327e-05,1.3872504496248439e-05,-1.5715590052423067e-05,5.192350363358855e-05
-3.666635529953055e-05,2.6736022846307606e-05,2.5346173515572445e-06,-1.0806678801600356e-05,5.414432962425053e-05
-3.6678808100987226e-05,2.1337247744668275e-05,-8.05570471129613e-06,-8.725322913960554e-06,5.645135752274655e-05
-3.534247662173584e-05,2.1420368284452707e-05,-1.1963060387643054e-05,-1.2178044016764034e-05,5.71366363146808e-05
-3.3873311622301117e-05,2.255461731692776e-05,-1.0477135219844058e-05,-1.570186941535212e-05,6.10749120824039e-05
-2.9565708246082067e-05,2.3062741092871875e-05,-4.740975782624446e-06,-1.334919852524763e-05,6.392286741174757e-05
-2.545450843172148e-05,2.4970780941657722e-05,1.1341455774527276e-06,-1.2872023944510147e-05,5.8207828260492533e-05
-2.4387964003835805e-05,2.8118034606450237e-05,7.108790669008158e-06,-1.493835497967666e-05,5.39597385795787e-05
-2.4097769710351713e-05,3.1157756893662736e-05,1.2815434274671134e-05,-1.3580455743067432e-05,5.42366506124381e-05
-2.417428549961187e-05,2.8353404559311457e-05,1.7431792002753355e-05,-7.977731911523733e-06,5.517427416634746e-05
-2.5441651814617217e-05,2.5222445401595905e-05,1.7515547369839624e-05,-3.408015572858858e-06,5.770722418674268e-05
-2.707097155507654e-05,2.308760304003954e-05,1.1541997082531452e-05,3.7722645629401086e-07,5.993117156322114e-05
-2.8093532819184475e-05,1.89176917047007e-05,2.088767132590874e-06,4.435539267433342e-06,6.140116602182388e-05
-2.6616258764988743e-05,1.8043343516183086e-05,-5.178729679755634e-06,4.715969225799199e-06,6.111893890192732e-05
-2.4417719032499008e-05,2.0106934243813157e-05,-3.638188672994147e-06,4.12001872973633e-06,6.013369056745432e-05
-2.3576973035233095e-05,2.455811045365408e-05,3.89133265343844e-06,5.391279046307318e-06,5.856199641129933e-05
-2.594957550172694e-05,2.523802140785847e-05,1.0909242519119289e-05,7.158853350119898e-06,5.826566120958887e-05
-2.47710104304133e-05,2.3120499463402666e-05,1.621131923457142e-05,7.707336408202536e-06,5.7583325542509556e-05
-2.148526800738182e-05,2.3418999262503348e-05,1.8325601558899507e-05,7.889686457929201e-06,5.698854511138052e-05
-2.3801712814019993e-05,2.71016797341872e-05,1.7949641915038228e-05,7.308320164156612e-06,5.8969049860024825e-05
-3.052635656786151e-05,3.009970714629162e-05,1.7689135347609408e-05,5.422178674052702e-06,6.093534466344863e-05
-3.457408456597477e-05,3.020122676389292e-05,1.66580721270293e-05,2.398040123807732e-06,6.152745481813326e-05
-3.468311842880212e-05,2.9072456527501345e-05,1.541190067655407e-05,-9.507918434792373e-07,6.133631541160867e-05
-3.417797779547982e-05,2.919887992902659e-05,1.5144164535740856e-05,-2.5645836103649344e-06,6.110379035817459e-05
-3.2075942726805806e-05,3.086109063588083e-05,1.4724814718647394e-05,-3.851292603940237e-06,5.9865571529371664e-05
-3.068156001972966e-05,3.0975013942224905e-05,1.090387195290532e-05,-7.687169272685423e-06,5.966455864836462e-05
-3.014081812580116e-05,3.1280858820537105e-05,4.785473720403388e-06,-1.3496964129444677e-05,5.9004600188927725e-05
-2.8099073460907675e-05,3.057239518966526e-05,2.200105427618837e-06,-1.6358033462893218e-05,5.539711855817586e-05
-2.777117697405629e-05,2.6132644052268006e-05,3.290091399321682e-06,-1.559362863190472e-05,5.171705925022252e-05
-3.089084566454403e-05,2.1001260392949916e-05,7.859725315029209e-07,-1.4025811651663389e-05,5.2201525249984115e-05
-3.355692024342716e-05,1.9069435438723303e-05,-4.740194981422974e-06,-1.0746088264568243e-05,5.317240720614791e-05
-3.334274879307486e-05,1.7558786566951312e-05,-6.736059276590822e-06,-1.0520209798414726e-05,5.300634074956179e-05
-3.0024564694031142e-05,2.1430043489090167e-05,-4.205468940199353e-06,-1.6234442227869295e-05,5.401043381425552e-05
-2.601566848170478e-05,3.1955620215740055e-05,4.353095164333354e-07,-1.9551078366930597e-05,5.498117388924584e-05
-2.2049433027859777e-05,3.3981803426286206e-05,3.6975316106691025e-06,-1.691554643912241e-05,5.091087587061338e-05
-2.2285603336058557e-05,2.5411171009182e-05,2.8033050512021873e-06,-1.6694888472557068e-05,5.1362294470891356e-05
-2.160382064175792e-05,2.148029307136312e-05,-1.596593222075171e-07,-2.202482573920861e-05,5.631452222587541e-05
-1.9926956156268716e-05,2.585223592177499e-05,-2.0397840216901386e-06,-2.4933277018135414e-05,5.812745803268626e-05
-2.2946796889300458e-05,3.4321335988352075e-05,-9.244967600352538e-07,-2.2280491975834593e-05,5.7290591939818114e-05
-2.4624494471936487e-05,3.998659667558968e-05,8.768413408688502e-07,-1.8473854652256705e-05,5.4330859711626545e-05
-2.476489135005977e-05,3.901383388438262e-05,3.524084149830742e-06,-1.88939393410692e-05,5.331031570676714e-05
-2.5748455300345086e-05,3.392297730897553e-05,4.4041457840648945e-06,-2.1390407709986903e-05,5.302243152982555e-05
-2.6131303457077593e-05,2.6665635232347995e-05,3.929879767383682e-06,-2.2689724573865533e-05,5.16816035087686e-05
-2.8784223104594275e-05,2.0595238311216235e-05,4.99588804814266e-06,-2.503845826140605e-05,5.2284471166785806e-05
-3.19386126648169e-05,2.178832801291719e-05,8.09155244496651e-06,-2.7735066396417096e-05,5.344348028302193e-05
-3.259671575506218e-05,2.688230961211957e-05,1.18917268991936e-05,-2.9360740882111713e-05,5.1400711527094245e-05
-3.1154519092524424e-05,2.9586308301077224e-05,1.3856837540515698e-05,-2.8383125027175993e-05,5.057890302850865e-05
-3.1170755391940475e-05,2.8669190214714035e-05,1.4021078641235363e-05,-2.4747338102315553e-05,5.3636020311387256e-05
-3.4970304113812745e-05,2.9383732908172533e-05,1.3066704013908748e-05,-2.169352228520438e-05,5.7327742979396135e-05
-4.158730371273123e-05,3.380139605724253e-05,1.2775391951436177e-05,-2.033826785918791e-05,5.968715049675666e-05
-4.717814954346977e-05,3.691445090225898e-05,1.4240788914321456e-05,-1.9737573893507943e-05,6.0039656091248617e-05
-4.577166691888124e-05,3.5568158637033775e-05,1.544977021694649e-05,-2.0734330973937176e-05,5.8436929975869134e-05
-3.7628429709002376e-05,3.355785884195939e-05,1.309464278165251e-05,-2.2597521819989197e-05,5.6506087275920436e-05
-2.8365482648951e-05,3.2459582143928856e-05,8.584873285144567e-06,-2.3174814486992545e-05,5.552726724999957e-05
-2.3691354726906866e-05,2.9824848752468824e-05,5.291151410347084e-06,-2.264265640405938e-05,5.6406028306810185e-05
-2.2822337996331044e-05,2.8234753699507564e-05,4.654375516111031e-06,-2.0928049707436003e-05,5.78818580834195e-05
-2.4098109861370176e-05,2.8806958653149195e-05,2.311671096322243e-06,-2.183091601182241e-05,5.789346687379293e-05
-2.2748925402993336e-05,2.8253698474145494e-05,3.9508293525614135e-07,-2.4310304070240818e-05,5.7737273891689256e-05
-1.855939262895845e-05,2.493364991096314e-05,8.848508059600135e-07,-2.2221165636437945e-05,5.9144389524590224e-05
-1.6502110156579874e-05,2.1018264305894263e-05,4.544293460639892e-06,-1.5233271369652357e-05,6.05923414696008e-05
-1.5836783859413117e-05,1.772321957105305e-05,8.897899533621967e-06,-9.741524991113693e-06,5.889235035283491e-05
-1.7380498320562765e-05,1.8397451640339568e-05,6.442077392421197e-06,-9.167779353447258e-06,5.634960325551219e-05
-1.6210531612159684e-05,2.3818980480427854e-05,9.532793114885862e-07,-1.1136529792565852e-05,5.836424679728225e-05
-9.602865247870795e-06,2.914495962613728e-05,-5.636556466015463e-07,-1.4868945072521456e-05,6.171612039906904e-05
-8.140028512571007e-06,2.5742985599208623e-05,3.303574089841277e-07,-1.4310802725958638e-05,6.092580224503763e-05
-1.1882437320309691e-05,2.0204508473398164e-05,5.249397077022877e-07,-8.856284694047645e-06,5.9036621678387746e-05
-1.4371247743838467e-05,1.6435929865110666e-05,1.9398992634478418e-08,-4.528019417193718e-06,6.040837979526259e-05
-1.4529031432175543e-05,1.638836329220794e-05,2.632333462315728e-07,-3.711694489538786e-06,5.92188625887502e-05
-1.6257639799732715e-05,2.0353174477349967e-05,1.1635331276238503e-07,-3.6887040550936945e-06,5.447579314932227e-05
-1.8543636542744935e-05,2.563864654803183e-05,1.7150797475551371e-06,-4.832744252780685e-06,4.955685653840192e-05
-1.7633976312936284e-05,3.037100577785168e-05,5.667518507834757e-06,-6.154320089990506e-06,4.836403240915388e-05
-1.558242001920007e-05,3.300590469734743e-05,9.090288585866801e-06,-5.2913519539288245e-06,5.0583123083924875e-05
-1.6672822312102653e-05,3.418753112782724e-05,9.008545021060854e-06,-4.719949629361508e-06,5.4287538659991696e-05
-2.0910680177621543e-05,3.2617423130432144e-05,4.954495580022922e-06,-5.444605903903721e-06,5.806457920698449e-05
-2.3586120732943527e-05,3.325895522721112e-05,2.5063341126951855e-06,-5.1088218242512085e-06,5.8921614254359156e-05
-2.3364045773632824e-05,3.753787314053625e-05,4.464921403268818e-06,-2.8014487725158688e-06,5.8027108025271446e-05
-2.331019459234085e-05,4.041324064019136e-05,8.4289922597236e-06,-1.5235760884024785e-06,5.988760676700622e-05
-2.592817327240482e-05,4.005267328466289e-05,1.0739152457972523e-05,-9.68941208157048e-07,6.234068132471293e-05
-2.881949876609724e-05,4.1324303310830146e-05,9.495967788097914e-06,6.571447670467023e-07,6.11449868301861e-05
-2.937665158242453e-05,4.4035783503204584e-05,7.135859050322324e-06,2.4834685063979123e-06,5.8605874073691666e-05
-2.694379145395942e-05,4.359690865385346e-05,8.421258826274425e-06,3.841710622509709e-06,5.7983041187981144e-05
-2.3094185962690972e-05,3.798778561758809e-05,9.978676644095685e-06,6.082420895836549e-06,6.09849339525681e-05
-2.1573390768026002e-05,3.410743738641031e-05,7.86047075962415e-06,9.661453077569604e-06,6.434437091229483e-05
-2.2625672499998473e-05,3.175794699927792e-05,4.000501576228999e-06,8.3576869656099e-06,6.655368633801118e-05
-2.378922545176465e-05,2.8257734811631963e-05,3.6719739000545815e-06,1.421577280780184e-06,6.541141192428768e-05
-2.471196057740599e-05,2.483316529833246e-05,3.271345349276089e-06,-1.1102413282060297e-06,6.28287234576419e-05
-2.713945104915183e-05,2.3607373805134557e-05,1.5658979464205913e-06,-2.470269691912108e-06,6.147876410977915e-05
-2.412098183413036e-05,2.9190381610533223e-05,2.0545985535136424e-06,-8.619380423624534e-06,6.254523032112047e-05
-1.738094215397723e-05,3.350658153067343e-05,-2.24962008132934e-07,-9.776177648745943e-06,6.324454443529248e-05
-1.7108070096583106e-05,3.215839387848973e-05,-9.57729980655131e-07,-4.765585345012369e-06,5.953396248514764e-05
-1.918668749567587e-05,2.8980201022932306e-05,3.4030497317871777e-06,-2.8171507437946275e-06,5.610001244349405e-05
-1.90430655493401e-05,2.8677468435489573e-05,4.622144388122251e-06,-2.196334435211611e-06,5.696491643902846e-05
-1.7250240489374846e-05,3.207516419934109e-05,4.617872946255375e-06,-2.2237827579374425e-06,5.8232144510839134e-05
-1.9024722860194743e-05,3.203127926099114e-05,5.259298632154241e-06,-4.3782197280961554e-06,5.86028654652182e-05
-2.244845927634742e-05,3.0804891139268875e-05,2.5151873614959186e-06,-1.1098730283265468e-05,6.028375355526805e-05
-2.7187865271116607e-05,2.9584394724224694e-05,-3.2762935120445036e-07,-1.8018305127043277e-05,5.8555728173814714e-05
-3.2802468922454864e-05,2.58826603385387e-05,-8.309413601637061e-07,-2.2479660401586443e-05,5.302777572069317e-05
-3.6210309190209955e-05,2.3043909095576964e-05,1.0252364290863625e-07,-2.4440407287329435e-05,5.196727215661667e-05
-3.846782783512026e-05,2.4383301933994517e-05,9.781165317690466e-07,-2.325761852262076e-05,5.564235107158311e-05
-3.964436473324895e-05,2.7339872758602723e-05,3.4732497624645475e-06,-2.0888704966637306e-05,5.7461864344077185e-05
-3.8982754631433636e-05,2.7912274163099937e-05,5.958067958999891e-06,-2.005214264499955e-05,5.626707570627332e-05
-3.831069261650555e-05,2.584361754998099e-05,6.013064194121398e-06,-1.9431345208431594e-05,5.5326338042505085e-05
-3.848823325824924e-05,2.2706361050950363e-05,2.527432570786914e-06,-1.8404733054921962e-05,5.562252408708446e-05
-3.930467937607318e-05,2.0993347789044492e-05,-3.1890454010863323e-06,-2.0281848264858127e-05,5.757610051659867e-05
-3.8628750189673156e-05,2.1079937141621485e-05,-6.099963229644345e-06,-2.0666831915150397e-05,5.9187106671743095e-05
-3.527406806824729e-05,2.2167718270793557e-05,-5.418197815743042e-06,-1.6695650629117154e-05,6.115758878877386e-05
-3.263384132878855e-05,2.477522866684012e-05,-4.862437890551519e-06,-1.116354269470321e-05,6.431084329960868e-05
-3.240215664845891e-05,2.5999865101766773e-05,-6.187236522237072e-06,-9.479285836277995e-06,6.504666089313105e-05
-3.37737837980967e-05,2.333546399313491e-05,-5.652333584293956e-06,-8.505868208885659e-06,6.332322664093226e-05
-3.44198415405117e-05,2.059139296761714e-05,-2.9036466457910137e-06,-6.584975380974356e-06,6.236593617359176e-05
-3.4070042602252215e-05,2.0415156541275792e-05,1.603452481901968e-08,-3.3538753996253945e-06,6.346188456518576e-05
-3.132440542685799e-05,2.3319827960222028e-05,-6.968505061877295e-08,9.819843853620114e-07,6.232076702872291e-05
-2.4945593395386823e-05,2.7008061806554906e-05,-1.9456882682789e-07,3.584608975870651e-06,5.876367140444927e-05
-1.9765271645155735e-05,2.859336746041663e-05,4.8384717956651e-06,3.1584088446834357e-06,5.9664049331331626e-05
-1.8688118871068582e-05,2.7339186999597587e-05,1.0999162441294175e-05,2.045716428256128e-06,6.390208727680147e-05
-2.0490591850830242e-05,2.7892316211364232e-05,1.4802727491769474e-05,3.3677019928290974e-06,6.678832869511098e-05
-2.2663056370220147e-05,2.922107705671806e-05,1.5234630154736806e-05,2.8438621484383475e-06,6.759531243005767e-05
-2.2006775907357223e-05,2.860835775209125e-05,1.6524654711247422e-05,-3.3276262456638506e-06,6.811427010688931e-05
-2.4993458282551728e-05,2.903415952459909e-05,1.74062170117395e-05,-7.781386557326186e-06,6.843763549113646e-05
-2.8622625904972665e-05,2.6445506591699086e-05,1.22004448712687e-05,-8.834266736812424e-06,6.748567830072716e-05
-2.649891030159779e-05,2.350358226976823e-05,4.7570224523951765e-06,-1.003049146675039e-05,6.892374949529767e-05
-1.9600312953116372e-05,2.437723560433369e-05,2.511485263312352e-06,-1.085298390535172e-05,6.953225965844467e-05
-1.8800707039190456e-05,2.8042386475135572e-05,8.124588021019008e-06,-1.0290564205206465e-05,6.863879389129579e-05
-2.4428753022220917e-05,3.295553324278444e-05,1.5048794921312947e-05,-7.742685738776345e-06,6.659944483544677e-05
-2.7186444640392438e-05,3.433764140936546e-05,1.951955164258834e-05,-5.7915817706089e-06,6.628190749324858e-05
-2.5512412321404554e-05,3.342290801811032e-05,1.8765580534818582e-05,-4.189932496956317e-06,6.742459663655609e-05
-2.5028637537616305e-05,3.204317545169033e-05,1.4016605746292043e-05,-1.8680808580029407e-06,6.706111889798194e-05
-2.7507076083566062e-05,3.217149424017407e-05,1.0065988135465886e-05,-2.176677071474842e-06,6.747955922037363e-05
-2.787892663036473e-05,3.1915253202896565e-05,8.848173820297234e-06,-5.6572498579043895e-06,6.806926830904558e-05
-2.488581412762869e-05,2.637898433022201e-05,6.271611255215248e-06,-8.908488780434709e-06,6.846931501058862e-05
-1.923051786434371e-05,1.5401761629618704e-05,-1.4231011391530046e-06,-1.026909285428701e-05,6.780702096875757e-05
-1.6878064343472943e-05,5.5598607104911935e-06,-7.424577688652789e-06,-9.990620128519367e-06,6.459170253947377e-05
-1.897457696031779e-05,2.6108446036232635e-06,-5.74993737245677e-06,-1.0114848919329233e-05,5.9529829741222784e-05
-2.119969212799333e-05,6.079540980863385e-06,1.0952487627946539e-06,-1.1172537597303744e-05,5.614351903204806e-05
-1.8973985788761638e-05,1.2804815924027935e-05,9.488263458479196e-06,-1.2741484169964679e-05,5.5829787015682086e-05
-1.6786034393589944e-05,2.066084744001273e-05,1.663210969127249e-05,-1.6590245650149882e-05,5.694812352885492e-05
-1.7393214875482954e-05,2.6939254894386977e-05,1.8450984498485923e-05,-2.062077146547381e-05,5.758402403444052e-05
-1.690626231720671e-05,2.8272530471440405e-05,1.631384111533407e-05,-2.179441253247205e-05,5.709517063223757e-05
-1.7919033780344762e-05,2.6995579901267774e-05,1.374262137687765e-05,-2.1892004951951094e-05,5.405054980656132e-05
-2.307946306245867e-05,2.8963122531422414e-05,1.2697366400971077e-05,-1.929305108205881e-05,5.15741812705528e-05
-2.6359897674410604e-05,3.315314825158566e-05,1.5304005501093343e-05,-1.6505404346389696e-05,5.305558443069458e-05
-2.7224667064729147e-05,3.4455857530701905e-05,1.847604289650917e-05,-1.869697734946385e-05,5.507965761353262e-05
-2.744731682469137e-05,3.3569183869985864e-05,1.6245026927208528e-05,-2.0888925064355135e-05,5.448645242722705e-05
-2.6777184757520445e-05,3.0346836865646765e-05,1.4678922525490634e-05,-1.9893195712938905e-05,5.351649451768026e-05
-2.6385296223452315e-05,2.818628490786068e-05,1.6454971046186984e-05,-1.4697320693812799e-05,5.384706309996545e-05
-2.466699152137153e-05,2.9529925086535513e-05,1.5130365682125557e-05,-1.0520984687900636e-05,5.438177322503179e-05
-2.119666532962583e-05,3.16079895128496e-05,9.747147487360053e-06,-1.0457599273649976e-05,5.62137174711097e-05
-1.890595376607962e-05,3.295060378150083e-05,5.7826482589007355e-06,-6.6939101088792086e-06,5.751556091126986e-05
-1.800148129404988e-05,3.350049155415036e-05,4.217167315800907e-06,-3.779842700168956e-06,5.72468270547688e-05
-1.902571602840908e-05,3.149180338368751e-05,3.391551217646338e-06,-3.402462425583508e-06,5.914251596550457e-05
-2.349059832340572e-05,2.9758371965726838e-05,2.8506299258879153e-06,-5.830437203258043e-06,5.9733400121331215e-05
-3.0715578759554774e-05,2.9918039217591286e-05,2.0799434423679486e-06,-7.679189366172068e-06,5.683180279447697e-05
-3.425791146582924e-05,3.38084100803826e-05,2.248497821710771e-06,-7.279472356458427e-06,5.330431304173544e-05
-3.375997403054498e-05,3.971746991737746e-05,2.6230911771563115e-06,-7.776661732350476e-06,5.2028899517608806e-05
-3.0991188396001235e-05,4.391861511976458e-05,3.505109816615004e-06,-9.650733773014508e-06,5.175002297619358e-05
-2.8242438929737546e-05,4.5142554881749675e-05,3.857390311168274e-06,-1.3549130017054267e-05,4.926961992168799e-05
-2.7135594791616313e-05,4.2247993405908346e-05,3.976557309215423e-06,-1.7074095012503676e-05,4.4773139961762354e-05
-2.3047043214319274e-05,3.571472188923508e-05,4.560796696750913e-06,-1.7487329387222417e-05,4.1038521885639057e-05
-1.5747978977742605e-05,2.7915033570025116e-05,3.4435513498465298e-06,-1.452155083825346e-05,4.0646602428751066e-05
-9.904812941385899e-06,2.5321996872662567e-05,-1.6819996062622522e-06,-1.1862061910505872e-05,4.542574242805131e-05
-9.642395525588654e-06,2.7673635486280546e-05,-6.799215043429285e-06,-1.001730743155349e-05,5.2065654017496854e-05
-1.4363468835654203e-05,2.9280421586008742e-05,-6.829423000453971e-06,-1.0998806828865781e-05,5.393469473347068e-05
-2.1069519789307378e-05,2.707274143176619e-05,-2.412831690890016e-06,-1.5840425476199016e-05,5.289048931444995e-05
-2.4880644559743814e-05,2.5807839847402647e-05,3.4540557862783317e-06,-1.9590055671869777e-05,5.131903162691742e-05
-2.591106022009626e-05,2.8160558940726332e-05,7.578960776299937e-06,-1.8638509573065676e-05,5.307942774379626e-05
-2.428178777336143e-05,3.357872992637567e-05,8.0548688856652e-06,-1.88086814887356e-05,5.460033207782544e-05
-2.572595803940203e-05,3.6083431041333824e-05,6.801748440921074e-06,-2.028563540079631e-05,5.3840441978536546e-05
-2.657030381669756e-05,3.516299693728797e-05,7.264462965395069e-06,-1.876887836260721e-05,5.358953058021143e-05
-2.586377195257228e-05,3.416515392018482e-05,1.0070564712805208e-05,-1.476052693760721e-05,5.435445564216934e-05
-2.976524774567224e-05,2.9268963771755807e-05,1.0140262020286173e-05,-1.5261312000802718e-05,5.9162863180972636e-05
-3.0720570066478103e-05,2.7569138183025643e-05,7.557189292128896e-06,-1.4571911378880031e-05,6.300922541413456e-05
-3.0370907552423887e-05,3.1227282306645066e-05,6.386751010722946e-06,-1.1188250937266275e-05,6.072851101635024e-05
-3.4128297556890175e-05,3.2988202292472124e-05,2.235062083855155e-06,-1.1272026313235983e-05,5.91032367083244e-05
-3.8778947782702744e-05,2.505786505935248e-05,-3.51095059158979e-06,-1.302952387050027e-05,5.925096047576517e-05
-3.918782022083178e-05,1.3916582247475162e-05,-8.340996828337666e-06,-1.7342075807391666e-05,5.4889485909370705e-05
-3.372606443008408e-05,1.6392781617469154e-05,-1.1800626452895813e-05,-1.9317929400131106e-05,5.368217171053402e-05
-2.7156962460139766e-05,2.918097197834868e-05,-1.2180179510323796e-05,-2.046662848442793e-05,5.68284303881228e-05
-2.4176293663913384e-05,3.5456479963613674e-05,-1.0345171176595613e-05,-2.2165835616760887e-05,5.941204653936438e-05
-2.640928141772747e-05,2.6624451493262313e-05,-5.57319162908243e-06,-2.3217064153868705e-05,5.940300616202876e-05
-2.9969352908665314e-05,1.5803218047949485e-05,8.491920766573458e-07,-1.9389566659810953e-05,5.7819470384856686e-05
-2.9123195417923853e-05,1.5386613085865974e-05,2.7121056973555824e-06,-1.090194837161107e-05,5.696404696209356e-05
-2.4922561351559125e-05,2.4720828150748275e-05,1.0893094213315635e-06,-4.266223641025135e-06,5.875759234186262e-05
-2.334411874471698e-05,3.1965653761290014e-05,-1.592359581081837e-06,-2.867613829948823e-06,6.243276584427804e-05
-2.4964350814116187e-05,3.249301516916603e-05,-4.938302481605206e-06,-4.223256382829277e-06,6.562608177773654e-05
-2.773097003228031e-05,3.009731153724715e-05,-4.2962024053849746e-06,-6.143439804873196e-06,6.945558561710641e-05
-3.2720396120566875e-05,2.6863293896894902e-05,1.1556243180166348e-06,-8.972473551693838e-06,7.14510097168386e-05
-3.5847871913574636e-05,2.452374428685289e-05,7.344748610194074e-06,-9.973903615900781e-06,7.258221012307331e-05
-3.2649793865857646e-05,2.399231743765995e-05,1.0336037121305708e-05,-8.337775398103986e-06,7.12524342816323e-05
-2.6815372621058486e-05,2.4172268240363337e-05,1.0470209417690057e-05,-5.9629678617056925e-06,6.743490666849539e-05
-2.408432737865951e-05,2.586899972811807e-05,1.0286151336913463e-05,-6.751544788130559e-06,6.401103746611625e-05
-2.3826332835596986e-05,3.148147516185418e-05,1.0202827979810536e-05,-9.159238288702909e-06,6.318921805359423e-05
-2.3452983441529796e-05,3.4751388739096e-05,1.0179056516790297e-05,-1.0256229870719835e-05,6.53856695862487e-05
-2.342141124245245e-05,3.2027997804107144e-05,9.239592145604547e-06,-9.520924322714563e-06,6.67753120069392e-05
-2.536552528908942e-05,2.878535997297149e-05,5.842626251251204e-06,-9.342631528852507e-06,6.575236329808831e-05
-2.7817113732453436e-05,2.8011039830744267e-05,3.718478183145635e-06,-1.006746242637746e-05,6.427180778700858e-05
-2.8482272682595067e-05,2.8308153559919447e-05,5.394113941292744e-06,-1.1513895515236072e-05,6.169499101815745e-05
-3.1890787795418873e-05,2.7068497729487717e-05,6.5236804402957205e-06,-1.222148694068892e-05,6.203534576343372e-05
-3.777525125769898e-05,2.5599420041544363e-05,5.170992608327651e-06,-1.0101834959641565e-05,6.833153020124882e-05
-3.835254756268114e-05,2.5592577003408223e-05,5.269056146062212e-06,-6.528367066493956e-06,7.25045902072452e-05
-3.472304524620995e-05,2.613230208226014e-05,5.6704957387410104e-06,-4.480982624954777e-06,7.057081529637799e-05
-3.426544208195992e-05,2.7910733479075134e-05,7.789379196765367e-06,-1.179597461486992e-06,6.542031042044982e-05
-3.4499375033192337e-05,2.8548738555400632e-05,1.1876015378220472e-05,1.6413650882896036e-06,6.328602466965094e-05
-3.302982804598287e-05,2.6893665562965907e-05,1.0819735507539008e-05,5.764627530879807e-07,6.40741127426736e-05
-3.3812608307925984e-05,2.2762800654163584e-05,5.512688858289039e-06,-1.5586167592118727e-06,6.156924064271152e-05
-3.6353576433612034e-05,2.4084607503027655e-05,4.504583017705954e-08,-5.172294549993239e-06,5.866940409759991e-05
-3.837969052256085e-05,2.697837771847844e-05,-3.5721777749131434e-06,-7.0322757892427035e-06,5.936589150223881e-05
-3.790173286688514e-05,2.9409167837002315e-05,-3.2826396818563808e-06,-8.133772098517511e-06,6.184451194712892e-05
-3.420404391363263e-05,3.059331720578484e-05,-1.72761997419002e-06,-7.082904630806297e-06,6.148649845272303e-05
-2.971702087961603e-05,3.078156805713661e-05,4.933772856929863e-07,-5.558137672778685e-06,6.142011261545122e-05
-2.7893462174688466e-05,3.184937304467894e-05,3.986032879765844e-06,-6.633092198171653e-06,6.463043973781168e-05
-2.834780389093794e-05,3.206980545655824e-05,7.348581675614696e-06,-8.696672921360005e-06,6.610184937017038e-05
-3.0010869522811845e-05,3.14640965370927e-05,9.04474472918082e-06,-9.222087101079524e-06,6.312567711574957e-05
-3.233563984395005e-05,3.1935993320075795e-05,8.861901733325794e-06,-7.946059668029193e-06,5.73940560570918e-05
-3.331634070491418e-05,3.423974339966662e-05,8.70655094331596e-06,-5.955554570391541e-06,5.334831803338602e-05
-2.957267679448705e-05,3.0845694709569216e-05,1.0421304978081025e-05,-3.995442511950387e-06,5.2681782108265907e-05
-2.41251564148115e-05,1.988545773201622e-05,1.3926512110629119e-05,-2.695567673072219e-06,5.274202339933254e-05
-2.416159986751154e-05,7.102406470949063e-06,1.4660654414910823e-05,-7.930196375127707e-07,5.110395068186335e-05
-2.744408993748948e-05,2.4955043045338243e-06,1.0988998838001862e-05,-1.7519737127713597e-07,5.057370071881451e-05
-3.0462495487881824e-05,7.13460030965507e-06,8.187298590200953e-06,-2.3564425646327436e-06,5.428678196039982e-05
-3.0182240152498707e-05,1.6925891031860374e-05,7.030939286778448e-06,-5.104300271341344e-06,5.558501652558334e-05
-2.6143137802137062e-05,2.748800216068048e-05,5.289522960083559e-06,-5.646218596666586e-06,5.0663631554925814e-05
-2.3091683033271693e-05,3.442455636104569e-05,7.314129106816836e-06,-6.0698298511852045e-06,5.008495645597577e-05
-2.11762835533591e-05,3.413188460399397e-05,1.0362863577029202e-05,-5.733929810958216e-06,5.116322063258849e-05
-2.4433667931589298e-05,3.0672683351440355e-05,5.7462161748844665e-06,-4.022564098704606e-06,4.841805639443919e-05
-2.9390874260570854e-05,2.7565081836655736e-05,-2.3251126890500018e-07,-4.0218906178779434e-06,4.6173496230039746e-05
-2.891859730880242e-05,2.760534880508203e-05,6.220332693374075e-07,-4.088354216946755e-06,4.802022158401087e-05
-2.5427121727261692e-05,2.703039899643045e-05,4.333338893047767e-06,-1.972819973161677e-06,5.2365445299074054e-05
-2.314090852451045e-05,2.1605495930998586e-05,1.1596156355153653e-06,-4.0528952922613826e-06,5.377317938837223e-05
-2.175750705646351e-05,1.862089084170293e-05,-8.809161954559386e-06,-1.0176312571275048e-05,5.293328649713658e-05
-2.100006167893298e-05,1.9897695892723277e-05,-1.3590390153694898e-05,-1.4386591828952078e-05,5.1237821026006714e-05
-2.390301597188227e-05,2.126526669599116e-05,-1.1215316590096336e-05,-1.2211339708301239e-05,4.920711580780335e-05
-2.425469756417442e-05,2.112418042088393e-05,-4.238868768879911e-06,-7.947973244881723e-06,4.966832420905121e-05
-2.048691749223508e-05,2.0020272131660022e-05,2.3386849079543026e-06,-6.029268661222886e-06,5.328218685463071e-05
-1.7790393030736595e-05,2.088242217723746e-05,7.129252935555996e-06,-5.157732630323153e-06,5.666651122737676e-05
-1.7097927411668934e-05,2.308769035153091e-05,1.1962643839069642e-05,-4.730141426989576e-06,5.672418774338439e-05
-1.683917253103573e-05,2.510947706468869e-05,1.9558829080779105e-05,-7.938150702102575e-06,5.608210267382674e-05
-1.6304145901813172e-05,2.639842568896711e-05,2.6250374503433704e-05,-1.5399775293190032e-05,5.5362426792271435e-05
-1.5866267858655192e-05,2.8438258595997468e-05,2.6306701329303905e-05,-2.0010313164675608e-05,5.479050014400855e-05
-1.5806552255526185e-05,3.061488314415328e-05,2.3854419850977138e-05,-1.9795115804299712e-05,5.429839438875206e-05
-1.724949288472999e-05,3.0586932552978396e-05,2.370143192820251e-05,-1.926839104271494e-05,5.133334343554452e-05
-1.877073009382002e-05,3.0297273042378947e-05,2.3133532522479072e-05,-2.0172325093881227e-05,4.854569851886481e-05
-1.79074086190667e-05,3.084850322920829e-05,1.637053173908498e-05,-1.860211523307953e-05,4.7812452976359054e-05
-1.751698255247902e-05,2.9568220270448364e-05,5.642359610646963e-06,-1.626366429263726e-05,4.762652315548621e-05
-2.0279481759644113e-05,2.664238309080247e-05,8.523760470779962e-07,-1.7238307918887585e-05,4.915630051982589e-05
-2.246129406557884e-05,2.6581896236166358e-05,6.611390290345298e-06,-1.8552274923422374e-05,5.402902388595976e-05
-2.3981332560651936e-05,2.763545126072131e-05,1.6894990039872937e-05,-1.4890399143041577e-05,5.931092891842127e-05
-2.6497804356040433e-05,2.877108272514306e-05,2.1788484446005896e-05,-1.094534763979027e-05,6.103867781348526e-05
-2.7428475732449442e-05,3.154754449496977e-05,1.6552859960938804e-05,-1.0978592399624176e-05,5.9395842981757596e-05
-2.636268072819803e-05,3.187747279298492e-05,1.4486942745861597e-05,-1.2408561815391295e-05,5.7568289776099846e-05
-2.7183510610484518e-05,3.070553430006839e-05,2.2192545657162555e-05,-1.1859884580189828e-05,5.6689721532166004e-05
-2.8644612029893324e-05,3.269462104071863e-05,2.5365974579472095e-05,-1.1099878065579105e-05,5.842863902216777e-05
-2.5220004317816347e-05,3.53918039763812e-05,1.796595643099863e-05,-1.2150072507211007e-05,5.788023190689273e-05
-2.0106021111132577e-05,3.7674915802199394e-05,1.2532403161458205e-05,-1.4590690625482239e-05,5.582536687143147e-05
-1.8174436263507232e-05,3.842492515104823e-05,1.4587269106414169e-05,-1.28055162349483e-05,5.8512934629106894e-05
-1.7994696463574655e-05,3.9590904634678736e-05,1.8286649719811976e-05,-8.304579750983976e-06,6.292320904321969e-05
-1.5680376236559823e-05,4.000938861281611e-05,1.6686821254552342e-05,-5.172475994186243e-06,6.627624679822475e-05
-1.4869559890939854e-05,4.09551321354229e-05,1.0550468687142711e-05,-4.864301445195451e-06,6.954856507945806e-05
-1.947097189258784e-05,4.196992449578829e-05,3.977885171480011e-06,-7.600217031722423e-06,7.117039785953239e-05
-2.4650118575664237e-05,3.974939318140969e-05,1.0479504908289528e-06,-7.3257856456621084e-06,6.992351700318977e-05
-2.5982368242694065e-05,3.5707420465769246e-05,1.2113318916817661e-06,-4.934372100251494e-06,6.862035661470145e-05
-2.4999355446198024e-05,3.586420643841848e-05,3.2477576041856082e-06,-1.9005758531420724e-06,6.709867739118636e-05
-2.2719052140018903e-05,4.271516081644222e-05,2.308306420673034e-06,-3.8585739048357937e-07,6.51664740871638e-05
-2.1885953174205497e-05,4.7551915486110374e-05,-3.624571263571852e-06,-2.211456376244314e-06,6.382375431712717e-05
-2.476597910572309e-05,4.5580658479593694e-05,-9.192073775921017e-06,-7.225362423923798e-06,6.192363798618317e-05
-2.7316198611515574e-05,4.009055919595994e-05,-1.0376037607784383e-05,-1.0607142030494288e-05,5.905353100388311e-05
-2.6811012503458187e-05,3.573059802874923e-05,-8.695052201801445e-06,-9.928281542670447e-06,5.89019364269916e-05
-2.6028650609077886e-05,3.318431481602602e-05,-9.07872981770197e-06,-6.451287845266052e-06,6.215671601239592e-05
-2.7192341804038733e-05,3.247962013119832e-05,-1.0871878657781053e-05,-4.4074186007492244e-06,6.50958318146877e-05
-2.907374619098846e-05,3.1067993404576555e-05,-1.075508953363169e-05,-8.582537702750415e-06,6.561617192346603e-05
-3.091515463893302e-05,2.9861113944207318e-05,-7.835867108951788e-06,-1.5215519852063153e-05,6.358324026223272e-05
-3.3869822800625116e-05,3.266005660407245e-05,-3.3062221973523265e-06,-1.6627767763566226e-05,6.025498078088276e-05
-3.732842014869675e-05,3.776174344238825e-05,9.472014426137321e-07,-1.3919922821514774e-05,5.585890539805405e-05
-3.4594246244523674e-05,4.1556511860108e-05,1.7552281406096881e-06,-1.3976127775094938e-05,5.283144855638966e-05
-2.684840546862688e-05,4.070399882039055e-05,-9.891107310977532e-07,-1.614213761058636e-05,5.371271981857717e-05
-2.1177995222387835e-05,3.79153570975177e-05,-5.96766540184035e-06,-1.5249148418661207e-05,5.7866182032739744e-05
-1.8628576071932912e-05,3.73200309695676e-05,-7.360255494859302e-06,-1.2486775631259661e-05,6.168100662762299e-05
-1.861069722508546e-05,3.6645244108513e-05,-2.8061424472980434e-06,-1.0356153325119521e-05,6.385856249835342e-05
-1.8403825379209593e-05,3.1562212825519964e-05,2.5198971798090497e-06,-9.828404472500551e-06,6.543929339386523e-05
-1.7656564523349516e-05,2.2207803340279497e-05,1.072945792657265e-06,-1.1603725397435483e-05,6.49058711132966e-05
-1.4862195712339599e-05,1.4464958439930342e-05,2.089781219183351e-07,-1.0988246685883496e-05,6.575467705260962e-05
-1.2796310329576954e-05,1.2542207514343318e-05,1.9606325167842442e-06,-8.92846037459094e-06,6.67999847792089e-05
-1.483094001741847e-05,1.7889873561216518e-05,5.17939997735084e-06,-8.287395758088678e-06,6.764088902855292e-05
-1.6104317182907835e-05,2.282687637489289e-05,6.666228728136048e-06,-8.92252501216717e-06,6.900112930452451e-05
-1.803623490559403e-05,2.1879319319850765e-05,4.211872692394536e-06,-1.053114374371944e-05,6.672172457911074e-05
-1.962721762538422e-05,1.988659096241463e-05,2.8093143100704765e-06,-1.3772756574326195e-05,6.291757745202631e-05
-2.0584937374223955e-05,2.007724469876848e-05,3.781871555474936e-06,-1.669169796514325e-05,6.020885848556645e-05
-2.0048068108735606e-05,2.2120018911664374e-05,7.3834657996485475e-06,-1.710567630652804e-05,5.905242505832575e-05
-2.0335066437837668e-05,2.4569731976953335e-05,9.686811608844437e-06,-1.4013439795235172e-05,5.907598097110167e-05
-2.0834246242884547e-05,2.5667870431789197e-05,9.838456207944546e-06,-1.10823311842978e-05,5.847941429237835e-05
-1.8838554751710035e-05,2.3612208678969182e-05,9.5942496045609e-06,-1.1624444596236572e-05,5.693695129593834e-05
-1.611520019650925e-05,2.0302557459217496e-05,1.0729197128966916e-05,-1.2215853530506138e-05,5.5035077821230516e-05
-1.830284236348234e-05,1.9445016732788645e-05,9.244143257092219e-06,-8.734422408451792e-06,5.256989970803261e-05
-2.468357160978485e-05,1.7278945961152203e-05,4.899888608633773e-06,-5.021079232392367e-06,5.2745828725164756e-05
-2.5865638235700317e-05,1.2754117051372305e-05,1.6062638223957038e-06,-5.8097762121178675e-06,5.653312473441474e-05
-2.026940455834847e-05,1.3436897461360786e-05,1.9946439806517446e-06,-7.142422418837668e-06,6.056681013433263e-05
-1.4814541827945504e-05,1.947239798028022e-05,4.092028575541917e-06,-8.56665337778395e-06,6.025214315741323e-05
-1.3969920473755337e-05,2.294223304488696e-05,5.516874352906598e-06,-1.215185875480529e-05,5.8250920119462535e-05
-1.4261685464589391e-05,2.303523251612205e-05,4.743097633763682e-06,-1.3264869267004542e-05,5.905938087380491e-05
-1.4070163160795346e-05,2.2595329937757924e-05,2.5798692604439566e-06,-1.0411998118797783e-05,6.048787690815516e-05
-1.273039379157126e-05,2.0375577150844038e-05,-4.2931404209411994e-07,-9.271844646718819e-06,5.9652080381056294e-05
-1.0647976523614489e-05,1.6683849025866948e-05,-2.7934802346862853e-06,-8.70475560077466e-06,5.754750964115374e-05
-9.996865628636442e-06,1.5143135897233151e-05,-1.591174054738076e-06,-7.475186066585593e-06,5.8059067669091746e-05
-1.6061489077401347e-05,1.7879992810776457e-05,-1.1354011348885251e-06,-7.618001745868241e-06,5.99602863076143e-05
-2.4865605155355297e-05,1.948935641848948e-05,-7.752972663865876e-08,-6.087615474825725e-06,6.192446744535118e-05
-3.2147007004823536e-05,1.779399644874502e-05,5.102519480715273e-06,-4.001317392976489e-06,6.170278356876224e-05
-3.7255023926263675e-05,1.4055763131182175e-05,5.499963208421832e-06,-5.439279902930139e-06,5.9901773056481034e-05
-3.9415015635313466e-05,9.869921996141784e-06,1.367033519272809e-06,-7.856022421037778e-06,5.89828377997037e-05
-3.910886152880266e-05,9.59766111918725e-06,-1.6791608459243434e-07,-8.792354492470622e-06,6.013022721162997e-05
-4.006357630714774e-05,1.570003223605454e-05,-1.0361743534303969e-06,-5.588363819697406e-06,6.239877257030457e-05
-4.1455572500126436e-05,2.3513301130151376e-05,-1.860032739386952e-06,-3.005710823344998e-06,6.250935257412493e-05
-4.1122420952888206e-05,2.8601465601241216e-05,7.632696110704273e-07,-3.6378596632857807e-06,5.946980672888458e-05
-4.159405216341838e-05,3.255561750847846e-05,3.5863645280187484e-06,-6.032111286913278e-06,5.425822382676415e-05
-4.17848932556808e-05,3.4572865843074396e-05,1.6122637589432998e-06,-8.122017788991798e-06,5.1378257921896875e-05
-4.016008097096346e-05,3.447807830525562e-05,-3.4210586363769835e-08,-9.735461389936972e-06,4.994841947336681e-05
-3.701979585457593e-05,3.70333218597807e-05,3.4302483982173726e-06,-1.2078338841092773e-05,4.932253068545833e-05
-3.3805954444687814e-05,4.072380397701636e-05,9.655647772888187e-06,-1.0902283975156024e-05,5.0493872549850494e-05
-3.206837936886586e-05,3.87192121706903e-05,1.1382783668523189e-05,-6.5991443989332765e-06,5.36091611138545e-05
-3.218038909835741e-05,3.195445970050059e-05,7.57085217628628e-06,-3.7531567613768857e-06,5.385157055570744e-05
-3.2921816455200315e-05,2.6005729523603804e-05,4.663380877900636e-06,-6.653976925008465e-06,4.9238704377785325e-05
-3.473641845630482e-05,2.081455932056997e-05,5.680574759026058e-06,-1.190108378068544e-05,4.740236181532964e-05
-3.712630132213235e-05,1.9069570043939166e-05,7.453099442500388e-06,-1.633168722037226e-05,5.058829628978856e-05
-3.7322846765164286e-05,2.1475130779435858e-05,8.444632840109989e-06,-1.900103234220296e-05,5.6198889069492e-05
-3.600308991735801e-05,2.4514045435353182e-05,8.91814852366224e-06,-1.8562581317382865e-05,5.83824839850422e-05
-3.5953860788140446e-05,2.5607772840885445e-05,1.0082023436552845e-05,-1.5348254237324e-05,5.3644151194021106e-05
-3.211093644495122e-05,2.3742357370792888e-05,1.2876198525191285e-05,-1.139914365921868e-05,4.905013702227734e-05
-2.5520081180729903e-05,2.4510101866326295e-05,1.3822766959492583e-05,-1.1342948710080236e-05,5.334251909516752e-05
-2.5433611881453544e-05,2.9431852453853935e-05,1.0089759598486125e-05,-1.4759036275791004e-05,5.983981827739626e-05
-2.9433191230054945e-05,3.382884824532084e-05,5.161205081094522e-06,-1.76313678821316e-05,5.9667338064173236e-05
-3.0690662242705e-05,3.4789823985192925e-05,3.5678574477060465e-06,-1.9146729755448177e-05,5.36881634616293e-05
-3.167713657603599e-05,3.2839372579474e-05,2.861448820112855e-06,-2.225726711913012e-05,4.9056772695621476e-05
-3.551633199094795e-05,3.117493542958982e-05,2.825934416250675e-06,-2.6457439162186347e-05,4.8109126510098577e-05
-3.7923855416011065e-05,2.932465577032417e-05,6.501019470306346e-06,-2.2718109903507866e-05,5.096114182379097e-05
-3.6805187846766785e-05,2.7506963306223042e-05,6.839678462711163e-06,-1.6964533642749302e-05,5.670130121870898e-05
-3.4976281312992796e-05,2.993751513713505e-05,4.248916411597747e-06,-1.5394118236145005e-05,5.861043609911576e-05
-3.519455640343949e-05,3.440610089455731e-05,2.8751771878887666e-06,-1.7448617654736154e-05,5.773067459813319e-05
-3.7401790905278176e-05,3.607361577451229e-05,2.3884931579232216e-06,-2.140935612260364e-05,5.873501504538581e-05
-3.7957091990392655e-05,3.417089828872122e-05,2.8700553684757324e-06,-2.1885945898247883e-05,6.319417298072949e-05
-3.6209508834872395e-05,3.250667214160785e-05,4.663968411477981e-06,-2.013853008975275e-05,6.645537359872833e-05
-3.189504423062317e-05,3.302223558421247e-05,1.1793234079959802e-05,-1.7964379367185757e-05,6.630171264987439e-05
-2.801814116537571e-05,3.7880385207245126e-05,1.8516981072025374e-05,-1.6176629287656397e-05,6.519522139569744e-05
-2.813748324115295e-05,4.091307710041292e-05,1.9236604202887975e-05,-1.4799053133174311e-05,6.567714444827288e-05
-3.1115963793126866e-05,3.728655065060593e-05,1.734937177388929e-05,-1.6225363651756197e-05,6.567621312569827e-05
-3.38781755999662e-05,3.166413807775825e-05,1.702449117146898e-05,-1.8218446712126024e-05,6.407592445611954e-05
-3.281421959400177e-05,3.15657707687933e-05,1.68931237567449e-05,-1.5889545466052368e-05,6.440061406465247e-05
-2.7492318622535095e-05,3.5400062188273296e-05,1.7553053112351336e-05,-8.182712008419912e-06,6.525835487991571e-05
-2.241396578028798e-05,3.4135478927055374e-05,1.7345742890029214e-05,-3.124813247268321e-06,6.480437878053635e-05
-2.0621020667022094e-05,2.8187077987240627e-05,1.6048677935032174e-05,-3.642985120677622e-06,6.409130583051592e-05
-2.088115070364438e-05,2.378198769292794e-05,1.5120054740691558e-05,-4.065616849402431e-06,6.414094241335988e-05
-2.08830078918254e-05,2.442872391839046e-05,1.4051339348952752e-05,-1.6947515177889727e-06,6.46745102130808e-05
-2.060218139376957e-05,2.830548328347504e-05,1.4497530173684936e-05,-9.63683760346612e-07,6.628985283896327e-05
-2.1608937458950095e-05,3.4227632568217814e-05,1.4695700883748941e-05,-3.792167717620032e-06,6.678693171124905e-05
-2.1177287635509856e-05,3.9187139918794855e-05,1.2204615813971031e-05,-6.9060270107002e-06,6.518708687508479e-05
-1.927364428411238e-05,4.099881334695965e-05,6.67173435431323e-06,-6.903673238412011e-06,6.299586675595492e-05
-1.914855238283053e-05,3.940983515349217e-05,-8.322358553414233e-07,-3.5584148463385645e-06,6.0466540162451565e-05
-1.7873358956421725e-05,3.643833042588085e-05,-4.132227331865579e-06,-2.8865085823781556e-06,6.065411071176641e-05
-1.5818119209143333e-05,3.309336898382753e-05,-3.221706720069051e-06,-3.4529373351688264e-06,5.998092092340812e-05
-1.6367333955713548e-05,2.7742225938709453e-05,-2.540597961342428e-06,-3.283531441411469e-06,5.676263026543893e-05
-1.7093008864321746e-05,2.4999355446198024e-05,-1.7528063267491234e-07,-1.4008942343934905e-06,5.382642484619282e-05
-1.7144368030130863e-05,2.753816806944087e-05,1.5299408460123232e-06,3.188622486050008e-06,5.300487100612372e-05
-1.8695795006351545e-05,3.016997106897179e-05,4.669097052101279e-06,1.8314816543352208e-06,5.261269325274043e-05
-2.0378967747092247e-05,2.8628013751585968e-05,9.522152140561957e-06,-4.095754775335081e-06,5.1914004870923236e-05
-2.0661087546614e-05,2.3846052499720827e-05,1.4518334864987992e-05,-9.566272638039663e-06,5.440777022158727e-05
-2.3930580937303603e-05,2.1994695998728275e-05,1.792633338482119e-05,-1.3345917068363633e-05,5.653373591485433e-05
-2.856306491594296e-05,2.4320115699083544e-05,1.7089443645090796e-05,-1.4073215425014496e-05,5.4943699069553986e-05
-3.229314461350441e-05,2.676720396266319e-05,1.5496741980314255e-05,-1.4164604181132745e-05,5.2538820455083624e-05
-3.026982994924765e-05,2.5108069166890346e-05,1.4112026292423252e-05,-1.23901481856592e-05,5.379254071158357e-05
-2.4821491024340503e-05,2.0861925804638304e-05,1.0852109880943317e-05,-1.3704824596061371e-05,5.4670090321451426e-05
-2.439072704873979e-05,1.6734613382141106e-05,8.99116275832057e-06,-1.9892178897862323e-05,5.4254804126685485e-05
-2.5449513486819342e-05,1.5414136214531027e-05,9.804151886783075e-06,-2.5833749532466754e-05,5.206149580772035e-05
-2.5910740077961236e-05,1.741720552672632e-05,9.738509106682613e-06,-2.7641384804155678e-05,5.045117359259166e-05
-2.5504517907393165e-05,1.940124639077112e-05,6.849655619589612e-06,-2.729657535383012e-05,5.02318398503121e-05
-2.6044010155601427e-05,2.03898707695771e-05,3.905458470399026e-06,-2.6238509235554375e-05,5.1180879381718114e-05
-2.8410180675564334e-05,2.2115156752988696e-05,4.702311343862675e-06,-2.6234471079078503e-05,5.187133501749486e-05
-3.0505012546200305e-05,2.4169727112166584e-05,5.619312560156686e-06,-2.5084389562834986e-05,5.323576260707341e-05
-2.8891277906950563e-05,2.5345543690491468e-05,4.696136329584988e-06,-2.0196152036078274e-05,5.385858457884751e-05
-2.4708813725737855e-05,2.7429656256572343e-05,5.6698268053878564e-06,-1.5366018487839028e-05,5.237118239165284e-05
-2.3301830879063345e-05,2.9811670174240135e-05,6.57584632790531e-06,-1.2811141459678765e-05,5.1160677685402334e-05
-2.562737063271925e-05,3.06962028844282e-05,2.488143763912376e-06,-1.2541549040179234e-05,5.1692459237528965e-05
-2.8345401005935855e-05,3.179452323820442e-05,-1.5669996855649515e-06,-1.5759569578222e-05,5.653969128616154e-05
-2.7397933081374504e-05,3.221985025447793e-05,5.0016900843274925e-08,-2.013987432292197e-05,5.9187605074839666e-05
-2.6750529286800884e-05,2.911833144025877e-05,3.2677141916792607e-06,-2.075836709991563e-05,5.720576154999435e-05
-2.9712919058511034e-05,2.5219709641532972e-05,1.6857582068041665e-06,-1.767609683156479e-05,5.533457806450315e-05
-3.0138064175844193e-05,2.5100849597947672e-05,-1.830479845921218e-06,-1.3068384760117624e-05,5.9379872254794464e-05
-2.7150072128279135e-05,2.8980350180063397e-05,-1.2367013368930202e-06,-9.062987373908982e-06,6.443472375394776e-05
-2.402904829068575e-05,2.9403290682239458e-05,1.7729305454849964e-06,-5.5675109251751564e-06,6.308777665253729e-05
-2.504391704860609e-05,2.958678305731155e-05,1.1128132655358058e-06,-3.271906962254434e-06,5.774152305093594e-05
-2.665252031874843e-05,3.2228366762865335e-05,-9.803384273254778e-07,-2.8917261261085514e-06,5.570402936427854e-05
-2.4034889065660536e-05,3.1882005714578554e-05,-1.1673015478663729e-06,-3.643145646492485e-06,5.629819497698918e-05
-2.068737376248464e-05,3.0658848118036985e-05,-2.1816904336446896e-06,-5.372762188926572e-06,5.7924171414924785e-05
-2.123894591932185e-05,2.9194941816967912e-05,-3.7558704661933007e-06,-6.497833055618685e-06,5.801813313155435e-05
-2.2498985345009714e-05,2.633978147059679e-05,-6.734999260515906e-06,-5.996066192892613e-06,5.766560207121074e-05
-1.9958462871727534e-05,2.4620594558655284e-05,-9.101967407332268e-06,-5.086458259029314e-06,5.670688551617786e-05
-1.7991458662436344e-05,2.656491233210545e-05,-9.746574505697936e-06,-4.3933714550803415e-06,5.4964366427157074e-05
-1.660217640164774e-05,2.9731552785960957e-05,-8.202246135624591e-06,-7.721726433373988e-06,5.397683707997203e-05
-1.6528960259165615e-05,2.8305119485594332e-05,-5.1456063374644145e-06,-1.1415258086344693e-05,5.4812644521007314e-05
-1.5203913790173829e-05,2.6307625375920907e-05,-3.360119762874092e-06,-9.370440238853917e-06,5.540479833143763e-05
-1.4737421224708669e-05,3.0051776775508188e-05,-3.6367730444908375e-06,-1.9600827272370225e-06,5.59981563128531e-05
-1.6650647012284026e-05,3.676226697280072e-05,-5.138638698554132e-06,2.3177281036623754e-06,5.827009954373352e-05
-1.8776365322992206e-05,4.1039824282051995e-05,-6.27869167146855e-06,-3.990939489995071e-07,6.0980048147030175e-05
-2.0083249182789586e-05,4.3360247218515724e-05,-6.2319650169229135e-06,-5.534661795536522e-06,6.478286377387121e-05
-2.2302499928628094e-05,4.545724004856311e-05,-4.325147074268898e-06,-7.85568954597693e-06,6.850556383142248e-05
-2.6557414457784034e-05,4.723294478026219e-05,-1.6042516790548689e-06,-8.336685823451262e-06,6.815632514189929e-05
-2.8333273803582415e-05,4.631560659618117e-05,3.0577442089452234e-07,-9.062690878636204e-06,6.527791992994025e-05
-2.7067069822805934e-05,3.894506153301336e-05,-4.060382821080566e-07,-8.88416343514109e-06,6.517157453345135e-05
-2.467040394549258e-05,2.858369225577917e-05,-1.5387965959234862e-06,-8.156837793649174e-06,6.644547829637304e-05
-2.5586097763152793e-05,2.545039933465887e-05,2.216402208432555e-06,-6.960957307455828e-06,6.824587762821466e-05
-3.14544522552751e-05,2.9236587579362094e-05,7.480698059225688e-06,-6.517207111755852e-06,6.904338806634769e-05
-3.7123318179510534e-05,3.0064318707445636e-05,9.615229828341398e-06,-6.694679996144259e-06,7.046366226859391e-05
-3.779354301514104e-05,2.6827043257071637e-05,8.643433830002323e-06,-5.243410214461619e-06,7.10321546648629e-05
-3.533841299940832e-05,2.569033131294418e-05,7.0169153332244605e-06,-4.008393261756282e-06,6.983902858337387e-05
-3.3294447348453104e-05,3.128466778434813e-05,8.938623977883253e-06,-5.91892649026704e-06,7.168214506236836e-05
-3.3187432563863695e-05,3.786558590945788e-05,7.745283255644608e-06,-3.849169843306299e-06,7.317044219234958e-05
-3.271631067036651e-05,3.7505506043089554e-05,4.858792635786813e-06,9.944734102873554e-08,6.870288052596152e-05
-2.980304998345673e-05,3.4097662137355655e-05,7.860893674660474e-06,-3.316491984151071e-06,6.438738637370989e-05
-2.6899911972577684e-05,3.548702807165682e-05,7.882938916736748e-06,-4.90967477162485e-06,6.435917021008208e-05
-2.845261406037025e-05,3.778588506975211e-05,2.6281825284968363e-06,-1.459273789805593e-06,6.4548832597211e-05
-3.178689439664595e-05,3.6688517866423354e-05,1.645154725338216e-06,-1.7308093447354622e-07,6.38614728813991e-05
-3.1267736630979925e-05,3.3922809961950406e-05,2.6164957489527296e-06,-1.7225673900611582e-06,6.477030547102913e-05
-2.8254002245375887e-05,3.131636185571551e-05,5.1792872000078205e-06,-5.921634055994218e-06,6.680029764538631e-05
-2.6548401365289465e-05,2.8247895897948183e-05,8.56745373312151e-06,-4.359596914582653e-06,6.75992778269574e-05
-2.7894009690498933e-05,2.5256447770516388e-05,1.0873551218537614e-05,1.8688281215872848e-06,6.38660931144841e-05
-3.130664845230058e-05,2.2125410396256484e-05,1.1839323633466847e-05,4.248124696459854e-06,6.214121822267771e-05
-3.3573960536159575e-05,1.790423812053632e-05,1.098125176213216e-05,-6.764926183677744e-07,6.481784657808021e-05
-3.378398469067179e-05,1.3460263289744034e-05,1.1110692867077887e-05,-6.46191620035097e-06,6.83310572640039e-05
-3.455503974691965e-05,1.3996697816764936e-05,1.2284398508199956e-05,-9.155435691354796e-06,6.854187813587487e-05
-3.694034239742905e-05,1.8138742234441452e-05,1.259172768186545e-05,-9.48679826251464e-06,6.684035906801e-05
-3.5621458664536476e-05,2.0229472283972427e-05,1.1081123375333846e-05,-9.544834938424174e-06,6.463196768891066e-05
-3.135412043775432e-05,2.0982988644391298e-05,9.560627404425759e-06,-1.1114005246781744e-05,6.250863225432113e-05
-3.0024637453607284e-05,2.204847442044411e-05,8.171328772732522e-06,-1.254295784747228e-05,6.152980495244265e-05
-3.018560710188467e-05,2.3826451069908217e-05,7.092217856552452e-06,-1.3056645002507139e-05,6.123343337094411e-05
-2.909902104875073e-05,2.5698123863548972e-05,5.038755261921324e-06,-1.330753366346471e-05,6.156361632747576e-05
-2.7922862500417978e-05,2.5001694666570984e-05,4.097189957974479e-06,-1.5298917787731625e-05,6.200387724675238e-05
-2.6070221792906523e-05,2.2440714019467123e-05,5.342937583918683e-06,-1.6109030184452422e-05,6.151360139483586e-05
-2.6931524189421907e-05,1.9954473827965558e-05,6.437919182644691e-06,-1.4516122064378578e-05,6.0374099120963365e-05
-3.3986769267357886e-05,1.8368153178016655e-05,8.183743375411723e-06,-1.2059414075338282e-05,6.121909245848656e-05
-3.8932255847612396e-05,1.940677066158969e-05,1.10397531898343e-05,-1.1231609278183896e-05,6.125953223090619e-05
-3.6445129808271304e-05,2.0895666239084676e-05,1.1869458830915391e-05,-1.2195224371680524e-05,6.08727423241362e-05
-3.297093280707486e-05,2.1982115868013352e-05,1.3203018170315772e-05,-1.1994164196948987e-05,5.972852522972971e-05
-2.7957714337389916e-05,2.255302206322085e-05,1.4483770428341813e-05,-7.231633389892522e-06,5.891545151825994e-05
-2.3222872187034227e-05,2.636791396071203e-05,1.5221034118440002e-05,-7.46610226087796e-07,6.08173904765863e-05
-2.511675666028168e-05,3.1121657229959965e-05,1.5594298020005226e-05,2.783052650556783e-06,6.39791032881476e-05
-2.695795956242364e-05,3.3184242056449875e-05,1.5312836694647558e-05,1.2148171890657977e-06,6.557899178005755e-05
-2.7200590920983814e-05,2.7516263799043372e-05,1.70184484886704e-05,-1.7318761820206419e-06,6.563585338881239e-05
-2.906009649450425e-05,2.0023751858389005e-05,1.6363030226784758e-05,-1.0268443020322593e-06,6.321699038380757e-05
-3.007116356457118e-05,2.2016407456249e-05,1.3133765605743974e-05,3.4520564895501593e-06,6.080630191718228e-05
-2.9720626116613857e-05,2.6308578526368365e-05,9.881519872578792e-06,5.196803158469265e-06,5.8057856222148985e-05
-3.101052061538212e-05,2.7292908271192573e-05,8.615019396529533e-06,1.6650577663313015e-06,5.824242907692678e-05
-3.440636646701023e-05,2.9718619771301746e-05,8.246457582572475e-06,-2.9405234727164498e-06,5.937508467468433e-05
-3.748958988580853e-05,3.399767228984274e-05,7.071004347380949e-06,-4.931771854899125e-06,5.9180652897339314e-05
-3.6470697523327544e-05,3.7156551115913317e-05,5.584297468885779e-06,-4.998647000320489e-06,5.655784116243012e-05
-3.289021333330311e-05,3.6653429560828954e-05,3.01014415526879e-06,-6.025230049999664e-06,5.268936001812108e-05
-2.9434007956297137e-05,3.314351852168329e-05,2.61914033217181e-06,-8.814844477456063e-06,5.215539567871019e-05
-3.0215594961191528e-05,2.9224009267636575e-05,2.956042635560152e-06,-1.1350511158525478e-05,5.396197593654506e-05
-3.3516193070681766e-05,2.6289018933312036e-05,-1.116907242248999e-06,-1.1231732059968635e-05,5.589988359133713e-05
-3.335080327815376e-05,2.4570423192926683e-05,-8.895960490917787e-06,-1.0214166650257539e-05,5.6934244639705867e-05
-2.883031811506953e-05,2.4536186174373142e-05,-1.3979323739476968e-05,-9.29751058720285e-06,5.581463119597174e-05
-2.4960603695944883e-05,2.68885323748691e-05,-1.3909254448662978e-05,-8.465016435366124e-06,5.106013850308955e-05
-2.2860342141939327e-05,2.9020678994129412e-05,-1.2305794371059164e-05,-8.840253940434195e-06,4.6259985538199544e-05
-2.194117769249715e-05,2.9908173019066453e-05,-8.716727279534098e-06,-1.0030596058641095e-05,4.479888593778014e-05
-2.2357322450261563e-05,2.9397831895039417e-05,-2.3602433429914527e-06,-8.721553058421705e-06,4.866127346758731e-05
-2.3471213353332132e-05,2.7175947252544574e-05,1.99269470613217e-06,-6.677426881651627e-06,5.287236854201183e-05
-2.3672195311519317e-05,2.4323593606823124e-05,7.427780701618758e-07,-8.198698196792975e-06,5.479808532982133e-05
-2.2276184608926997e-05,2.6464615075383335e-05,-2.737796648943913e-06,-1.3020132428209763e-05,5.3298652346711606e-05
-2.1685127649107017e-05,3.0194267310434952e-05,-2.5139372610283317e-06,-1.639559013710823e-05,5.07191798533313e-05
-1.694891761871986e-05,3.1169427529675886e-05,-6.471933033935784e-07,-1.6497318938490935e-05,5.284769940772094e-05
-1.0565336197032593e-05,3.1545787351205945e-05,6.197536094987299e-06,-1.2960657841176726e-05,5.325154052115977e-05
-8.824464202916715e-06,2.9355929655139334e-05,1.530434747110121e-05,-9.753795893630013e-06,5.058575698058121e-05
-9.031138688442297e-06,2.961770587717183e-05,1.5348714441643097e-05,-7.684476258873474e-06,5.19079840159975e-05
-7.229564289445989e-06,3.265895793447271e-05,1.2644894923141692e-05,-7.993177860043943e-06,5.230656825006008e-05
-1.1472910955490079e-05,3.109908357146196e-05,1.2685052752203774e-05,-7.930973879410885e-06,5.0661816203501076e-05
-1.967092975974083e-05,2.9251084924908355e-05,1.4683398148918059e-05,-3.992905476479791e-06,5.146926559973508e-05
-2.3371854695142247e-05,2.9084199923090637e-05,1.3766622032562736e-05,-4.3680342969310004e-06,5.692803824786097e-05
-2.251732257718686e-05,3.093015038757585e-05,1.1677591828629375e-05,-5.344689725461649e-06,6.23040396021679e-05
-2.173739812860731e-05,3.282983379904181e-05,9.884962310025003e-06,-3.5109637792629655e-06,6.425886385841295e-05
-2.0559666154440492e-05,3.1263294658856466e-05,8.567744771426078e-06,2.1668065528501756e-06,6.018989734002389e-05
-1.9678473108797334e-05,2.6744226488517597e-05,9.919809599523433e-06,6.9668685682700016e-06,5.3629140893463045e-05
-2.199439040850848e-05,2.4249533453257754e-05,1.0555124390521087e-05,7.667279533052351e-06,5.119283378007822e-05
-2.2456688384409063e-05,2.794043393805623e-05,9.278483958041761e-06,5.174674697627779e-06,5.313532892614603e-05
-1.976667954295408e-05,3.463502798695117e-05,8.075391633610707e-06,1.1668455499602715e-06,5.7278317399322987e-05
-1.797158802219201e-05,3.694899714901112e-05,7.195689249783754e-06,-1.1859186770379893e-06,5.952069113845937e-05
-1.9448496459517628e-05,3.1830892112338915e-05,6.624576144531602e-06,-2.915570803452283e-06,5.788905036752112e-05
-2.0190980649203993e-05,2.779749411274679e-05,8.215315574489068e-06,-5.701881946151843e-06,5.548972694668919e-05
-2.0725836293422617e-05,3.155674858135171e-05,1.0923028639808763e-05,-6.816506811446743e-06,5.272428097669035e-05
-2.2310809072223492e-05,3.934218329959549e-05,1.157665337814251e-05,-2.1622699932777323e-06,5.101097485749051e-05
-2.1369118258007802e-05,4.0577353502158076e-05,8.1028329077526e-06,1.5529325310126296e-06,5.270477049634792e-05
-1.683903974480927e-05,3.491043025860563e-05,3.942106559406966e-06,-2.9867612738598837e-06,5.4688654927304015e-05
-1.4568368897016626e-05,3.205209213774651e-05,3.603933237172896e-06,-9.85055430646753e-06,5.492797208717093e-05
-1.7907173969433643e-05,3.2560143154114485e-05,4.492518655752065e-06,-9.577661330695264e-06,5.2204526582499966e-05
-2.2907699531060643e-05,2.9282018658705056e-05,4.595638984028483e-06,-8.371964213438332e-06,5.0123515393352136e-05
-2.4625811420264654e-05,2.6637984774424694e-05,6.794222827011254e-06,-1.2197769137856085e-05,4.8316476750187576e-05
-2.322844557056669e-05,2.8300324629526585e-05,6.493242835858837e-06,-1.572395740367938e-05,4.9276393838226795e-05
-2.0619352653739043e-05,2.7798898372566327e-05,4.4085077206545975e-06,-1.395791787217604e-05,5.2832005167147145e-05
-2.4082502932287753e-05,2.5861490939860232e-05,5.187542683415813e-06,-1.129548854805762e-05,5.293742651701905e-05
-3.2403280783910304e-05,2.7494750611367635e-05,8.567829354433343e-06,-1.4217545867722947e-05,4.946094850311056e-05
-3.522485712892376e-05,3.049568840651773e-05,1.094543949875515e-05,-2.048845635727048e-05,4.584535781759769e-05
-3.308282248326577e-05,2.9715547498199157e-05,8.235801033151802e-06,-2.1024303350714035e-05,4.692735819844529e-05
-2.972236143250484e-05,2.6025167244370095e-05,4.380792688607471e-06,-1.6500134734087624e-05,5.219783270149492e-05
-2.8928163374075666e-05,2.4579252567491494e-05,5.052965207141824e-06,-1.5010801689641085e-05,5.400684312917292e-05
-3.27230773109477e-05,2.322904038010165e-05,7.009371529420605e-06,-1.997165054490324e-05,5.41808913112618e-05
-3.42121857102029e-05,1.9757751942961477e-05,7.972412277013063e-06,-2.4978580768220127e-05,5.703355782316066e-05
-3.292021210654639e-05,1.537078060209751e-05,8.893059202819131e-06,-2.7409234462538734e-05,6.0765254602301866e-05
-3.189042763551697e-05,1.3835590834787581e-05,9.77861327555729e-06,-2.997749652422499e-05,6.330531323328614e-05
-3.181822830811143e-05,1.5691184671595693e-05,9.769611096999142e-06,-3.364188887644559e-05,6.305466376943514e-05
-3.406004543649033e-05,1.6697435057722032e-05,6.75078626954928e-06,-3.5443732485873625e-05,6.0681308241328225e-05
-3.341861520311795e-05,1.720222644507885e-05,3.763611630347441e-06,-3.6665624065790325e-05,5.895012873224914e-05
-2.8922577257617377e-05,1.7058340745279565e-05,4.002925834356574e-06,-3.858556738123298e-05,5.85524394409731e-05
-2.5511741114314646e-05,1.7718919480103068e-05,7.362250926234992e-06,-3.6717425246024504e-05,5.874663474969566e-05
-2.512568244128488e-05,2.0453251636354253e-05,9.424638847121969e-06,-2.9449687644955702e-05,6.0540118283824995e-05
-2.3956830773386173e-05,2.5135712348856032e-05,8.890679964679293e-06,-2.129755011992529e-05,6.483468314399943e-05
-2.3808228434063494e-05,2.717802271945402e-05,7.305088274733862e-06,-1.917072404467035e-05,6.745674181729555e-05
-2.5791396183194593e-05,2.520754969737027e-05,4.3436093619675376e-06,-2.0926798242726363e-05,6.668360583717003e-05
-2.5355690013384447e-05,2.3554119252366945e-05,2.2967001314100344e-06,-1.990186865441501e-05,6.543390918523073e-05
-2.1904055756749585e-05,2.533437145757489e-05,3.299057425465435e-06,-1.526704363641329e-05,6.311160541372374e-05
-1.9247725504101254e-05,2.9560525945271365e-05,4.5946230784466024e-06,-1.462012187403161e-05,6.118558667367324e-05
-1.9363285900908522e-05,3.3920285204658285e-05,4.211330633552279e-06,-1.8726777852862142e-05,6.212083826540038e-05
-2.1283243768266402e-05,3.703244146890938e-05,3.0170747322699754e-06,-2.2601425371249206e-05,6.578207830898464e-05
-2.3348096874542534e-05,3.639683563960716e-05,2.0285478967707604e-06,-2.3552591301267967e-05,6.64099061395973e-05
-2.61309487541439e-05,3.272305548307486e-05,-1.1688591712299967e-06,-2.193797627114691e-05,6.289705925155431e-05
-2.9354072466958314e-05,3.0237169994506985e-05,-8.979995982372202e-06,-1.8915381588158198e-05,6.172636494738981e-05
-3.1132203730521724e-05,3.10577561322134e-05,-1.439532934455201e-05,-1.7260812455788255e-05,6.382319406839088e-05
-3.1852232496021315e-05,3.301234028185718e-05,-1.392131616739789e-05,-1.4517171621264424e-05,6.408338958863169e-05
-3.349109101691283e-05,3.44164072885178e-05,-7.800595994922332e-06,-1.5180538866843563e-05,6.301953544607386e-05
-3.258079232182354e-05,3.512142211548053e-05,-1.3815364354741178e-06,-1.8460203136783093e-05,6.399105041055009e-05
-3.1528681574855e-05,3.4306875022593886e-05,7.80377661158127e-07,-1.9243387214373797e-05,6.461822340497747e-05
-3.640611976152286e-05,3.305856807855889e-05,1.5124497849683394e-06,-1.9797595086856745e-05,6.201576616149396e-05
-4.035829260828905e-05,3.2278137950925156e-05,9.886057341645937e-07,-1.6626603610347956e-05,5.6879118346842006e-05
-3.9635939174331725e-05,3.13606251438614e-05,2.35894412980997e-06,-1.187571160699008e-05,5.4019608796807006e-05
-3.7013986002421007e-05,2.8442525945138186e-05,4.695139523391845e-06,-9.963552656699903e-06,5.29586905031465e-05
-3.7443558539962396e-05,2.7041651264880784e-05,7.676238965359516e-06,-7.826030923752114e-06,5.190677984501235e-05
-3.668414501589723e-05,3.0818562663625926e-05,7.696989996475168e-06,-4.99483621752006e-06,5.406927812146023e-05
-3.003097117471043e-05,3.367264798725955e-05,5.216011231823359e-06,-4.241833721607691e-06,5.905844591325149e-05
-2.290601514687296e-05,3.305987047497183e-05,6.697051958326483e-06,-3.2155553526536096e-06,6.126654625404626e-05
-2.1970867237541825e-05,2.9812963475706056e-05,1.1669701962091494e-05,1.0943746246994124e-06,6.0344165831338614e-05
-2.4646777092129923e-05,2.895060424634721e-05,1.5694002286181785e-05,6.944073447812116e-06,6.0001231759088114e-05
-2.5953959266189486e-05,3.121576810372062e-05,1.5884148524492048e-05,9.941290954884607e-06,6.197873153723776e-05
-2.74876019830117e-05,3.3867647289298475e-05,1.4957317944208626e-05,9.494810001342557e-06,6.327415758278221e-05
-3.0044551749597304e-05,3.289920641691424e-05,1.3320284779183567e-05,7.69163034419762e-06,6.144025974208489e-05
-3.0686467653140426e-05,2.846057032002136e-05,1.0511179425520822e-05,7.715968422417063e-06,6.089027374400757e-05
-2.9257087589940056e-05,2.603677785373293e-05,8.200910087907687e-06,8.784301826381125e-06,6.201520591275766e-05
-2.7035459424951114e-05,2.5479879695922136e-05,7.707793884037528e-06,8.4703906395589e-06,6.218710041139275e-05
-2.4834434952936135e-05,2.262348607473541e-05,6.6583070292836055e-06,6.069313712941948e-06,6.23471787548624e-05
-2.5885936338454485e-05,2.2427348085329868e-05,3.7075919863127638e-06,3.4838010378734907e-06,6.360197585308924e-05
-2.691349982342217e-05,2.439267154841218e-05,2.142543280569953e-06,1.699259087217797e-06,6.293787737376988e-05
-2.513849176466465e-05,2.280213448102586e-05,5.685388714482542e-06,-1.5618347788404208e-06,6.0714093706337735e-05
-2.532072721805889e-05,2.490435872459784e-05,6.506372301373631e-06,-6.318583018583013e-06,5.868342486792244e-05
-2.692373345780652e-05,3.071012542932294e-05,3.771500360016944e-06,-1.0794842637551483e-05,5.630808664136566e-05
-2.995916293002665e-05,3.510255555738695e-05,1.3301777244123514e-06,-1.2468813110899646e-05,5.585139660979621e-05
-3.325628858874552e-05,3.426534021855332e-05,-1.4804637658016873e-06,-1.1827288290078286e-05,5.706796218873933e-05
-3.259376171627082e-05,2.9663544410141185e-05,-1.7482104794908082e-06,-1.1175997315149289e-05,5.411137317423709e-05
-3.3086409530369565e-05,2.5501843992969953e-05,-8.541022680219612e-07,-1.1810157047875691e-05,4.8171186790568754e-05
-3.4029111702693626e-05,2.6927255021291785e-05,-1.3744187299380428e-07,-1.0983479114656802e-05,4.6462879254249856e-05
-3.122195994365029e-05,3.195385943399742e-05,4.852362849305791e-07,-6.891425528010586e-06,5.015043279854581e-05
-2.5083332729991525e-05,3.3113530662376434e-05,-1.3034277799306437e-06,-3.3285941754002124e-06,5.465877984534018e-05
-1.95988395716995e-05,2.6407606128486805e-05,-5.5481423260062e-06,-1.8375769741396653e-06,5.897432492929511e-05
-1.724944195302669e-05,1.692977821221575e-05,-7.318129519262584e-06,-4.338972757977899e-06,6.033878889866173e-05
-1.9874445570167154e-05,1.1822417945950292e-05,-3.706098823386128e-06,-9.078533366846386e-06,5.844150291522965e-05
-2.5906789232976735e-05,1.158696977654472e-05,-6.493099249382794e-07,-1.0925690730800852e-05,5.669457823387347e-05
-3.0297203920781612e-05,1.696122853900306e-05,-2.67950645138626e-06,-8.501664524374064e-06,5.601367593044415e-05
-2.8650905733229592e-05,2.4817338271532208e-05,-6.538988145621261e-06,-6.339435003610561e-06,5.59466025151778e-05
-2.2999998691375367e-05,3.0113553293631412e-05,-1.016783880913863e-05,-9.83601148618618e-06,5.642812175210565e-05
-1.8292379536433145e-05,3.120408655377105e-05,-9.696903362055309e-06,-1.6097119441838004e-05,5.7847217249218374e-05
-1.655591586313676e-05,3.0715764296473935e-05,-5.066514859208837e-06,-1.7591746654943563e-05,5.8625879319151863e-05
-1.6687339666532353e-05,2.944568950624671e-05,3.150850034217001e-07,-1.3699183000426274e-05,5.898439485463314e-05
-1.7498907254775986e-05,2.843798210960813e-05,4.338600774644874e-06,-1.0907688192673959e-05,5.789249189547263e-05
-2.0725623471662402e-05,2.830717494362034e-05,8.286735464935191e-06,-1.1393725799280219e-05,5.6092063459800556e-05
-2.2974871171754785e-05,2.858424704754725e-05,1.1010295565938577e-05,-1.2744722880597692e-05,5.589205102296546e-05
-2.127774860127829e-05,2.7468746338854544e-05,1.1203605026821606e-05,-1.3093876987113617e-05,5.599766882369295e-05
-1.9112674635834992e-05,2.206395765824709e-05,1.1032708243874367e-05,-1.0450774425407872e-05,5.324040830601007e-05
-2.1699099306715652e-05,1.790720853023231e-05,9.817915270105004e-06,-6.340531399473548e-06,5.121514914208092e-05
-2.4659937480464578e-05,1.859763142419979e-05,9.144422620011028e-06,-5.012218025512993e-06,5.0448463298380375e-05
-2.380104524490889e-05,2.035774195974227e-05,1.0588581062620506e-05,-5.407266598922433e-06,4.807618824997917e-05
-2.193431464547757e-05,2.3513968699262477e-05,1.2981845429749228e-05,-8.66782011144096e-06,4.690218702307902e-05
-2.2038842871552333e-05,2.8169157303636894e-05,1.5049000467115548e-05,-1.4392557204701006e-05,5.019934906158596e-05
-2.3113392671803012e-05,3.3434946089982986e-05,1.573862027726136e-05,-1.7391112123732455e-05,5.62760433240328e-05
-2.597429556772113e-05,3.1267798476619646e-05,1.4143591215542983e-05,-1.308765604335349e-05,5.933468128205277e-05
-2.685589606699068e-05,2.5466864826739766e-05,1.1131560313515365e-05,-8.509799044986721e-06,5.7531400670995936e-05
-2.2669226382276975e-05,2.6825457098311745e-05,1.0368841685703956e-05,-7.280245426954934e-06,5.48062744201161e-05
-2.0387584299896844e-05,2.9490011002053507e-05,1.2441096259863116e-05,-5.9395447351562325e-06,5.334136221790686e-05
-2.135570684913546e-05,2.967124237329699e-05,1.3241462511359714e-05,-6.917678547324613e-06,5.251465336186811e-05
-2.502730603737291e-05,2.6997282475349493e-05,1.0742051017587073e-05,-6.097427558415802e-06,5.504816726897843e-05
-3.058298898395151e-05,2.4447188479825854e-05,6.634511009906419e-06,-5.232251169218216e-06,6.0268223023740575e-05
-3.4705051803030074e-05,2.3802371288184077e-05,4.492920197662897e-06,-6.267073331400752e-06,6.48224086035043e-05
-3.615811874624342e-05,2.561034489190206e-05,5.398985649662791e-06,-7.490275038435357e-06,6.791920895921066e-05
-3.604390803957358e-05,2.8156606276752427e-05,7.48952788853785e-06,-8.613010322733317e-06,6.934899283805862e-05
-3.474842742434703e-05,2.9079936211928725e-05,9.29211364564253e-06,-1.0456156815052964e-05,6.849468627478927e-05
-2.985084938700311e-05,2.7857486202265136e-05,9.076346032088622e-06,-1.126638653659029e-05,6.755955109838396e-05
-2.377696910116356e-05,2.794669671857264e-05,8.693046765984036e-06,-1.0308944183634594e-05,7.02785182511434e-05
-2.2684329451294616e-05,2.872846926038619e-05,8.92749540071236e-06,-1.0134280273632612e-05,7.237002864712849e-05
-2.630158996907994e-05,2.5720502890180796e-05,7.703635674261022e-06,-1.1895083844137844e-05,7.164832641137764e-05
-2.9179273042245768e-05,2.089192821586039e-05,5.770942607341567e-06,-1.2157223864051048e-05,7.148642907850444e-05
-2.8387954444042407e-05,2.1147345250938088e-05,5.316004262567731e-06,-8.355365025636274e-06,7.173619815148413e-05
-2.4053390006884e-05,2.6152951249969192e-05,5.939018137723906e-06,-5.165259153727675e-06,7.014533912297338e-05
-2.0893443434033543e-05,3.1968414987204596e-05,6.068289167160401e-06,-6.6175807660329156e-06,6.771308108000085e-05
-2.1667792680091225e-05,3.774334254558198e-05,7.468515377695439e-06,-1.3056125681032427e-05,6.560806650668383e-05
-2.214133746747393e-05,4.014580918010324e-05,9.369941835757345e-06,-1.7706015569274314e-05,6.288228905759752e-05
-2.3111741029424593e-05,3.972897684434429e-05,9.470589247939643e-06,-1.2257944945304189e-05,5.937183232163079e-05
-2.6233865355607122e-05,3.722573092090897e-05,7.736673069302924e-06,-3.0315663934743498e-06,5.564076855080202e-05
-2.9309492674656212e-05,3.138060128549114e-05,6.5401504798501264e-06,-8.458397928734485e-07,5.155101462150924e-05
-2.750656130956486e-05,2.3919013983686455e-05,5.387304099713219e-06,-2.7028600015910342e-06,4.9853009841172025e-05
-2.3189202693174593e-05,2.3142589270719327e-05,6.921868589415681e-06,-6.099920938140713e-06,5.3594067139783874e-05
-1.8535834897193126e-05,2.9540749892476015e-05,1.122030516853556e-05,-7.191493295977125e-06,5.75901212869212e-05
-1.55144625750836e-05,2.995706017827615e-05,1.2413739568728488e-05,-8.310928024002351e-06,5.8423531299922615e-05
-1.765224260452669e-05,2.4886681785574183e-05,1.052417701430386e-05,-1.0881019079533871e-05,5.757731196354143e-05
-2.0845720428042114e-05,2.1967482098261826e-05,8.842988791002426e-06,-9.288222827308346e-06,5.580192737397738e-05
-2.5116647520917468e-05,2.156896334781777e-05,7.794202247168869e-06,-4.352764335635584e-06,5.5506319768028334e-05
-2.8241242034710012e-05,2.3661261366214603e-05,1.8614832697494421e-06,-2.965263547594077e-06,5.516057717613876e-05
-3.161642962368205e-05,2.346789369767066e-05,-8.60243926581461e-06,-6.526989636768121e-06,5.5871681979624555e-05
-3.286238279542886e-05,2.4430479243164882e-05,-1.606058685865719e-05,-1.0116101293533575e-05,5.8928293583448976e-05
-3.160761116305366e-05,2.668358683877159e-05,-1.6182604667847045e-05,-1.2974079254490789e-05,6.0493744967971e-05
-2.8396441848599352e-05,2.9868546334910206e-05,-1.2873270861746278e-05,-1.2408258044160903e-05,6.082261461415328e-05
-2.743690856732428e-05,3.199999264325015e-05,-9.050400876731146e-06,-1.1162338523718063e-05,5.797126505058259e-05
-2.9251214073156007e-05,3.2186235330300406e-05,-4.061434083268978e-06,-1.1303040992061142e-05,5.365362449083477e-05
-2.681548721739091e-05,3.177316102664918e-05,1.6846139487824985e-06,-1.0891025340242777e-05,5.1328508561709896e-05
-2.0436851627891883e-05,3.2839907362358645e-05,9.0856192400679e-06,-8.35767605167348e-06,5.495137156685814e-05
-1.3985118130221963e-05,3.3655949664535e-05,1.7475522327004e-05,-6.39532481727656e-06,6.13027295912616e-05
-1.3354435395740438e-05,2.953022158180829e-05,2.3067019355949014e-05,-1.0549291800998617e-05,6.267612479859963e-05
-1.6325333490385674e-05,2.3749384126858786e-05,2.301221502420958e-05,-1.7457272406318225e-05,5.717135718441568e-05
-2.032070915447548e-05,2.0984649381716736e-05,1.9115026589133777e-05,-1.9844776034005918e-05,4.910354255116545e-05
-2.3985652660485357e-05,2.0866400518571027e-05,1.4795228707953356e-05,-1.7235948689631186e-05,4.506198092713021e-05
-2.7164589482708834e-05,1.695860191830434e-05,1.3036327800364234e-05,-1.7641132217249833e-05,4.499353963183239e-05
-2.5341423679492436e-05,1.4308490790426731e-05,1.27385710584349e-05,-1.9425986465648748e-05,4.529413126874715e-05
-1.964395778486505e-05,1.7545829905429855e-05,1.4782839571125805e-05,-1.4363919945026282e-05,4.579026426654309e-05
-1.4898183508194052e-05,2.1475394532899372e-05,1.7752046915120445e-05,-8.45951035444159e-06,4.995734343538061e-05
-1.645237352931872e-05,2.3692231479799375e-05,1.7488308003521524e-05,-7.853407623770181e-06,5.5615884775761515e-05
-2.376471456955187e-05,2.6750703909783624e-05,1.4749191905139014e-05,-6.713878519803984e-06,5.943559517618269e-05
-2.8796903279726394e-05,3.0510316719301045e-05,8.869370503816754e-06,-1.8887913029175252e-06,6.12172152614221e-05
-2.956249772978481e-05,3.4948814572999254e-05,2.99224075206439e-06,2.238968136225594e-06,5.975008025416173e-05
-2.8081840355298482e-05,3.952295446651988e-05,9.893507240121835e-07,3.0244495974329766e-06,5.741091808886267e-05
-2.547192525526043e-05,4.0861759771360084e-05,1.020433273879462e-06,5.225362656346988e-06,6.154750008136034e-05
-2.4220744307967834e-05,3.986181764048524e-05,9.975617558666272e-07,6.2867138694855385e-06,6.646588008152321e-05
-2.8036729418090545e-05,3.929806189262308e-05,5.029013436796959e-07,6.575665793207008e-06,6.422425212804228e-05
-3.40368460456375e-05,3.924735574400984e-05,-2.1760843083029613e-06,5.871007488167379e-06,5.9239082474960014e-05
-3.2824995287228376e-05,4.191745392745361e-05,-4.416048795974348e-06,8.854497650645499e-07,5.811608207295649e-05
-2.6906762286671437e-05,4.269911732990295e-05,-5.3026551540824585e-06,-2.62654020843911e-06,6.127475353423506e-05
-2.3207767299027182e-05,4.171514228801243e-05,-4.762563094118377e-06,-4.273319518688368e-06,6.318384112091735e-05
-2.22380713239545e-05,3.704550545080565e-05,-2.2246829303185223e-06,-3.672914999697241e-06,6.017398845870048e-05
-2.184587538067717e-05,3.1054019927978516e-05,-1.570787617310998e-06,-5.096773293189472e-06,5.443532427307218e-05
-2.0277650037314743e-05,2.9672461096197367e-05,-4.194684152025729e-06,-9.006955224322155e-06,5.271164627629332e-05
-1.9729412088054232e-05,3.166829628753476e-05,-7.006849500612589e-06,-1.126758252212312e-05,5.685260839527473e-05
-2.0185492758173496e-05,3.49713081959635e-05,-7.467559953511227e-06,-9.498934559815098e-06,6.123376806499436e-05
-2.181843956350349e-05,3.570966873667203e-05,-6.289758857747074e-06,-5.722196419810643e-06,6.228317215573043e-05
-2.2425403585657477e-05,3.451261727605015e-05,-8.897372367755452e-07,-4.2977289922419e-06,6.1002439906587824e-05
-2.2033180357539095e-05,3.190770803485066e-05,4.273620106687304e-06,-5.470611540658865e-06,6.022789602866396e-05
-2.3016793420538306e-05,2.8136038963566534e-05,2.3110860638553277e-06,-5.831992893945426e-06,6.391192437149584e-05
-2.611178206279874e-05,2.4373173800995573e-05,-4.1766161302803084e-06,-4.9320751713821664e-06,7.012802234385163e-05
-2.4905959435272962e-05,2.5901279514073394e-05,-6.912925528013147e-06,-6.574398867087439e-06,7.18267765478231e-05
-2.101172140100971e-05,3.211949660908431e-05,-5.2756990953639615e-06,-1.020210129354382e-05,6.67406857246533e-05
-1.9024206267204136e-05,3.565077349776402e-05,-3.541972318998887e-06,-1.2954477824678179e-05,6.222874799277633e-05
-2.1317493519745767e-05,3.3017899113474414e-05,-1.7979111817112425e-06,-1.5472072846023366e-05,6.192528235260397e-05
-2.8359983843984082e-05,2.943388062703889e-05,2.301896074641263e-06,-2.0140430933679454e-05,5.986965334159322e-05
-3.3456388337071985e-05,2.7379846869735047e-05,5.7596575970819686e-06,-2.5001403628266416e-05,5.69671974517405e-05
-3.4024298656731844e-05,2.4199389372370206e-05,1.8870769054046832e-06,-2.6293133487342857e-05,5.5934287956915796e-05
-3.0883486033417284e-05,2.337457954126876e-05,-4.336410711403005e-06,-2.2631520550930873e-05,5.710247569368221e-05
-2.6521096515352838e-05,2.6091887775692157e-05,-4.703193553723395e-06,-1.9565410184441134e-05,6.078000660636462e-05
-2.5321256543975323e-05,2.7707952540367842e-05,5.212434643908637e-07,-2.0537925593089312e-05,5.9933445299975574e-05
-2.5676272343844175e-05,2.9921113309683278e-05,6.671173650829587e-06,-2.381101694481913e-05,5.925903678871691e-05
-2.511016464268323e-05,3.144689617329277e-05,9.089609193324577e-06,-2.4088372811092995e-05,6.414468225557357e-05
-2.7808624508907087e-05,3.1285962904803455e-05,7.132415703381412e-06,-2.3132824935601093e-05,6.829321500845253e-05
-3.342985291965306e-05,2.851833778549917e-05,7.839687896193936e-06,-2.497432433301583e-05,6.963965279283002e-05
-3.6166515201330185e-05,2.347932240809314e-05,8.614584658062086e-06,-2.5625444322940893e-05,6.908953218953684e-05
-3.385642048669979e-05,2.2025666112313047e-05,8.206249731301796e-06,-2.4971905077109113e-05,6.970461254240945e-05
-3.218200072296895e-05,2.2472628188552335e-05,1.19496944535058e-05,-2.445216705382336e-05,6.851643411209807e-05
-3.231318623875268e-05,2.283342109876685e-05,1.634836917219218e-05,-2.3702228645561263e-05,6.367728929035366e-05
-3.2763062336016446e-05,2.2662961782771163e-05,1.6298854461638257e-05,-2.2180727683007717e-05,5.8790534239960834e-05
-3.50772388628684e-05,1.9899134713341482e-05,1.2817645256291144e-05,-1.7981932614929974e-05,5.7977111282525584e-05
-3.615748573793098e-05,1.8267226550960913e-05,1.1419519069022499e-05,-1.2318844710534904e-05,5.9785463236039504e-05
-3.261277379351668e-05,1.9617669750005007e-05,1.2079226507921703e-05,-6.9774609983142e-06,6.094971104175784e-05
-2.723726720432751e-05,2.2570666260435246e-05,1.2263563803571742e-05,-3.0242326829466037e-06,6.106295040808618e-05
-2.3706837964709848e-05,2.5540002752677538e-05,1.320228875556495e-05,-2.8846254735981347e-06,6.0027887229807675e-05
-2.6419265850563534e-05,2.686634979909286e-05,1.5992471162462607e-05,-6.868026503070723e-06,5.8036101108882576e-05
-3.408433622098528e-05,2.718557334446814e-05,1.7972863133763894e-05,-1.0600898349366616e-05,5.847710417583585e-05
-4.0098373574437574e-05,2.675813448149711e-05,1.6665760995238088e-05,-1.2264726137800608e-05,6.10467977821827e-05
-4.0202336094807833e-05,2.8290076443227008e-05,1.394472928950563e-05,-1.3847745321982075e-05,6.382298306562006e-05
-3.680973168229684e-05,3.08664639305789e-05,1.23530080600176e-05,-1.54851713887183e-05,6.559334724443033e-05
-3.3343243558192626e-05,3.090002792305313e-05,1.0632843441271689e-05,-1.5974099369486794e-05,6.42656086711213e-05
-3.270546949352138e-05,3.1379106076201424e-05,1.0980027582263574e-05,-1.3032513379584998e-05,6.432076770579442e-05
-3.441239823587239e-05,3.35703298333101e-05,1.3614709132525604e-05,-9.846311513683759e-06,6.569076504092664e-05
-3.509701127768494e-05,3.4619988582562655e-05,1.0012882739829365e-05,-1.0324414688511752e-05,6.47815759293735e-05
-3.488324364298023e-05,3.202978041372262e-05,3.1116101126826834e-06,-1.2712592251773458e-05,5.93345430388581e-05
-3.303908306406811e-05,2.7974863769486547e-05,6.948788495719782e-07,-1.4538103641825728e-05,5.3098410717211664e-05
-2.9345721486606635e-05,2.900513391068671e-05,9.625561006032513e-07,-1.6224112187046558e-05,5.3607789595844224e-05
-2.473436870786827e-05,3.3405751310056075e-05,-6.772409051336581e-07,-1.6634727217024192e-05,5.84467634325847e-05
-2.2649433958576992e-05,3.4596447221701965e-05,-7.369765626208391e-06,-1.7128590116044506e-05,6.038141145836562e-05
-2.2434800484916195e-05,2.8889953682664782e-05,-1.4040811038285028e-05,-2.1676481992471963e-05,5.907694867346436e-05
-2.3557473468827084e-05,2.4382927222177386e-05,-1.4924681636330206e-05,-2.4864559236448258e-05,5.705586227122694e-05
-2.4903882149374112e-05,2.1868378098588437e-05,-1.586141479492653e-05,-2.3183474695542827e-05,5.472646080306731e-05
-2.4740533262956887e-05,1.7179276255774312e-05,-1.880653144326061e-05,-2.020100328081753e-05,5.1993461966048926e-05
-2.5328143237857148e-05,1.5809435353730805e-05,-1.3450518054014537e-05,-1.8728482245933264e-05,5.265899017103948e-05
-2.7689995476976037e-05,2.138958006980829e-05,3.841014120098407e-07,-1.9317985788802616e-05,5.587943087448366e-05
-2.775808025035076e-05,2.931684321083594e-05,1.0524899153097067e-05,-2.2292810172075406e-05,5.7936307712225243e-05
-2.4037608454818837e-05,3.250870213378221e-05,1.3290498827700503e-05,-2.3389449779642746e-05,5.995190076646395e-05
-2.2445883587352e-05,3.1966665119398385e-05,1.5061370504554361e-05,-2.1415531591628678e-05,6.117844895925373e-05
-2.5991519578383304e-05,2.9694227123400196e-05,2.0257690266589634e-05,-1.7995003872783855e-05,6.0521255363710225e-05
-2.709245563892182e-05,2.5102826839429326e-05,2.452111766615417e-05,-1.6110991055029444e-05,5.885101927560754e-05
-2.1331430616555735e-05,2.275823862873949e-05,2.5739196644281037e-05,-1.9018707462237217e-05,5.7814242609310895e-05
-1.4666266906715464e-05,2.432326800771989e-05,2.7229934858041815e-05,-2.04832340386929e-05,5.93971781199798e-05
-1.0875844964175485e-05,2.5732993890414946e-05,2.8031434339936823e-05,-1.762114516168367e-05,6.186533573782071e-05
-7.346167876676191e-06,2.772577863652259e-05,2.7435173251433298e-05,-1.1725372132787015e-05,6.291615864029154e-05
-6.105387001298368e-06,3.0793369660386816e-05,2.6111258193850517e-05,-8.083268767222762e-06,6.071585448808037e-05
-9.96243306872202e-06,3.141676279483363e-05,2.483865864633117e-05,-8.720107871340588e-06,5.855542985955253e-05
-1.5329980669775978e-05,3.0154742489685304e-05,2.2598305804422125e-05,-8.821670235192869e-06,5.86313362873625e-05
-1.9369730580365285e-05,3.050455779884942e-05,1.7975180526264012e-05,-4.235591404722072e-06,6.095465141697787e-05
-2.231075632153079e-05,2.9773646019748412e-05,1.4152055882732384e-05,-3.552464136191702e-07,6.401904101949185e-05
-2.5127921617240645e-05,3.0186620278982446e-05,1.551180685055442e-05,-2.0545360257528955e-06,6.181605567689985e-05
-2.5786235710256733e-05,3.296367867733352e-05,1.8612450730870478e-05,-6.874372957099695e-06,5.971753489575349e-05
-2.4673234293004498e-05,3.459386789472774e-05,1.6118456187541597e-05,-8.698955753061455e-06,6.239306821953505e-05
-2.2711014025844634e-05,3.493175972835161e-05,8.697964403836522e-06,-6.67450967739569e-06,6.151582056190819e-05
-2.230964855698403e-05,3.146570088574663e-05,4.385189640743192e-06,-4.880829692410771e-06,5.69895637454465e-05
-2.867087459890172e-05,2.6944439014187083e-05,4.0608179006085265e-06,-5.115993644722039e-06,5.537126344279386e-05
-3.553793067112565e-05,2.7606860385276377e-05,4.0455591943100444e-07,-6.972531991777942e-06,5.512397547136061e-05
-3.680850932141766e-05,2.5121258659055457e-05,-2.1298310457495973e-06,-8.648279617773369e-06,5.474789213621989e-05
-3.567571548046544e-05,1.853057801781688e-05,1.007799937724485e-06,-9.267810128221754e-06,5.369220889406279e-05
-3.1159746868070215e-05,1.6058922483352944e-05,2.826518766596564e-06,-6.937055786693236e-06,5.1794108003377914e-05
-3.0277928090072237e-05,1.765931665431708e-05,1.3451887070914381e-06,-7.46484283808968e-06,5.151930236024782e-05
-3.2329175155609846e-05,1.7756437955540605e-05,-1.918423095048638e-06,-7.806298526702449e-06,5.335491368896328e-05
-3.154369551339187e-05,1.773296025930904e-05,-3.999930868303636e-06,-7.814249329385348e-06,5.517622776096687e-05
-3.0275945391622372e-05,2.2568974600289948e-05,-3.312110038677929e-06,-1.1450381862232462e-05,5.6370576203335077e-05
-3.1714585929876193e-05,2.5859362722258084e-05,-1.312969516220619e-06,-1.2148871974204667e-05,5.597538620349951e-05
-3.398332410142757e-05,2.579567262728233e-05,-1.002405610961432e-06,-1.1163553608639631e-05,5.498023529071361e-05
-3.236646080040373e-05,2.5494073270238005e-05,-2.441976675982005e-06,-1.3851352377969306e-05,5.5420619901269674e-05
-3.1002149626147e-05,2.6508409064263105e-05,-3.924963039025897e-06,-1.647981298447121e-05,5.510843402589671e-05
-2.9430088034132496e-05,2.7930771466344595e-05,-5.387566943682032e-06,-1.568201150803361e-05,5.373660314944573e-05
-2.5084984372369945e-05,2.9548522434197366e-05,-4.689626166509697e-06,-1.3552882592193782e-05,5.283866266836412e-05
-1.813265225791838e-05,2.939158002845943e-05,-1.2662125072893105e-06,-1.1012078175554052e-05,5.127552503836341e-05
-1.4297718735178933e-05,2.713876347115729e-05,3.438056864979444e-06,-1.0461329111421946e-05,4.994673145120032e-05
-1.542928657727316e-05,2.712665627768729e-05,4.490170340432087e-06,-1.229737881658366e-05,5.00829701195471e-05
-1.8355287465965375e-05,2.9074997655698098e-05,5.936685738561209e-07,-1.3746286640525796e-05,5.146433613845147e-05
-2.0880646843579598e-05,2.9067659852444194e-05,-3.889539129886543e-06,-1.3356086128624156e-05,5.366834739106707e-05
-2.3051628886605613e-05,2.8532884243759327e-05,-4.031983280583518e-06,-1.1953874491155148e-05,5.785646862932481e-05
-2.4791206669760868e-05,2.940293779829517e-05,-1.4335813602883718e-07,-1.1396997251722496e-05,6.276170461205766e-05
-3.006497718160972e-05,2.747223334154114e-05,1.7502139826319763e-06,-1.2291512575757224e-05,6.40194775769487e-05
-3.63116996595636e-05,2.3967990273376927e-05,-1.4922130731065408e-06,-1.0635420949256513e-05,6.31499569863081e-05
-3.291663233540021e-05,2.3540149413747713e-05,-2.933301630037022e-06,-7.5941538852930535e-06,6.546529766637832e-05
-2.5162102247122675e-05,2.5342362278024666e-05,-4.359788761121308e-07,-8.482214070681948e-06,6.85752893332392e-05
-2.519182817195542e-05,2.877810038626194e-05,6.832692633906845e-07,-8.625655937066767e-06,6.715218478348106e-05
-2.841501191142015e-05,2.9569559046649374e-05,1.8127000203094212e-06,-7.908774932730012e-06,6.421406578738242e-05
-2.6362775315647013e-05,2.5305687813670374e-05,5.776408670499222e-06,-7.349658972088946e-06,6.40324578853324e-05
-2.4237848265329376e-05,2.008355841098819e-05,8.858924957166892e-06,-5.507494279299863e-06,6.313175254035741e-05
-2.4184317226172425e-05,1.8243716112920083e-05,7.763560461171437e-06,-6.648877842962975e-06,6.205911631695926e-05
-2.5672248739283532e-05,2.2383928808267228e-05,6.272138762142276e-06,-9.166837116936222e-06,6.270629819482565e-05
-2.3942206098581664e-05,2.6755809813039377e-05,6.745264727214817e-06,-9.818139915296342e-06,6.297004438238218e-05
-2.2983631424722262e-05,2.866135946533177e-05,8.687436093168799e-06,-8.330399396072607e-06,6.29452260909602e-05
-2.545268216636032e-05,2.6708388759288937e-05,8.420755875704344e-06,-8.068548595474567e-06,6.164403021102771e-05
-2.5339817511849105e-05,2.434325506328605e-05,5.339650670066476e-06,-8.498154784319922e-06,6.025487164151855e-05
-2.55510130955372e-05,2.4478531486238353e-05,4.764191089634551e-06,-7.151998033805285e-06,5.9343568864278495e-05
-3.0278102713054977e-05,2.5713079594424926e-05,7.251492206705734e-06,-5.30534407516825e-06,6.0347290855133906e-05
-3.192560325260274e-05,2.7955697078141384e-05,8.064431312959641e-06,-3.6241210636944743e-06,6.217170448508114e-05
-2.6309257009415887e-05,3.204551467206329e-05,6.079343165765749e-06,-2.8937267870787764e-06,6.290401506703347e-05
-1.8597846064949408e-05,3.604844823712483e-05,5.009087544749491e-06,-5.1880510909541044e-06,6.284174742177129e-05
-1.3869940630684141e-05,3.507061046548188e-05,6.326923539745621e-06,-1.2252065062057227e-05,6.0899314121343195e-05
-1.4790015484322794e-05,3.0897968827048317e-05,7.947312042233534e-06,-1.7910591850522906e-05,5.984373274259269e-05
-1.835580223996658e-05,2.787807534332387e-05,7.934471796033904e-06,-1.5638323020539246e-05,6.141451740404591e-05
-2.1146168364793994e-05,2.9338703825487755e-05,6.874692644487368e-06,-9.118403795582708e-06,6.134173600003123e-05
-2.2655513021163642e-05,3.274220216553658e-05,5.995249466650421e-06,-7.410108537442284e-06,5.988551856717095e-05
-2.3127629901864566e-05,3.2813550205901265e-05,4.598296527547063e-06,-1.082145990949357e-05,5.946631790720858e-05
-2.165760270145256e-05,2.8388685677782632e-05,3.985403964179568e-06,-1.352907383989077e-05,5.900663018110208e-05
-2.084005973301828e-05,2.504881013010163e-05,7.066671969369054e-06,-1.3155309716239572e-05,5.8601286582415923e-05
-2.0096933440072462e-05,2.7170623070560396e-05,8.991588401841e-06,-1.262146088265581e-05,6.178147305035964e-05
-1.5824203728698194e-05,3.279845623183064e-05,7.008346983639058e-06,-1.2609089935722295e-05,6.606984243262559e-05
-8.2146134445793e-06,3.626415127655491e-05,2.155213678634027e-06,-1.3156516615708824e-05,6.416995165636763e-05
-4.609461029758677e-06,3.2092004403239116e-05,-2.5978185931307962e-06,-1.532815076643601e-05,6.0981787100899965e-05
-7.896838724263944e-06,2.393061004113406e-05,-2.144599875464337e-06,-1.585182144481223e-05,5.8702833484858274e-05
-1.4555675988958683e-05,2.0825413230340928e-05,4.0123768485500477e-07,-1.1695044122461695e-05,5.58649335289374e-05
-1.77882920979755e-05,2.689328175620176e-05,6.16712270584685e-07,-7.237533736770274e-06,5.56085942662321e-05
-1.9558716303436086e-05,3.4608216083142906e-05,-2.8051124445482856e-06,-7.564967290818458e-06,5.502617568708956e-05
-2.1992691472405568e-05,3.631020081229508e-05,-5.351148047338938e-06,-9.084977136808448e-06,5.351425352273509e-05
-2.3300768589251675e-05,3.715481216204353e-05,-5.251122274785303e-06,-9.966230209101923e-06,5.487005182658322e-05
-2.543827758927364e-05,3.493182884994894e-05,-1.685564825493202e-06,-9.832109753915574e-06,5.6007153034443036e-05
-3.052429383387789e-05,2.8723883588099852e-05,1.9644646727101645e-06,-7.476638984371675e-06,5.7322289649164304e-05
-3.483684122329578e-05,2.5017314328579232e-05,3.4757024423015537e-06,-3.214838898202288e-06,6.167458195704967e-05
-3.258248034399003e-05,2.8009140805806965e-05,5.369261089072097e-06,4.425301369792578e-07,6.680146907456219e-05
-2.8936821763636544e-05,3.214120079064742e-05,7.548791018052725e-06,3.4570014122436987e-06,6.837542605353519e-05
-2.5612716854084283e-05,3.2246229238808155e-05,8.481526492687408e-06,3.856237981381128e-06,6.712598406011239e-05
-2.3176788090495393e-05,3.261938763898797e-05,7.091890438459814e-06,-8.170391652129183e-07,6.689675501547754e-05
-2.0815079551539384e-05,3.45069493050687e-05,4.696375526691554e-06,-5.020102889830014e-06,6.545424548676237e-05
-1.9971110305050388e-05,3.442913293838501e-05,6.755971071470412e-07,-3.917008598364191e-06,6.178272451506928e-05
-2.180094634240959e-05,3.10777104459703e-05,-9.01754333426652e-07,-4.559349235933041e-07,5.598053758149035e-05
-2.4856333766365424e-05,2.824812509061303e-05,6.687904487989726e-07,4.163300104664813e-07,5.111304562888108e-05
-2.6918281946564093e-05,2.781409421004355e-05,3.328410912217805e-06,-1.6150727333297255e-06,5.003832484362647e-05
-2.893611235776916e-05,2.9090648240526207e-05,6.938358183106175e-06,-3.885019850713434e-06,5.193056495045312e-05
-2.991434303112328e-05,3.0589286325266585e-05,1.0666166417649947e-05,-5.952435458311811e-06,5.354181848815642e-05
-2.62675057456363e-05,3.248450957471505e-05,1.2615208106581122e-05,-6.244757514650701e-06,5.3345211199484766e-05
-2.301316271768883e-05,3.431036384426989e-05,1.333408636128297e-05,-2.829342292898218e-06,5.059470277046785e-05
-2.6865263862418942e-05,3.45397784258239e-05,1.2629418961296324e-05,4.84656027310848e-07,4.715019531431608e-05
-3.253229078836739e-05,3.1195933843264356e-05,1.0270550774293952e-05,-1.3099306670483202e-06,4.7403984353877604e-05
-3.314683635835536e-05,2.914595461334102e-05,8.604157301306259e-06,-6.707748070766684e-06,5.0009195547318086e-05
-3.4692653571255505e-05,2.9351276680245064e-05,9.967054211301729e-06,-9.14091469894629e-06,4.961235754308291e-05
-3.775997902266681e-05,3.0332366804941557e-05,1.3843925444234628e-05,-9.817111276788637e-06,4.881666609435342e-05
-3.8708909414708614e-05,3.4164037060691044e-05,1.555850940349046e-05,-1.2160276128270198e-05,4.949017602484673e-05
-3.708045187522657e-05,3.4928572858916596e-05,1.2192291251267307e-05,-1.2067847819707822e-05,4.8941088607534766e-05
-3.403177470318042e-05,2.377413329668343e-05,1.026069548970554e-05,-1.0928816664090846e-05,4.768675717059523e-05
-3.1972031138138846e-05,1.4780888704990502e-05,1.3241853594081476e-05,-9.362978744320571e-06,4.789733429788612e-05
-3.3474865631433204e-05,1.876016176538542e-05,1.548844920762349e-05,-4.7967992031772155e-06,5.297429743222892e-05
-3.747631853912026e-05,2.5979963538702577e-05,1.5071169400471263e-05,-1.1940776403207565e-06,5.604933903669007e-05
-4.0740284021012485e-05,3.060820381506346e-05,1.3023401152167935e-05,2.1796163309772965e-06,5.844667612109333e-05
-3.970730540459044e-05,3.314278001198545e-05,1.0110408766195178e-05,2.235603915323736e-06,6.058591679902747e-05
-3.688943252200261e-05,3.4494572901166975e-05,5.51144785276847e-06,-1.4842480595689267e-06,6.018679778208025e-05
-3.4465214412193745e-05,3.383931834832765e-05,1.3106783853800152e-06,-3.5119835501973284e-06,6.09898088441696e-05
-3.29216054524295e-05,3.5575165384216234e-05,-2.8999693313380703e-06,-3.657971546999761e-06,6.19875208940357e-05
-3.331939660711214e-05,3.658124114735983e-05,-5.539548965316499e-06,-7.328476385737304e-06,6.230994040379301e-05
-3.57756762241479e-05,3.1819334253668785e-05,-3.5655993997352198e-06,-1.3619720448332373e-05,5.950143895461224e-05
-3.653878593468107e-05,2.2937785615795292e-05,-4.2574293956931797e-07,-1.7676744391792454e-05,5.640364906867035e-05
-3.325297439005226e-05,1.879668161564041e-05,1.0334892976970877e-06,-1.710827746137511e-05,5.708151729777455e-05
-2.9718037694692612e-05,2.119027340086177e-05,9.90099465525418e-07,-1.2890362995676696e-05,5.8025594626087695e-05
-2.6438832719577476e-05,2.6004108804045245e-05,1.0161667205466074e-06,-1.1970374544034712e-05,5.72495446249377e-05
-2.4634506189613603e-05,2.7172021873411722e-05,7.706391329520557e-07,-1.4669059964944609e-05,5.758335828431882e-05
-2.5043329515028745e-05,2.0963443603250198e-05,-2.7272096758679254e-06,-1.6272069842671044e-05,5.6397824664600194e-05
-2.5866618670988828e-05,1.517684904683847e-05,-1.1934886970266234e-05,-1.4785210623813327e-05,5.197311475058086e-05
-2.7152216716785915e-05,1.6569072613492608e-05,-1.9856825019815005e-05,-1.4124417248240206e-05,4.9681260861689225e-05
-2.8815060431952588e-05,2.164015495509375e-05,-2.0101466361666098e-05,-1.4257859220379032e-05,5.120272908243351e-05
-3.0847786547383294e-05,2.4576966097811237e-05,-1.64173252414912e-05,-1.119633816415444e-05,5.426654752227478e-05
-2.9496124625438824e-05,2.400733865215443e-05,-1.1487077244964894e-05,-7.482879937015241e-06,5.861216413904913e-05
-2.4157539883162826e-05,2.6303296181140468e-05,-4.263273694959935e-06,-9.450328434468247e-06,5.991886791889556e-05
-2.0929441234329715e-05,3.164742520311847e-05,5.237433015281567e-06,-1.415676342730876e-05,5.74167279410176e-05
-1.9061475541093387e-05,3.0225510272430256e-05,1.374027669953648e-05,-1.4716345503984485e-05,5.64138317713514e-05
-1.8561144315754063e-05,2.6457251806277782e-05,2.033501550613437e-05,-1.076839635061333e-05,6.0441670939326286e-05
-1.868012986960821e-05,1.9350774891790934e-05,2.437750117678661e-05,-7.796199497533962e-06,6.308623414952308e-05
-2.1375359210651368e-05,1.54962526721647e-05,2.4617920644232072e-05,-1.2638537555176299e-05,6.141397898318246e-05
-2.715146001719404e-05,1.611120933375787e-05,2.3080132450559177e-05,-2.0870078515144996e-05,6.0956317611271515e-05
-3.0137545763864182e-05,1.7799346096580848e-05,2.1461297365021892e-05,-1.9748995327972807e-05,6.0401041992008686e-05
-2.7379734092392027e-05,2.2727748728357255e-05,1.6909787518670782e-05,-1.4404902685782872e-05,6.0961134295212105e-05
-2.72543456958374e-05,2.3242286260938272e-05,1.1762677786464337e-05,-1.503113981016213e-05,6.042370659997687e-05
-2.9484624974429607e-05,2.4037721232161857e-05,1.0065555215987843e-05,-1.954655999725219e-05,6.042780296411365e-05
-2.975658208015375e-05,2.759705421340186e-05,8.19283195596654e-06,-2.175554254790768e-05,6.196901085786521e-05
-2.9583303330582567e-05,3.096558430115692e-05,5.684311418008292e-06,-1.887009057099931e-05,6.179342744871974e-05
-2.8502541681518778e-05,3.151706914650276e-05,4.083775365870679e-06,-1.606555815669708e-05,5.989951387164183e-05
-2.882098124246113e-05,3.135927545372397e-05,3.8707098610757384e-06,-1.6728801710996777e-05,5.901304029976018e-05
-2.8817825295845978e-05,3.160915366606787e-05,3.1915405998006463e-06,-1.8684970200411044e-05,5.832930401084013e-05
-2.9525945137720555e-05,3.325591387692839e-05,2.4716082407394424e-06,-1.9295321180834435e-05,5.678805609932169e-05
-3.231065420550294e-05,3.7847312341909856e-05,4.358094884082675e-06,-1.885253550426569e-05,5.9514215536182746e-05
-3.540589750627987e-05,4.210249244351871e-05,7.0165710894798394e-06,-1.7621625374886207e-05,6.431293149944395e-05
-3.604864832595922e-05,4.452746725291945e-05,6.418318662326783e-06,-1.6239193428191356e-05,6.63333703414537e-05
-3.343954813317396e-05,4.3140888010384515e-05,3.4366503314231522e-06,-1.540271841804497e-05,6.382701394613832e-05
-2.9164650186430663e-05,3.64742663805373e-05,2.3203751879918855e-06,-1.546763269288931e-05,5.996592517476529e-05
-2.757749280135613e-05,2.811587546602823e-05,5.200377017899882e-07,-1.7310705516138114e-05,5.7551689678803086e-05
-2.8627755455090664e-05,2.448966188239865e-05,-3.1118318020162405e-06,-1.8618105968926102e-05,5.650329330819659e-05
-2.8630900487769395e-05,2.678400596778374e-05,-4.8775746108731255e-06,-1.6364710972993635e-05,5.455417704069987e-05
-2.6260100639774464e-05,3.1287177989725024e-05,-3.912774445780087e-06,-1.2959619198227301e-05,5.361402509151958e-05
-2.4263152226922102e-05,3.2239109714282677e-05,-6.865467980787798e-07,-1.1238363185839262e-05,5.536767639569007e-05
-2.44411585299531e-05,3.0435769076575525e-05,5.537262950383592e-06,-1.0302130249328911e-05,5.955875894869678e-05
-2.4112985556712374e-05,3.0840765248285607e-05,8.84961809788365e-06,-9.1651845650631e-06,6.327911978587508e-05
-2.013298581005074e-05,3.545713843777776e-05,8.261004040832631e-06,-1.2090897143934853e-05,6.293918704614043e-05
