-2.1618008759105578e-05,-1.5383940990432166e-05,4.297910891182255e-06,-1.2761785910697654e-05,5.8542242186376825e-05
-2.5585541152395308e-05,2.0719539861602243e-06,7.611305363752763e-07,-1.6688361938577145e-05,5.8788362366613e-05
-2.945762753370218e-05,1.1271683433733415e-05,-2.019945441134041e-06,-2.159711038984824e-05,6.255516200326383e-05
-3.072949039051309e-05,2.0221059457981028e-05,-4.983361577615142e-06,-2.259729262732435e-05,6.323838897515088e-05
-2.649971065693535e-05,2.755819514277391e-05,-5.951086222921731e-06,-2.329408744117245e-05,6.304751877905801e-05
-2.0818972188862972e-05,2.7647853130474687e-05,-4.566556981444592e-06,-2.5073482902371325e-05,6.17227706243284e-05
-2.1649664631695487e-05,2.3380629500024952e-05,-3.9875731090432964e-06,-2.2974785679252818e-05,5.829081783303991e-05
-2.347356166865211e-05,3.1551880965707824e-05,-8.276056178146973e-06,-2.2581674784305505e-05,5.6040564231807366e-05
-2.1968886358081363e-05,5.502312706084922e-05,-1.8010332496487536e-05,-2.1424373699119315e-05,5.724122092942707e-05
-1.70933963090647e-05,8.60069485497661e-05,-2.6692176106735133e-05,-1.8472475858288817e-05,5.8840858400799334e-05
-1.1569801245059352e-05,0.00010781503078760579,-3.239856960135512e-05,-1.6886211597011425e-05,5.9658697864506394e-05
-1.0267532161378767e-05,0.00010416963777970523,-3.163054498145357e-05,-1.7515425497549586e-05,5.698095264961012e-05
-1.5384895959869027e-05,8.351087308255956e-05,-2.569120806583669e-05,-1.618092392163817e-05,5.371970109990798e-05
-2.4651975763845257e-05,6.599246989935637e-05,-1.5977075236150995e-05,-1.3522284461942036e-05,5.513625728781335e-05
-3.412029764149338e-05,5.213426993577741e-05,-4.69733276986517e-06,-1.3987890270072967e-05,6.0191083321115e-05
-4.026996612083167e-05,2.5021759938681498e-05,4.863200501858955e-06,-1.701811925158836e-05,6.640207720920444e-05
-4.062780863023363e-05,-1.4960563930799253e-05,1.3467871212924365e-05,-1.9197745132260025e-05,7.128260767785832e-05
-4.1030729335034266e-05,-3.5404402296990156e-05,2.134514943463728e-05,-1.9501620045048185e-05,7.12982437107712e-05
-4.475894456845708e-05,-1.453901768400101e-05,2.6584461011225358e-05,-1.8683658709051087e-05,6.78378637530841e-05
-4.9696671339916065e-05,2.2709731638315134e-05,2.7486856197356246e-05,-1.6434647477581166e-05,6.585227674804628e-05
-5.169351425138302e-05,4.183666897006333e-05,2.5755007300176658e-05,-1.432804583600955e-05,6.640802894253284e-05
-4.995663039153442e-05,3.7897210859227926e-05,2.2039572286303155e-05,-1.263885587832192e-05,6.865267641842365e-05
-4.950228685629554e-05,2.769575257843826e-05,1.8579044990474358e-05,-1.1369961612217594e-05,6.905281043145806e-05
-4.9079590098699555e-05,2.5911169359460473e-05,1.4637631466030143e-05,-1.1130973689432722e-05,6.886311894049868e-05
-4.069751230417751e-05,3.303283665445633e-05,1.1301493941573426e-05,-1.096892447094433e-05,6.604851660085842e-05
-2.685163235582877e-05,4.0429371438222006e-05,9.104061064135749e-06,-7.498685135942651e-06,6.294374179560691e-05
-1.2202420293760952e-05,4.35937981819734e-05,7.165590432123281e-06,-5.727380539610749e-06,6.23176310909912e-05
-3.5659968489198945e-07,4.166728103882633e-05,7.51832203604863e-06,-7.126944183255546e-06,6.627749826293439e-05
1.7538449128551292e-06,4.484704550122842e-05,6.515923359984299e-06,-6.495429261121899e-06,6.946215580683202e-05
-6.334797717499896e-07,6.432663940358907e-05,5.168576535652392e-06,-2.2579129108635243e-06,6.675897748209536e-05
-1.074077772500459e-06,7.002344500506297e-05,9.419372872798704e-06,-2.2644796899840003e-06,6.023044988978654e-05
-6.8684539655805565e-06,3.755036959773861e-05,1.8029579223366454e-05,-7.341612672462361e-06,5.634766421280801e-05
-1.648137367737945e-05,-5.957560347269464e-07,2.22400722122984e-05,-8.775155038165394e-06,5.52733035874553e-05
-2.2593525500269607e-05,-9.466880328545813e-06,1.7096876035793684e-05,-6.800393293815432e-06,5.584116661339067e-05
-2.471102743584197e-05,-4.4750599954568315e-06,1.1344865924911574e-05,-8.790966603555717e-06,5.788767521153204e-05
-2.5420746169402264e-05,-2.2522661311086267e-05,8.017188520170748e-06,-1.2441701983334497e-05,5.729476106353104e-05
-2.645911263243761e-05,-4.745975820696913e-05,5.130392310093157e-06,-1.4361792636918835e-05,5.7161472795996815e-05
-2.9598113542306237e-05,-4.550510857370682e-05,1.935651425810647e-06,-1.3531252079701517e-05,5.772516306024045e-05
-3.349281178088859e-05,-2.1428491891128942e-05,8.952732741818181e-07,-1.165115008916473e-05,5.746665920014493e-05
-3.491704410407692e-05,1.0531222187637468e-06,1.1136881994389114e-06,-1.1942178389290348e-05,5.711627454729751e-05
-3.146729795844294e-05,1.430595057172468e-05,1.8435501942803967e-06,-1.3888170542486478e-05,6.036725244484842e-05
-2.6026591513073072e-05,2.496529668860603e-05,6.349433192553988e-07,-1.672985490586143e-05,6.346172449411824e-05
-2.515687810955569e-05,3.579610711312853e-05,-1.5653980653951294e-06,-1.91367889783578e-05,6.376152305165306e-05
-2.787832090689335e-05,4.6494376874761656e-05,-9.55603923102899e-07,-1.922478804772254e-05,6.160753400763497e-05
-2.925710577983409e-05,5.479799074237235e-05,1.5158952919591684e-06,-1.5713018001406454e-05,5.877007424714975e-05
-2.8451138859963976e-05,5.6759457947919145e-05,3.6299168186815223e-06,-1.298989536735462e-05,5.8901514421449974e-05
-2.8039670723956078e-05,5.442113979370333e-05,5.050246727478225e-06,-1.2547650840133429e-05,6.062993998057209e-05
-2.8154456231277436e-05,5.3727861086372286e-05,5.06405922351405e-06,-1.3535376638174057e-05,6.008123455103487e-05
-3.056002969969995e-05,5.444151611300185e-05,2.3139432414609473e-06,-1.4444331100094132e-05,5.393189348978922e-05
-3.295467104180716e-05,5.343620796338655e-05,1.8377745618636254e-06,-1.2409034752636217e-05,4.5746437535854056e-05
-3.156907405355014e-05,4.848192475037649e-05,4.699211785919033e-06,-1.0328049938834738e-05,4.527639248408377e-05
-2.82195869658608e-05,4.2506595491431653e-05,6.8739814196305815e-06,-1.2574308129842393e-05,5.034992136643268e-05
-2.8874195777461864e-05,3.9680933696217835e-05,5.0773278417182155e-06,-1.3217520063335542e-05,5.236953074927442e-05
-3.385269519640133e-05,3.767714952118695e-05,2.5109263788181124e-06,-1.2672228876908775e-05,4.925145549350418e-05
-3.4575608879094943e-05,3.490541712380946e-05,5.365642209653743e-06,-1.3977576600154862e-05,4.273040030966513e-05
-2.9256059860927053e-05,3.4081564081134275e-05,9.661160220275633e-06,-1.586075813975185e-05,4.2206338548567146e-05
-2.4143420887412503e-05,3.167445902363397e-05,8.86751695361454e-06,-1.6521347788511775e-05,4.750163861899637e-05
-2.4341296011698432e-05,2.8981427021790296e-05,8.935511687013786e-06,-1.1003035979229026e-05,5.0422680942574516e-05
-3.000923607032746e-05,2.9437003831844777e-05,1.2563772543217055e-05,-4.660617378249299e-06,5.016905925003812e-05
-3.56255732185673e-05,3.0980143492342904e-05,1.455338679079432e-05,-4.171602085989434e-06,4.7650759370299056e-05
-3.458710853010416e-05,2.806022712320555e-05,8.41378187033115e-06,-4.8570791477686726e-06,4.6888413635315374e-05
-2.9075554266455583e-05,1.9647977751446888e-05,-2.330138158868067e-06,-5.457887709781062e-06,4.925977918901481e-05
-2.3303722628043033e-05,1.4993452168710064e-05,-1.0331797966500744e-05,-6.357680376822827e-06,5.199938823352568e-05
-1.9242503185523674e-05,2.0897557988064364e-05,-1.2427756701072212e-05,-6.139788638392929e-06,5.5271488236030564e-05
-2.0740209947689436e-05,3.1884745112620294e-05,-9.33094179345062e-06,-4.413853275764268e-06,5.600101940217428e-05
-2.4717284759390168e-05,4.077455378137529e-05,-4.732746674562804e-06,-4.509115569817368e-06,5.351808067644015e-05
-2.833234793797601e-05,4.574508420773782e-05,-1.4532299701386364e-06,-7.850771908124443e-06,5.098922338220291e-05
-3.0757619242649525e-05,5.078782487544231e-05,2.442270215397002e-06,-7.642743184987921e-06,5.3698364354204386e-05
-3.0775321647524834e-05,5.510890332516283e-05,9.842371582635678e-06,-1.1826832633232698e-06,5.7626493799034506e-05
-2.9011964215897024e-05,5.3682058933191e-05,1.980093657039106e-05,4.727740815724246e-06,5.631642125081271e-05
-3.141321940347552e-05,4.8982295993482694e-05,2.512715946068056e-05,5.342632448446238e-06,5.2547973609762266e-05
-3.8695146940881386e-05,4.5267443056218326e-05,2.3398863049806096e-05,3.1453027986572124e-06,5.270462861517444e-05
-4.1690716898301616e-05,4.115166302653961e-05,1.9336979676154442e-05,-1.6600667152033566e-07,5.8705471019493416e-05
-3.6270914279157296e-05,3.28673813783098e-05,1.8316088244318962e-05,-3.5127341106999665e-06,6.261779344640672e-05
-2.9329028620850295e-05,2.489337566657923e-05,1.900219103845302e-05,-5.442288056656253e-06,5.843835242558271e-05
-2.5909354008035734e-05,1.7759941329131834e-05,1.7753976862877607e-05,-7.621423264936311e-06,5.227004294283688e-05
-2.236761065432802e-05,8.250639439211227e-06,2.03316976694623e-05,-8.305581104650628e-06,5.268722816254012e-05
-1.881496427813545e-05,2.6508269002079032e-06,2.4338236471521668e-05,-4.868060386797879e-06,5.735213198931888e-05
-1.977435385924764e-05,8.73327735462226e-06,2.061451414192561e-05,-2.177451733587077e-06,5.9875375882256776e-05
-2.5524857846903615e-05,2.004799353017006e-05,1.4348748663906008e-05,-2.3717643671261612e-06,6.0338836192386225e-05
-2.8304690204095095e-05,2.490301449142862e-05,1.2014845196972601e-05,-4.822806658921763e-06,6.112572009442374e-05
-2.5529519916744903e-05,2.5075554731301963e-05,1.2384898582240567e-05,-7.804233973729424e-06,6.19331476627849e-05
-3.0404215067392215e-05,2.6922973120235838e-05,1.4175356227497105e-05,-6.885188668093178e-06,6.501453754026443e-05
-4.1146864532493055e-05,3.1599800422554836e-05,1.1066802471759729e-05,-3.889150775648886e-06,7.156655192375183e-05
-4.583651389111765e-05,3.655709224403836e-05,7.81472226663027e-06,-3.7142344808671623e-06,7.134680345188826e-05
-4.8096233513206244e-05,3.73471193597652e-05,7.603388894494856e-06,-2.460756149957888e-06,6.579036562470719e-05
-4.714147507911548e-05,2.9700373488594778e-05,8.70187250257004e-06,-1.6393158830396715e-06,6.645733083132654e-05
-4.5437242079060525e-05,1.4190281035553198e-05,6.450077307817992e-06,-6.247363671718631e-06,6.859149289084598e-05
-4.285142495064065e-05,-3.778882557980978e-07,4.0819418245519046e-06,-1.0637038940330967e-05,6.857945118099451e-05
-3.5582921555032954e-05,-4.139380962442374e-06,4.8488082029507495e-06,-1.0701027349568903e-05,6.579162436537445e-05
-2.2443860871135257e-05,4.9782283895183355e-06,5.281476660456974e-06,-1.2546759535325691e-05,6.097951336414553e-05
-9.479093932895921e-06,1.817540942283813e-05,4.3970403567072935e-06,-1.4386145267053507e-05,5.442113979370333e-05
-2.5108643058047164e-06,3.0125454941298813e-05,1.4848575347059523e-06,-1.4344637747853994e-05,5.2218401833670214e-05
1.0273847692587879e-06,3.526505679474212e-05,1.3978115021018311e-06,-1.4997618563938886e-05,5.512433926924132e-05
3.771015599340899e-06,3.656306944321841e-05,3.018974666701979e-06,-1.5219558918033727e-05,6.143756036181003e-05
7.96064796304563e-06,4.5057378883939236e-05,3.2469529287482146e-06,-1.4623755305365194e-05,6.723123806295916e-05
1.3123874850862194e-05,5.8518799050943926e-05,1.3747321645496413e-06,-1.2699701073870528e-05,6.953012780286372e-05
1.5927371350699104e-05,6.450467481045052e-05,-5.638661946250068e-07,-1.0485427083040122e-05,7.08434745320119e-05
1.2105891983082984e-05,5.820138903800398e-05,-3.127887111986638e-06,-9.46505315368995e-06,6.953139381948858e-05
3.4258982850587927e-06,4.4578686356544495e-05,-4.791505489265546e-06,-1.1420013834140263e-05,6.539664173033088e-05
-8.46681996335974e-06,3.128019307041541e-05,-4.354380962467985e-06,-1.4182315680955071e-05,6.0958067479077727e-05
-1.952101411006879e-05,2.1378218661993742e-05,-4.439595159055898e-06,-1.518805311206961e-05,6.073764598113485e-05
-2.5232211555703543e-05,1.4572903637599666e-05,-5.3395197028294206e-06,-1.5612124116159976e-05,6.308329466264695e-05
-2.6003122911788523e-05,1.2958643310412299e-05,-1.9598307972046314e-06,-1.803281884349417e-05,6.433539238059893e-05
-2.417701034573838e-05,1.8838687537936494e-05,6.226440291356994e-06,-1.8355804058955982e-05,6.505004421342164e-05
-1.90294213098241e-05,3.0163693736540154e-05,1.1828462447738275e-05,-1.4512133930111304e-05,6.816297536715865e-05
-1.5425021047121845e-05,3.8180904084583744e-05,1.4106835806160234e-05,-1.1346523024258204e-05,7.025001832516864e-05
-1.6388590665883385e-05,3.646432742243633e-05,1.6270751075353473e-05,-9.907793355523609e-06,6.852723890915513e-05
-1.707883711787872e-05,2.7093627068097703e-05,1.430897282261867e-05,-1.0741438018158078e-05,6.466353079304099e-05
-1.8258708223584108e-05,2.7401951228966936e-05,7.2152583925344516e-06,-8.868943950801622e-06,6.233993917703629e-05
-2.124955426552333e-05,3.148028554278426e-05,3.8126502204249846e-06,-7.223182819870999e-06,6.039596701157279e-05
-2.4607483283034526e-05,2.498842695786152e-05,4.805777280125767e-06,-1.0704184205678757e-05,6.048727300367318e-05
-2.6762334528029896e-05,1.6674614016665146e-05,2.884452214857447e-06,-8.843299838190433e-06,6.0431579186115414e-05
-2.959609992103651e-05,1.6355328625650145e-05,1.0166378388021258e-06,-8.049039024626836e-06,5.84958033869043e-05
-3.074221240240149e-05,1.6959056665655226e-05,9.590428362571402e-07,-9.531003342999611e-06,5.630165105685592e-05
-2.9958902814541943e-05,1.573682857269887e-05,-1.4090292097534984e-06,-8.11025620350847e-06,5.393506944528781e-05
-3.139334876323119e-05,1.9015978978131898e-05,-3.789813035837142e-06,-6.377384124789387e-06,5.321505159372464e-05
-3.530800677253865e-05,1.9517765394994058e-05,-7.455668310285546e-06,-4.853878635913134e-06,5.2802246500505134e-05
-4.04726124543231e-05,1.6178761143237352e-05,-1.1125583114335313e-05,-2.776617066047038e-06,5.3814837883692235e-05
-4.1259343561250716e-05,1.4264376659411937e-05,-1.2064928341715131e-05,3.0364046210706874e-07,5.6278688134625554e-05
-3.640974682639353e-05,8.672338481119368e-06,-1.1917616575374268e-05,-6.181471121635695e-07,5.791585863335058e-05
-2.779693932097871e-05,-2.714963329708553e-06,-1.4009623555466533e-05,-7.44386125006713e-06,5.866157516720705e-05
-1.9254508515587077e-05,-6.671065875707427e-06,-1.5883706510066986e-05,-1.473644715588307e-05,6.0107646277174354e-05
-1.3961027434561402e-05,4.701900707004825e-06,-1.2839504961448256e-05,-1.578997580509167e-05,6.171311542857438e-05
-1.1354827620380092e-05,1.9988810890936293e-05,-8.260549293481745e-06,-1.2497535863076337e-05,6.251515151234344e-05
-1.1892838301719166e-05,2.2264210201683454e-05,-6.357407983159646e-06,-9.757824045664165e-06,6.0983438743278384e-05
-1.4818015188211575e-05,1.4235905837267637e-05,-6.206722900969908e-06,-1.0291806574969087e-05,5.786653855466284e-05
-1.8927157725556754e-05,1.0991899216605816e-05,-5.38515496373293e-06,-1.165131379821105e-05,5.557608528761193e-05
-2.358396159252152e-05,1.717891609587241e-05,-4.363251264294377e-06,-1.1610783985815942e-05,5.3709762141807005e-05
-2.7045134629588574e-05,2.2696180167258717e-05,-3.670417299872497e-06,-1.1320688827254344e-05,5.202988177188672e-05
-2.710242915782146e-05,2.517281063774135e-05,-2.3143459202401573e-06,-1.3767031305178534e-05,5.172600140213035e-05
-2.5788642233237624e-05,2.8652932087425143e-05,-9.414512760486105e-07,-1.5081574019859545e-05,5.2151277486700565e-05
-2.5160008590319194e-05,3.0328061257023364e-05,-5.656578991874994e-07,-1.1776821338571608e-05,5.3165033023105934e-05
-2.463153396092821e-05,2.9245831683510914e-05,1.1135533668493736e-06,-5.974660780339036e-06,5.550240894081071e-05
-2.5643903427408077e-05,2.6368034014012665e-05,4.6604745875811204e-06,-2.3594004687765846e-06,5.966051685390994e-05
-2.9470415029209107e-05,2.545033385104034e-05,7.07514982423163e-06,-4.637600795831531e-06,6.074231714592315e-05
-3.2709263905417174e-05,2.5569001081748866e-05,7.585124421893852e-06,-6.479128387582023e-06,5.6842141930246726e-05
-3.21542720485013e-05,2.200725612055976e-05,8.87064106791513e-06,-4.6513782763213385e-06,5.323890582076274e-05
-3.0463275834335946e-05,1.3342915735847782e-05,9.644598321756348e-06,-2.7328812848281814e-06,5.201582462177612e-05
-3.263324833824299e-05,7.422277121804655e-06,1.1690406608977355e-05,-4.941593942930922e-06,5.431825775303878e-05
-3.644126627477817e-05,7.504940185754094e-06,1.1245433597650845e-05,-8.532765605195891e-06,5.547393811866641e-05
-3.817906690528616e-05,1.0623873095028102e-05,1.229843110195361e-05,-6.735806437063729e-06,5.5031352530932054e-05
-4.2494499211898074e-05,1.4273753549787216e-05,1.936598346219398e-05,-4.2887409108516295e-06,5.4086358431959525e-05
-4.512518717092462e-05,1.706133843981661e-05,2.304961162735708e-05,-5.734148544433992e-06,5.199307997827418e-05
-3.806559834629297e-05,2.401884012215305e-05,2.1221298084128648e-05,-8.700274520379025e-06,5.0651520723477006e-05
-2.8684857170446776e-05,3.489048685878515e-05,1.5675192116759717e-05,-1.0096850019181147e-05,5.137535117683001e-05
-2.6521729523665272e-05,4.43567187176086e-05,1.004866135190241e-05,-9.732047146826517e-06,5.352118023438379e-05
-3.030721563845873e-05,5.003088153898716e-05,5.3652779570256826e-06,-8.731525667826645e-06,5.331913780537434e-05
-3.2726562494644895e-05,5.9442114434204996e-05,3.1461122489417903e-06,-8.39032782096183e-06,5.3662679420085624e-05
-3.0926526960683987e-05,7.696017564740032e-05,3.4348815916018793e-06,-9.233966920874082e-06,5.617891292786226e-05
-2.883393972297199e-05,9.641748329158872e-05,6.017849955242127e-06,-1.1758134860428981e-05,6.197123002493754e-05
-3.160566120641306e-05,0.00010689361806726083,7.698710760450922e-06,-1.4877155990689062e-05,6.910776573931798e-05
-3.658431160147302e-05,9.746444266056642e-05,6.2387180150835775e-06,-1.5754167179693468e-05,7.092948362696916e-05
-3.573401045287028e-05,6.159722397569567e-05,2.0943527943018125e-06,-1.420118314854335e-05,6.850369391031563e-05
-2.8967484468012117e-05,1.4133996046439279e-05,-1.6651545138302026e-06,-1.2862083167419769e-05,6.931236566742882e-05
-2.5824285330600105e-05,-9.213261364493519e-06,-4.568349140754435e-06,-1.2372880519251339e-05,7.119542715372518e-05
-3.001236473210156e-05,3.4496870284783654e-06,-1.0039785593107808e-05,-1.209217316500144e-05,6.994751311140135e-05
-3.51301277987659e-05,2.502619281585794e-05,-1.9323526430525817e-05,-1.4214389011613093e-05,6.869993376312777e-05
-3.5028297133976594e-05,2.9613549486384727e-05,-2.967270302178804e-05,-1.7811589714256115e-05,6.950956594664603e-05
-2.7705531465471722e-05,2.004046837100759e-05,-3.1974519515642896e-05,-2.1837546228198335e-05,7.088689744705334e-05
-1.8962547983392142e-05,6.9688753683294635e-06,-2.465035140630789e-05,-2.1633253709296696e-05,7.130397716537118e-05
-1.865798003564123e-05,-1.4401364751392975e-05,-1.5022031220723875e-05,-1.5122180229809601e-05,6.980493344599381e-05
-2.5283548893639818e-05,-4.6377343096537516e-05,-4.4624753172683995e-06,-8.966868335846812e-06,6.26164983259514e-05
-2.79879732261179e-05,-6.0930888139409944e-05,5.048605089541525e-06,-8.5248184404918e-06,5.8561443438520655e-05
-2.71548760792939e-05,-4.185382567811757e-05,1.3115887668391224e-05,-1.0760836630652193e-05,5.980633432045579e-05
-2.65010712610092e-05,-7.604453912790632e-06,2.2393456674763e-05,-1.1175962754350621e-05,6.0921669501112774e-05
-2.529953962948639e-05,2.14382162084803e-05,3.2385680242441595e-05,-1.0505706995900255e-05,6.362738349707797e-05
-2.5682131308712997e-05,3.9921167626744136e-05,4.2068877519341186e-05,-1.2058230822731275e-05,6.508816295536235e-05
-2.4087707060971297e-05,5.604926627711393e-05,4.646624074666761e-05,-1.4704099157825112e-05,6.596574530703947e-05
-2.2114283638074994e-05,7.21091782907024e-05,4.8068875912576914e-05,-1.441277618141612e-05,6.443650636356324e-05
-2.717422103160061e-05,8.317338506458327e-05,4.606727816280909e-05,-9.604907063476276e-06,5.884276106371544e-05
-3.734662095666863e-05,8.366836118511856e-05,4.071964940521866e-05,-4.750136213260703e-06,5.358779162634164e-05
-4.518205241765827e-05,7.574396295240149e-05,3.3981752494582906e-05,-4.8418191909149755e-06,5.2035007684025913e-05
-4.852764686802402e-05,6.039672371116467e-05,3.0006263841642067e-05,-6.9244201768015046e-06,5.374422835302539e-05
-4.7136465582298115e-05,3.062466930714436e-05,2.8879378078272566e-05,-8.038151463551912e-06,5.5736632930347696e-05
-4.162980258115567e-05,1.8990982653122046e-06,2.7052323275711387e-05,-8.544890079065226e-06,5.709558172384277e-05
-3.538308010320179e-05,6.985183631513792e-07,2.2703345166519284e-05,-9.139090252574533e-06,5.783945744042285e-05
-3.0696312023792416e-05,2.2928195903659798e-05,1.8321736206416972e-05,-9.593537470209412e-06,5.686385338776745e-05
-2.8769331038347445e-05,4.2850941099459305e-05,1.6196137949009426e-05,-1.0708939953474328e-05,5.624252662528306e-05
-2.788377969409339e-05,5.167603740119375e-05,1.4843575627310202e-05,-1.4746608030691277e-05,5.601048542303033e-05
-2.8419095542631112e-05,6.023187597747892e-05,1.3340390069060959e-05,-1.953326318471227e-05,5.597146082436666e-05
-2.944072002719622e-05,7.259030098794028e-05,1.0695846867747605e-05,-2.1420022676466033e-05,5.689132012776099e-05
-2.6619554773787968e-05,8.22656656964682e-05,6.686287179036299e-06,-1.9725277525139973e-05,5.661863906425424e-05
-1.7658576325629838e-05,8.647640788694844e-05,9.687889814813389e-07,-1.5802077541593462e-05,5.3513231250690296e-05
-8.452823749394156e-06,8.574125240556896e-05,-2.8741665119014215e-06,-1.2143043022661004e-05,4.9851769290398806e-05
-6.365165063471068e-06,7.390139217022806e-05,-3.938270765502239e-06,-1.107266143662855e-05,5.065788354841061e-05
-9.65990147960838e-06,4.739123323815875e-05,-4.15129079556209e-06,-1.1819320206996053e-05,5.578632772085257e-05
-1.1598565833992325e-05,1.1889088455063757e-05,-4.505663127929438e-06,-1.2509605767263565e-05,5.887075167265721e-05
-9.693476386019029e-06,-2.9223117962828837e-05,-3.6195690427121008e-06,-1.4839033610769548e-05,5.833217073814012e-05
-1.1161937436554581e-05,-5.665771459462121e-05,-3.073619723181764e-07,-1.7057474906323478e-05,5.675273132510483e-05
-1.2519141819211654e-05,-4.20087635575328e-05,8.767578947299626e-07,-1.5515501218033023e-05,5.610098014585674e-05
-1.3310235772223677e-05,-5.952224910288351e-06,-1.973439793800935e-06,-1.2175668416603003e-05,5.850116940564476e-05
-1.868944673333317e-05,1.504368719906779e-05,-2.9125371838745195e-06,-8.569090823584702e-06,6.211212166817859e-05
-2.273919562867377e-05,2.1068934074719436e-05,-7.481723969249288e-06,-5.736451385018881e-06,6.395484524546191e-05
-2.737901195359882e-05,2.206215685873758e-05,-1.6267540559056215e-05,-4.465806796360994e-06,5.957668327027932e-05
-3.380748239578679e-05,2.399349796178285e-05,-2.0528503227978945e-05,-3.4631530070328154e-06,5.426160350907594e-05
-4.5967171899974346e-05,2.4940511138993315e-05,-1.6335499822162092e-05,-3.1954107271303656e-06,5.300925477058627e-05
-5.3961743105901405e-05,2.6399753551231697e-05,-1.2936424354847986e-05,-3.1694319204689236e-06,5.228436930337921e-05
-5.1721293857553974e-05,2.747975850070361e-05,-1.2271140803932212e-05,-6.280666184466099e-06,4.736285700346343e-05
-4.8839967348612845e-05,2.8344857128104195e-05,-1.024100674840156e-05,-9.428751582163386e-06,4.1473151213722304e-05
-4.705076207756065e-05,3.205532266292721e-05,-5.269805569696473e-06,-9.48362321651075e-06,3.77182150259614e-05
-4.3689182348316535e-05,3.5487901186570525e-05,-6.944054575797054e-07,-8.959995284385514e-06,3.7842208257643506e-05
-3.5314362321514636e-05,3.6949568311683834e-05,4.22028278990183e-06,-7.931180334708188e-06,4.423903374117799e-05
-2.446421785862185e-05,3.664253745228052e-05,1.1742498827516101e-05,-7.799010745657142e-06,5.423909897217527e-05
-1.6295503883156925e-05,3.6519169952953234e-05,1.780572347342968e-05,-9.541658073430881e-06,6.261314410949126e-05
-1.3957238479633816e-05,3.714218473760411e-05,1.98413817997789e-05,-1.1673507287923712e-05,6.59391880617477e-05
-1.4975980775489006e-05,3.7373796658357605e-05,1.8675527826417238e-05,-1.3536571714212187e-05,6.288968143053353e-05
-1.5904421161394566e-05,3.68736800737679e-05,1.8927659766632132e-05,-1.6242807760136202e-05,5.712271013180725e-05
-1.0906669558607973e-05,3.5382374335313216e-05,1.7990514606935903e-05,-1.783619518391788e-05,5.425820199889131e-05
-1.0000863994719111e-06,3.072356048505753e-05,1.648684155952651e-05,-1.5490637451875955e-05,5.3320920414989814e-05
9.807326932786964e-06,2.4711705918889493e-05,1.660639281908516e-05,-1.0647066119418014e-05,5.368635538616218e-05
1.527696986158844e-05,2.180452793254517e-05,1.9593722754507326e-05,-8.041959517868236e-06,5.508243339136243e-05
1.0452835340402089e-05,2.3423004677169956e-05,2.3009426513453946e-05,-9.270077498513274e-06,5.841506572323851e-05
-7.625303055647237e-07,2.9059217922622338e-05,2.3208969651022926e-05,-1.2029138815705664e-05,6.201436190167442e-05
-1.2805736332666129e-05,3.262936297687702e-05,1.5857302059885114e-05,-1.042364146996988e-05,6.421429861802608e-05
-2.0820974896196276e-05,2.908790520450566e-05,5.111917289468693e-06,-8.83450047695078e-06,6.528364610858262e-05
-2.430276435916312e-05,2.321553802175913e-05,8.506231097271666e-07,-8.969615009846166e-06,6.245292024686933e-05
-2.356984987272881e-05,1.940372931130696e-05,2.2469628220278537e-06,-1.6144111896210234e-06,5.980925197945908e-05
-2.4733710233704187e-05,2.2276895833783783e-05,4.515523414738709e-06,5.760929070675047e-06,6.091164323152043e-05
-2.95656227535801e-05,2.664166095200926e-05,6.2980848269944545e-06,5.6459707593603525e-06,6.0598009440582246e-05
-3.34363903675694e-05,3.043133983737789e-05,5.32477088199812e-06,1.333154955318605e-06,6.43089078948833e-05
-3.629286584327929e-05,3.0898936529411e-05,1.7061074686353095e-06,-5.719503860746045e-06,6.763502460671589e-05
-3.44808358931914e-05,2.8569520509336144e-05,-2.6355855879955925e-06,-1.0684275366656948e-05,6.807416502851993e-05
-3.131988341920078e-05,2.7235013476456515e-05,-2.4350131297978805e-06,-1.1337344403727911e-05,6.65197876514867e-05
-3.0759645596845075e-05,2.8190990633447655e-05,-1.3438246924124542e-06,-8.002797585504595e-06,6.483879406005144e-05
-3.3594049455132335e-05,2.9007276680204086e-05,-1.6399020523749641e-06,-6.05029799771728e-06,6.533731357194483e-05
-3.642038063844666e-05,2.617441896290984e-05,-8.697840030436055e-07,-8.171006811608095e-06,6.605995440622792e-05
-3.7901976611465216e-05,2.2369620637618937e-05,-4.3042437170015546e-08,-8.822956260701176e-06,6.762785778846592e-05
-3.835438837995753e-05,1.8572724002297036e-05,-5.647286798193818e-07,-8.911266377253924e-06,6.867801130283624e-05
-3.756304795388132e-05,1.8121019820682704e-05,-2.931356448243605e-06,-1.0859960639209021e-05,6.839734851382673e-05
-3.7892819818807766e-05,2.3035410777083598e-05,-4.982167411071714e-06,-1.3173152183298953e-05,6.410892092389986e-05
-3.9911723433760926e-05,3.0470002457150258e-05,-5.189727289689472e-06,-1.2346130461082794e-05,5.892525223316625e-05
-4.264539893483743e-05,3.059968730667606e-05,-1.2590955975610996e-06,-8.888250704330858e-06,5.533741568797268e-05
-4.3265841668471694e-05,2.1698524506064132e-05,4.078999609191669e-06,-5.57308385396027e-06,5.392308594309725e-05
-4.5832963223801926e-05,8.48670879349811e-06,5.391904323914787e-06,-3.00704550681985e-06,5.438699008664116e-05
-5.4146752518136054e-05,1.3352324685911299e-06,3.1731863145978423e-06,-5.806912213301985e-07,5.715054794563912e-05
-6.407032924471423e-05,1.0496163667994551e-05,4.8574920583632775e-06,1.1738303555830498e-06,5.68222239962779e-05
-7.026868115644902e-05,2.851329554687254e-05,7.724313945800532e-06,1.7282900444115512e-06,5.113597580930218e-05
-6.94201371516101e-05,3.648729034466669e-05,3.451773181950557e-06,2.3035178742247808e-07,4.599785461323336e-05
-6.23516971245408e-05,3.17639387503732e-05,-4.963461378792999e-06,-3.305329755676212e-06,4.8166533815674484e-05
-5.640088056679815e-05,2.085583946609404e-05,-1.011871518130647e-05,-7.263549377967138e-06,5.3716852562502027e-05
-4.965914922649972e-05,1.7257534636883065e-05,-1.234735464095138e-05,-1.1707608791766688e-05,6.074094562791288e-05
-4.158906449447386e-05,1.8246984836878255e-05,-9.05157230590703e-06,-1.6148880604305305e-05,6.4514359110035e-05
-2.9797918614349328e-05,-2.9778561838611495e-06,1.3549546338254004e-06,-1.4410519725061022e-05,6.264112744247541e-05
-1.3630716239276808e-05,-3.40800906997174e-05,1.1491511941130739e-05,-7.13184044798254e-06,6.039097934262827e-05
3.3196549793501617e-06,-2.3069886083249003e-05,1.8691460354602896e-05,-6.538701200042851e-06,5.800819053547457e-05
9.092228538065683e-06,3.2239113352261484e-05,2.3525752112618648e-05,-1.0495898095541634e-05,6.079293234506622e-05
1.2788923413609155e-06,8.57838531374e-05,2.3751090338919312e-05,-1.4066187759453896e-05,6.357868551276624e-05
-6.566251158801606e-06,0.00011723530042218044,2.1742618628195487e-05,-1.679661545495037e-05,6.39325226075016e-05
-8.628639989183284e-06,0.00012491170491557568,1.8846900275093503e-05,-1.5468363926629536e-05,6.0382917581591755e-05
-5.603639237961033e-06,0.00010179648961639032,1.2955414604221005e-05,-1.1075232578150462e-05,5.654196866089478e-05
-4.9858022066473495e-06,4.8731013521319255e-05,8.127588444040157e-06,-8.428781256952789e-06,5.642818723572418e-05
-6.33192439636332e-06,2.17137448998983e-06,8.647592039778829e-06,-8.549089216103312e-06,5.725937080569565e-05
-1.0199390089837834e-05,-1.8138254631594464e-07,1.049789716489613e-05,-8.451745088677853e-06,5.8366491430206224e-05
-1.6041234630392864e-05,3.429412026889622e-05,1.2433165466063656e-05,-9.847609362623189e-06,5.954270818619989e-05
-2.063158171949908e-05,6.294175545917824e-05,1.3331738045962993e-05,-1.1337741852912586e-05,6.0343252698658034e-05
-2.0616716938093305e-05,5.917141606914811e-05,1.1072884262830485e-05,-1.3454024156089872e-05,5.957188841421157e-05
-1.804159182938747e-05,3.459758227108978e-05,7.191401437012246e-06,-1.507648266851902e-05,5.9429694374557585e-05
-1.4451877177634742e-05,1.3446824596030638e-05,5.020930984755978e-06,-1.3078970368951559e-05,6.236101035028696e-05
-8.82668791746255e-06,4.52072026746464e-06,7.97152279119473e-06,-6.36375034446246e-06,6.785510777262971e-05
-4.007692041341215e-06,1.0974807764796424e-06,1.1596595868468285e-05,1.7000826346702524e-06,6.822979776188731e-05
-4.227939371048706e-06,1.2062205314578023e-06,1.0923979061772116e-05,3.7027593862148933e-06,6.287723954301327e-05
-1.0624077731336001e-05,8.423470717389137e-06,7.61624141887296e-06,-1.3341641533770598e-06,5.930905899731442e-05
-1.9246319425292313e-05,1.771446295606438e-05,5.190354841033695e-06,-5.003795195079874e-06,6.132687849458307e-05
-2.5288814867963083e-05,2.3103088096831925e-05,4.394045390654355e-06,-2.233690338471206e-06,6.402086728485301e-05
-2.6416553737362847e-05,2.6468507712706923e-05,2.050095417871489e-06,1.1117458598164376e-06,6.318896339507774e-05
-2.5533066946081817e-05,3.76813841285184e-05,-1.7067370663426118e-06,2.0656443666666746e-06,5.789889837615192e-05
-2.2540692953043617e-05,5.8328929299023e-05,-2.287261395395035e-06,8.78302515161522e-08,5.482798951561563e-05
-1.7414988178643398e-05,6.179485353641212e-05,6.802789584980928e-07,-4.417516720423009e-06,5.743187648477033e-05
-1.4683169865747914e-05,3.304512210888788e-05,-9.073915521184972e-07,-6.504633347503841e-06,6.050065712770447e-05
-1.8578719391371123e-05,7.262334520419245e-07,-4.619230821845122e-06,-8.565651114622597e-06,6.213114829733968e-05
-2.45826413447503e-05,8.86879035988386e-07,-1.398993390466785e-06,-1.3357593161344994e-05,6.263619434321299e-05
-2.8387876227498055e-05,2.0047724319738336e-05,1.6922019341336636e-08,-1.5002164218458347e-05,6.0740101616829634e-05
-2.9261746021802537e-05,3.034168366866652e-05,-3.587192907161807e-07,-1.4328180441225413e-05,5.769803829025477e-05
-2.8634292903007008e-05,3.040655610675458e-05,-1.7327902241959237e-06,-1.132860779762268e-05,5.842320388182998e-05
-2.761001087492332e-05,2.9202463338151574e-05,-4.461247499421006e-06,-8.994718882604502e-06,6.070278323022649e-05
-2.3066038920660503e-05,3.0227578463382088e-05,-3.902156095136888e-06,-9.034778486238793e-06,6.0659018345177174e-05
-1.5536686987616122e-05,3.3075662940973416e-05,-1.5737656440251158e-06,-9.651921573095024e-06,5.821008744533174e-05
-1.3365852282731794e-05,3.885495971189812e-05,-1.8241132693219697e-07,-6.732290785294026e-06,5.457402949105017e-05
-1.6619929738226347e-05,4.425549923325889e-05,5.227439601185324e-07,-2.5049587293324294e-06,5.040541509515606e-05
-1.735564183036331e-05,4.7862911742413417e-05,5.500441488948127e-07,-4.752004770125495e-06,5.066701851319522e-05
-1.6961048459052108e-05,4.883134170086123e-05,-1.4633066030000919e-06,-1.3155663509678561e-05,5.362279625842348e-05
-1.9834926206385717e-05,4.564823393593542e-05,-1.8340861061005853e-06,-2.090680573019199e-05,5.328354018274695e-05
-2.3588592739542946e-05,3.8997768569970503e-05,-6.045440272828273e-07,-1.92416955542285e-05,5.1520524721127003e-05
-2.365836189710535e-05,3.137849853374064e-05,3.1256527677214763e-07,-1.5439471098943613e-05,5.1813585741911083e-05
-2.1768733859062195e-05,2.410549313935917e-05,1.1372104609108646e-06,-1.551598143123556e-05,5.256876102066599e-05
-2.0614468667190522e-05,1.960582630999852e-05,2.020067540797754e-06,-1.6256233720923774e-05,5.29583303432446e-05
-2.024773675657343e-05,1.8475464457878843e-05,2.114291419275105e-06,-1.5671801520511508e-05,5.236605284153484e-05
-1.8383487258688547e-05,2.1776084395241924e-05,2.1491662209882634e-06,-1.5063096725498326e-05,5.2142284403089434e-05
-1.541784695291426e-05,2.732679968175944e-05,1.383265839649539e-06,-1.3245617992652114e-05,5.2745628636330366e-05
-1.3903241779189557e-05,2.7292180675431155e-05,5.339587687558378e-07,-9.972718544304371e-06,5.266299194772728e-05
-1.7612974261282943e-05,1.9452643755357713e-05,1.4250433650886407e-06,-7.858841854613274e-06,5.28736381966155e-05
-2.6382074793218635e-05,8.332885954587255e-06,3.541414116625674e-06,-8.912560588214546e-06,5.3491290600504726e-05
-3.3013333450071514e-05,-3.257045136706438e-06,3.397680984562612e-06,-1.4342039321491029e-05,5.514591248356737e-05
-3.7773384974570945e-05,-1.2175386473245453e-05,2.2593602011511393e-07,-1.9479268303257413e-05,5.808721107314341e-05
-4.2959283746313304e-05,-1.1058670679631177e-05,-2.9453951810864965e-06,-1.8499857105780393e-05,5.884324855287559e-05
-4.360207822173834e-05,1.3767063364866772e-06,-9.018771152113914e-07,-1.4058728083909955e-05,5.617224087473005e-05
-3.644864045782015e-05,1.2704248547379393e-05,5.600076292466838e-06,-1.1508886927913409e-05,5.5390195484505966e-05
-3.0426494049606845e-05,8.169320608431008e-06,8.632981916889548e-06,-1.1049636668758467e-05,5.594625326921232e-05
-3.235026451875456e-05,3.0590292681154096e-06,8.444576451438479e-06,-1.112011250370415e-05,5.294090442475863e-05
-3.5212615330237895e-05,1.3797467545373365e-05,7.351568910962669e-06,-9.506234164291527e-06,5.0033988372888416e-05
-3.633434243965894e-05,3.1700023100711405e-05,5.230219358054455e-06,-6.4692117121012416e-06,5.266386506264098e-05
-3.619525523390621e-05,4.7959507355699316e-05,4.827961220144061e-06,-3.2094787911773892e-06,5.326433893060312e-05
-3.580839256756008e-05,6.209728599060327e-05,5.1497477215889376e-06,-1.1243749895584187e-06,5.312530629453249e-05
-3.6864566936856136e-05,8.148667984642088e-05,4.301690296415472e-06,-2.2801992827226059e-07,5.4799460485810414e-05
-3.786187153309584e-05,8.981801511254162e-05,3.85179146178416e-06,2.8462645786930807e-06,5.536543176276609e-05
-3.8317964936140925e-05,7.611414912389591e-05,3.8498137655551545e-06,6.2314961724041495e-06,5.7333396398462355e-05
-4.003881258540787e-05,7.06610080669634e-05,6.416649284801679e-06,7.329015261348104e-06,6.171997665660456e-05
-4.34370813309215e-05,9.02272222447209e-05,1.0507485967536923e-05,7.124177045625402e-06,6.469735671998933e-05
-4.621923653758131e-05,0.00011380622163414955,1.1457201253506355e-05,4.3781597014458384e-06,6.0289487009868026e-05
-4.7560206439811736e-05,0.00012078473082510754,8.471008186461404e-06,-8.733080107958813e-07,5.3428146202350035e-05
-4.564947448670864e-05,0.0001083662427845411,6.757727533113211e-06,-7.657440619368572e-06,5.260657781036571e-05
-4.006566450698301e-05,8.564348536310717e-05,9.715849046187941e-06,-1.068641540769022e-05,5.638589573209174e-05
-3.3923024602700025e-05,5.382074959925376e-05,1.3461365597322583e-05,-8.094433724181727e-06,5.893857451155782e-05
-3.2692838431103155e-05,-4.5433430386765394e-06,1.4154199561744463e-05,-3.938253485102905e-06,5.696223524864763e-05
-3.2360811019316316e-05,-8.321397035615519e-05,1.2292076462472323e-05,-3.1054498776939e-06,5.421657988335937e-05
-2.790258440654725e-05,-0.00012942327884957194,8.507052370987367e-06,-7.517561698477948e-06,5.341570431482978e-05
-2.5127725166385062e-05,-0.0001069434147211723,5.436587798612891e-06,-1.4021445167600177e-05,5.461755063151941e-05
-2.6404553864267655e-05,-5.524564039660618e-05,6.315406608337071e-06,-1.6032618077588268e-05,5.74957302887924e-05
-2.8555910830618814e-05,-2.3604423404322006e-05,7.048526185826631e-06,-1.4172767805575859e-05,5.824853724334389e-05
-3.287583967903629e-05,-9.766571565705817e-06,6.31125612926553e-06,-1.5846355381654575e-05,5.7463777920929715e-05
-3.8758244045311585e-05,6.590751127077965e-06,6.064924946258543e-06,-2.0605017198249698e-05,5.656832945533097e-05
-4.575472485157661e-05,2.8114549422753043e-05,5.5312584663624875e-06,-2.2039383111405186e-05,5.3062532970216125e-05
-5.274305658531375e-05,3.7002540921093896e-05,3.358888534421567e-06,-1.850840271799825e-05,5.333989975042641e-05
-5.4729520343244076e-05,2.763014708762057e-05,3.312037733849138e-06,-1.6660260371281765e-05,5.866150604560971e-05
-5.360435534385033e-05,8.98513553693192e-06,5.945091288594995e-06,-1.4395394828170538e-05,6.0213733377167955e-05
-5.296593371895142e-05,-7.854264367779251e-06,5.515699740499258e-06,-1.3347311323741451e-05,5.9735000832006335e-05
-5.0318805733695626e-05,-1.2709976545011159e-05,4.524079940892989e-06,-1.3593585208582226e-05,5.974779196549207e-05
-4.502163938013837e-05,-1.0348169780627359e-05,4.102308594156057e-06,-1.2268075806787238e-05,6.395990931196138e-05
-4.0128994442056865e-05,-1.1917642268599593e-06,2.6037073439511005e-06,-1.6139338185894303e-05,6.796349043725058e-05
-3.339429895277135e-05,1.2470747606130317e-05,1.2221297538417275e-06,-1.9007311493624002e-05,6.795724038966e-05
-2.6741377951111645e-05,2.6540219550952315e-05,3.3776125292206416e-06,-1.8764472770271823e-05,6.716537609463558e-05
-2.0708146621473134e-05,4.151324537815526e-05,6.697237040498294e-06,-1.8483284293324687e-05,6.698595097986981e-05
-1.4498802556772716e-05,6.026028859196231e-05,1.9525243715179386e-06,-1.8431024727760814e-05,6.599934567930177e-05
-9.296611096942797e-06,7.686227763770148e-05,-1.0974662473017816e-05,-1.7059150195564143e-05,6.253981700865552e-05
-8.20939112600172e-06,7.82131974119693e-05,-2.1651621864293702e-05,-1.3793839571007993e-05,5.762154978583567e-05
-1.071269616659265e-05,6.622563523706049e-05,-2.6451834855834022e-05,-1.1661533790174872e-05,5.569909990299493e-05
-1.2083729416190181e-05,4.8069749027490616e-05,-2.5649334929767065e-05,-1.161210093414411e-05,5.8321857068222016e-05
-9.859550118562765e-06,2.5070774427149445e-05,-1.855030859587714e-05,-1.1920769793505315e-05,6.407022010535002e-05
-7.078557700879173e-06,-1.2759751371049788e-06,-9.392198990099132e-06,-1.040984170685988e-05,7.022544014034793e-05
-8.550343409297056e-06,-1.713585152174346e-05,-2.407508077340026e-07,-9.824370863498189e-06,7.156542415032163e-05
-1.2227069419168402e-05,-1.3814903468301054e-05,9.265065273211803e-06,-1.1366762919351459e-05,6.779321847716346e-05
-1.3850824871042278e-05,3.787223477047519e-06,1.5222037291096058e-05,-1.4754277799511328e-05,6.493883120128885e-05
-1.066610639099963e-05,2.620068880787585e-05,1.648510806262493e-05,-1.7217829736182466e-05,6.563888746313751e-05
-3.859483513224404e-06,4.75847591587808e-05,1.878679177025333e-05,-1.5339042874984443e-05,6.622360524488613e-05
2.709613454499049e-06,6.464431498898193e-05,2.080373087665066e-05,-8.218308721552603e-06,6.66816413286142e-05
7.703785740886815e-06,7.648792234249413e-05,2.119560849678237e-05,-4.723056918010116e-06,6.607370596611872e-05
1.504850388300838e-05,8.070143667282537e-05,2.3482392862206325e-05,-6.15091585132177e-06,6.531917460961267e-05
2.3128455723053776e-05,7.309394277399406e-05,2.7683014195645228e-05,-9.016137482831255e-06,6.416767428163439e-05
2.424137892376166e-05,4.984425686416216e-05,3.173789082211442e-05,-1.2408127986418549e-05,6.345281144604087e-05
1.2567110388772562e-05,2.959307312266901e-05,3.389310950296931e-05,-1.3371265595196746e-05,6.37504126643762e-05
-5.691839305654867e-06,3.948994344682433e-05,3.219501377316192e-05,-1.4334197658172343e-05,6.98429939802736e-05
-1.871479253168218e-05,5.146177136339247e-05,2.8037997253704816e-05,-1.5906127373455092e-05,8.05155432317406e-05
-2.478509850334376e-05,2.9395592719083652e-05,2.273473728564568e-05,-1.6225460058194585e-05,8.474606875097379e-05
-2.7753865651902743e-05,-4.814772182726301e-06,1.3805890375806484e-05,-1.5766545402584597e-05,8.381759107578546e-05
-3.1215862691169605e-05,-5.569499535340583e-06,7.936604561109561e-06,-1.337464254902443e-05,8.403520769206807e-05
-3.272518370067701e-05,2.3339218387263827e-05,5.914650500926655e-06,-9.770732503966428e-06,8.458326919935644e-05
-3.0134551707305945e-05,4.454471491044387e-05,4.2841584217967466e-06,-6.617302005906822e-06,8.454879571218044e-05
-2.7876511012436822e-05,4.701215584645979e-05,5.630803116218885e-06,-3.6475996694207424e-06,8.675941353430972e-05
-2.5517654648865573e-05,4.210483166389167e-05,8.196772796509322e-06,-4.701213583757635e-06,8.992265065899119e-05
-2.4623544959467836e-05,3.766191366594285e-05,1.108715878217481e-05,-8.076227459241636e-06,8.963714208221063e-05
-2.4377293811994605e-05,3.300781827419996e-05,1.148208866652567e-05,-1.1428310244809836e-05,8.474801870761439e-05
-2.0849003703915514e-05,3.557382297003642e-05,1.1971538697252981e-05,-1.4993707736721262e-05,8.045292634051293e-05
-1.4780483070353512e-05,4.090889706276357e-05,1.0498400115466211e-05,-2.097961441904772e-05,8.05728486739099e-05
-9.555443284625653e-06,3.783575084526092e-05,8.069342584349215e-06,-2.6382971554994583e-05,8.213348337449133e-05
-1.0397159712738357e-05,2.5366338377352804e-05,9.972621228371281e-06,-2.7000300178769976e-05,8.05883391876705e-05
-1.6888352547539398e-05,1.1581160833884496e-05,1.3214090358815156e-05,-2.3745322323520668e-05,7.613922207383439e-05
-2.3620834326720797e-05,4.667568646254949e-06,1.2354367754596751e-05,-1.987709583772812e-05,7.419526809826493e-05
-2.9186821848270483e-05,6.53265260552871e-06,8.490772415825631e-06,-1.9099814380751923e-05,7.472102879546583e-05
-3.5914195905206725e-05,1.3832054719387088e-05,6.485276117018657e-06,-1.8204549633082934e-05,7.645607547601685e-05
-4.178722883807495e-05,2.391118323430419e-05,6.106632099545095e-06,-1.509378034825204e-05,7.748149073449895e-05
-4.342254760558717e-05,3.541807382134721e-05,4.8037522901722696e-06,-1.1825670299003832e-05,7.545329572167248e-05
-4.295033068046905e-05,4.277571497368626e-05,8.531687285540102e-07,-8.863067705533467e-06,7.3853756475728e-05
-4.152195106144063e-05,4.457274917513132e-05,-4.930028580929502e-07,-5.986021733406233e-06,7.217231905087829e-05
-3.802416904363781e-05,4.188877937849611e-05,2.08153960556956e-06,-6.592881163669517e-06,6.75884002703242e-05
-3.6939498386345804e-05,3.9833081245888025e-05,2.505121756257722e-06,-9.783651876205113e-06,6.484173354692757e-05
-3.769936665776186e-05,4.1125575080513954e-05,-1.6330880043824436e-06,-1.224231982632773e-05,6.023062815074809e-05
-3.532487608026713e-05,4.2682531784521416e-05,-5.4587744671152905e-06,-1.6004642020561732e-05,5.154843529453501e-05
-3.341697811265476e-05,4.259093839209527e-05,-4.770246960106306e-06,-1.45301382872276e-05,4.6848432248225436e-05
-3.645872857305221e-05,4.211721534375101e-05,-4.021301265311195e-06,-7.0344785854103975e-06,4.7608831664547324e-05
-4.119467848795466e-05,3.707088399096392e-05,-5.978286480967654e-06,-2.6279965368303237e-06,4.722690209746361e-05
-4.4535678171087056e-05,2.7474476155475713e-05,-5.4720999287383165e-06,-5.452631626212678e-07,4.5010296162217855e-05
-4.723868187284097e-05,1.3499357919499744e-05,-3.637776217146893e-06,-2.2909080144017935e-06,4.391458787722513e-05
-4.86714779981412e-05,-4.966997266819817e-07,-1.9184883512934903e-06,-6.529439360747347e-06,4.187572267255746e-05
-4.70028244308196e-05,-2.6015368348453194e-06,-8.160077982211078e-07,-1.0094600838783663e-05,4.1487321141175926e-05
-4.3283755076117814e-05,3.5523908081813715e-06,1.4639529126725392e-06,-1.288124894927023e-05,4.1850420529954135e-05
-3.5378121538087726e-05,9.20065212994814e-06,2.8281663162488258e-06,-1.2197586329421028e-05,4.2201249016216025e-05
-2.6480118322069757e-05,1.3486151146935299e-05,1.2521605867732433e-06,-7.289974291779799e-06,4.168354644207284e-05
-2.240922549390234e-05,1.4607772754970938e-05,-5.916123200222501e-07,-2.7960309125774074e-06,4.329910734668374e-05
-2.163621502404567e-05,1.4378143532667309e-05,-1.1737669183276012e-06,-1.691511670287582e-06,4.6399545681197196e-05
-2.1499394279089756e-05,2.0415058315848e-05,-1.4959585996621172e-06,-3.1250212941813515e-06,4.671696660807356e-05
-2.23584193008719e-05,3.3510750654386356e-05,-1.5500702374993125e-06,-6.172365374368383e-06,4.29538449679967e-05
-2.3924458218971267e-05,4.497884219745174e-05,1.174148792415508e-06,-1.1384916433598846e-05,3.801350248977542e-05
-2.4348306396859698e-05,4.948929199599661e-05,7.246287168527488e-06,-1.7112564819399267e-05,3.6995850678067654e-05
-2.4209351977333426e-05,4.9413818487664685e-05,1.1694734894263092e-05,-2.001541361096315e-05,4.046094909426756e-05
-2.3920092644402757e-05,4.4472257286543027e-05,9.446622243558522e-06,-2.1765805286122486e-05,4.186468868283555e-05
-2.4426475647487678e-05,3.48778412444517e-05,3.5316188586875796e-06,-2.308566399733536e-05,3.8840251363581046e-05
-2.8504826332209632e-05,2.7477313778945245e-05,1.3005243317820714e-06,-2.3062864784151316e-05,3.5949444281868637e-05
-3.5616918466985226e-05,2.8568996640387923e-05,5.048357706982642e-06,-2.2101350623415783e-05,3.5707183997146785e-05
-3.77790565835312e-05,3.772005584323779e-05,8.516047273587901e-06,-2.063814645225648e-05,3.8493864849442616e-05
-3.3613752748351544e-05,4.767965947394259e-05,1.0058563930215314e-05,-1.915432767418679e-05,4.1171231714542955e-05
-2.962355938507244e-05,5.0566410209285095e-05,1.1506375813041814e-05,-1.8905377146438695e-05,4.158592128078453e-05
-2.714446782192681e-05,3.9701561036054045e-05,1.1304658983135596e-05,-1.7360085621476173e-05,3.811242640949786e-05
-2.4425669835181907e-05,1.2859274647780694e-05,8.156145668181125e-06,-1.4662620742456056e-05,3.6572659155353904e-05
-2.1453903173096478e-05,-7.59879958422971e-06,6.4133937485166825e-06,-1.486490509705618e-05,3.785043008974753e-05
-1.629774305911269e-05,2.1705036488128826e-06,7.495990303141298e-06,-1.846854320319835e-05,4.087988054379821e-05
-1.533398244646378e-05,2.0879921066807583e-05,1.205936678161379e-05,-1.71464907907648e-05,4.163614721619524e-05
-2.0140720152994618e-05,2.7915628379560076e-05,1.4493248272628989e-05,-1.0361882232245989e-05,3.8611749914707616e-05
-1.9230787074775435e-05,2.9685925255762413e-05,1.324370259681018e-05,-7.055720743665006e-06,3.6917332181474194e-05
-1.7582011423655786e-05,3.0337301723193377e-05,1.4576214198314119e-05,-5.4982629080768675e-06,3.650660801213235e-05
-2.41481393459253e-05,2.996468174387701e-05,1.4560356248694006e-05,-3.4854601835832e-06,3.759110040846281e-05
-3.139859836664982e-05,3.045336779905483e-05,1.0097110134665854e-05,-6.346954251057468e-06,3.887857747031376e-05
-3.5436700272839516e-05,3.598989496822469e-05,6.927868525963277e-06,-1.1372929293429479e-05,3.867366831400432e-05
-3.812259092228487e-05,3.857381670968607e-05,1.0268662663293071e-05,-1.2320830137468874e-05,3.8395082810893655e-05
-4.028369585284963e-05,3.72092763427645e-05,1.4712549273099285e-05,-1.0165315870835911e-05,3.848587948596105e-05
-4.0825834730640054e-05,3.368090983713046e-05,1.0986029337800574e-05,-7.71962459111819e-06,3.8928530557313934e-05
-3.747314622160047e-05,3.165938687743619e-05,-3.997961641744041e-07,-7.263348834385397e-06,4.0370679926127195e-05
-3.41142040269915e-05,2.939237492682878e-05,-9.544498425384518e-06,-7.038975127215963e-06,4.219342372380197e-05
-3.5311986721353605e-05,2.2440357497544028e-05,-9.320179742644541e-06,-4.79421078125597e-06,4.6503173507517204e-05
-3.749551615328528e-05,1.3546838999900501e-05,-3.8179236980795395e-06,-2.367983597650891e-06,5.0514612667029724e-05
-3.2499850931344554e-05,6.38791743767797e-06,2.37506219491479e-06,-1.6890701317606727e-06,5.163847527001053e-05
-2.486022458469961e-05,3.2420568913948955e-06,8.602441994298715e-06,3.116129789759725e-07,5.28231576026883e-05
-2.705114457057789e-05,-1.8038926441477088e-07,1.5072357200551778e-05,3.1589859190717107e-06,5.3785879572387785e-05
-3.5237644624430686e-05,-8.152954251272604e-06,2.0014645997434855e-05,5.6128869800886605e-06,5.13123013661243e-05
-3.481468593236059e-05,-1.847660132625606e-05,2.0877858332823962e-05,7.764796464471146e-06,4.750816151499748e-05
-2.794155261653941e-05,-1.6983703972073272e-05,1.932036320795305e-05,8.690726644999813e-06,4.770913437823765e-05
-2.4233651856775396e-05,1.6337488659701194e-06,1.6767387933214195e-05,7.0616388256894425e-06,5.0072405429091305e-05
-2.1813204512000084e-05,2.4282009690068662e-05,1.2925671398988925e-05,2.3046484329825034e-06,5.225896165939048e-05
-1.5341716789407656e-05,3.7807298213010654e-05,1.0435473086545244e-05,-5.014132511860225e-06,5.4577700211666524e-05
-7.910433851066045e-06,4.275251558283344e-05,1.0323004062229302e-05,-1.1567427463887725e-05,5.667415098287165e-05
-6.042635050107492e-06,4.869827535003424e-05,1.0079916137328837e-05,-1.25960623336141e-05,5.7815806940197945e-05
-7.602015557495179e-06,5.800331928185187e-05,1.318934573646402e-05,-1.2896404768980574e-05,5.861578028998338e-05
-1.4713693417434115e-05,5.446358409244567e-05,1.855209302448202e-05,-1.4979586012486834e-05,6.0003068938385695e-05
-2.1102805476402864e-05,4.525633266894147e-05,1.542308928037528e-05,-1.6322544979630038e-05,6.293343903962523e-05
-1.9670942492666654e-05,4.179549068794586e-05,6.042052064003656e-06,-1.6505764506291598e-05,6.508409569505602e-05
-1.9158263967256062e-05,3.9830327295931056e-05,1.936942197744429e-07,-1.6913729268708266e-05,6.274708721321076e-05
-2.2096919565228745e-05,3.8636244426015764e-05,6.511934884656512e-07,-1.7219572328031063e-05,5.797203630208969e-05
-2.4634413421154022e-05,3.885601836373098e-05,3.5055579701293027e-06,-1.8443915905663744e-05,5.881680772290565e-05
-2.3829426936572418e-05,3.900233787135221e-05,8.537941198483168e-07,-1.934588908625301e-05,6.411687354557216e-05
-2.3713233531452715e-05,3.7354609958129004e-05,-4.7580997488694265e-06,-1.9388295186217874e-05,6.500411836896092e-05
-2.30564965022495e-05,3.557864692993462e-05,-5.808157311548712e-06,-2.119131931976881e-05,6.194046000018716e-05
-2.3160906494013034e-05,3.442206798354164e-05,-1.8137351389668765e-06,-2.2920339688425884e-05,5.914912253501825e-05
-2.66840543190483e-05,3.614883462432772e-05,3.0972526019468205e-06,-2.2125230316305533e-05,6.0101639974163845e-05
-3.0394821806112304e-05,3.739624662557617e-05,7.998030014277902e-06,-1.8285229089087807e-05,6.194237357703969e-05
-3.178955375915393e-05,3.5554410715121776e-05,1.0417726116429549e-05,-1.810192952689249e-05,6.19927523075603e-05
-3.105085124843754e-05,3.2007370464270934e-05,1.0394830496807117e-05,-2.0825073079322465e-05,6.094311174820177e-05
-3.0057755793677643e-05,2.8927179300808348e-05,9.866089385468513e-06,-2.228913399449084e-05,6.158300675451756e-05
-2.878543637052644e-05,2.5922390705090947e-05,7.66871016821824e-06,-2.1481680960278027e-05,6.365678564179689e-05
-2.6974208594765514e-05,2.5075061785173602e-05,2.8875986117782304e-06,-1.9621791579993442e-05,6.389344343915582e-05
-2.2667132725473493e-05,2.6136029191548005e-05,-4.807102868653601e-06,-2.018925988522824e-05,6.163483340060338e-05
-1.8964365153806284e-05,2.7823034542961977e-05,-1.2959737432538532e-05,-2.2145335606182925e-05,6.063778346288018e-05
-1.956948653969448e-05,2.7431302441982552e-05,-1.750292540236842e-05,-2.1148440282559022e-05,6.079090599087067e-05
-2.048525129794143e-05,2.2853899281471968e-05,-1.6744212189223617e-05,-1.6885740478755906e-05,5.997047992423177e-05
-1.8596234440337867e-05,2.0260225937818177e-05,-1.4188195564202033e-05,-1.0695903256419115e-05,5.914170105825178e-05
-1.76299326994922e-05,2.148888961528428e-05,-1.0586759344732855e-05,-6.4986511461029295e-06,5.959764894214459e-05
-1.8307127902517095e-05,2.3566683012177236e-05,-4.331915533839492e-06,-7.3234905357821845e-06,6.041727465344593e-05
-2.0263765691197477e-05,2.5579978682799265e-05,1.704962983239966e-06,-7.661290510441177e-06,5.880023672943935e-05
-2.0100484107388183e-05,2.6740997782326303e-05,5.152593075763434e-06,-9.590594345354475e-06,5.6317698181374e-05
-2.080035483231768e-05,2.66330625890987e-05,8.680522114445921e-06,-1.2352294106676709e-05,5.4600430303253233e-05
-2.805058829835616e-05,2.3849059289204888e-05,1.713993879093323e-05,-1.3629735803988297e-05,5.538704135688022e-05
-3.149961048620753e-05,1.793976298358757e-05,2.3668511857977137e-05,-1.1663578334264457e-05,5.899531606701203e-05
-2.8245516659808345e-05,1.5071969755808823e-05,2.45681239903206e-05,-8.556411557947285e-06,6.421635043807328e-05
-2.573321216914337e-05,1.2465250620152801e-05,2.346251676499378e-05,-7.678803740418516e-06,6.823737930972129e-05
-2.501209564798046e-05,1.4029280919203302e-06,1.933932253450621e-05,-5.786624569736887e-06,7.0904367021285e-05
-2.670933463377878e-05,-1.220776994159678e-05,1.6012214473448694e-05,-4.13790166930994e-06,7.087782432790846e-05
-2.6349835025030188e-05,-1.7992186258197762e-05,1.3848119124304503e-05,-1.6200593790927087e-06,6.726570427417755e-05
-2.4645096345921047e-05,-1.3180536370782647e-05,1.2792540474038105e-05,1.387295696986257e-06,6.173038127599284e-05
-2.6634246751200408e-05,-2.839973831214593e-06,1.0759294127637986e-05,1.6159887650246674e-07,5.763504668720998e-05
-2.8521279091364704e-05,1.5728655853308737e-05,7.922772965684999e-06,-2.866323256967007e-06,5.8038014685735106e-05
-2.645891254360322e-05,4.0908518712967634e-05,6.336621481750626e-06,-5.2516834330162965e-06,6.303797999862581e-05
-2.12414852285292e-05,5.9640758991008624e-05,6.199485142133199e-06,-9.046655577549245e-06,6.68050633976236e-05
-1.4539355106535368e-05,6.717522774124518e-05,5.766026788478484e-06,-1.1365054888301529e-05,6.865368050057441e-05
-1.1090111911471467e-05,6.65903280605562e-05,5.445968781714328e-06,-9.686674275144469e-06,7.079588249325752e-05
-1.3014156138524413e-05,6.348807801259682e-05,6.212913376657525e-06,-6.100969130784506e-06,7.252047362271696e-05
-1.90095161087811e-05,5.988303746562451e-05,5.828960638609715e-06,-6.241520623007091e-06,7.135936903068796e-05
-2.5885981813189574e-05,5.565338869928382e-05,4.641089162760181e-06,-1.0612677215249278e-05,6.897808634676039e-05
-2.9251914384076372e-05,5.2546911319950595e-05,2.7156279429618735e-06,-1.4099486179475207e-05,6.824228330515325e-05
-3.0101833544904366e-05,5.515194789040834e-05,-7.966444854901056e-07,-1.2855419299739879e-05,7.07036888343282e-05
-2.9220591386547312e-05,5.932562271482311e-05,-5.623182914860081e-06,-1.0655857295205351e-05,7.351565000135452e-05
-2.7279715141048655e-05,5.574403621722013e-05,-7.78556386649143e-06,-1.3160899470676668e-05,6.844294694019482e-05
-2.67998366325628e-05,4.456624446902424e-05,-7.169081982283387e-06,-1.7772852515918203e-05,5.9552181483013555e-05
-2.7482401492306963e-05,3.6165776691632345e-05,-6.786630365240853e-06,-1.8515818737796508e-05,5.967484321445227e-05
-2.7741349185816944e-05,4.008604446426034e-05,-6.18449121247977e-06,-1.4176363947626669e-05,6.501274765469134e-05
-2.3955728465807624e-05,5.691427577403374e-05,-5.554241397476289e-06,-9.818112630455289e-06,6.395490345312282e-05
-1.798746598069556e-05,8.283583156298846e-05,-5.360870545700891e-06,-8.214671652240213e-06,6.185553502291441e-05
-1.4810390894126613e-05,9.793986828299239e-05,-3.2009731967264088e-06,-6.3630709519202355e-06,6.388082692865282e-05
-1.4123129403742496e-05,7.021622150205076e-05,1.7302629657933721e-06,-5.482114374899538e-06,6.522379408124834e-05
-1.9943003280786797e-05,2.6367253667558543e-05,6.188381576066604e-06,-7.001841822784627e-06,6.11132345511578e-05
-2.9038568754913285e-05,1.333787167823175e-05,6.400840447895462e-06,-8.107997018669266e-06,5.8205299865221605e-05
-3.4677919757086784e-05,1.6635574866086245e-05,2.2659619389742147e-06,-8.530620107194409e-06,5.834622061229311e-05
-3.40051410603337e-05,1.024433095153654e-05,-5.327891358319903e-06,-1.0238337381451856e-05,6.018369094817899e-05
-3.507154178805649e-05,-3.333858330734074e-06,-6.637352726102108e-06,-1.4428450413106475e-05,5.970029087620787e-05
-3.822859798674472e-05,-9.945618330675643e-06,-3.033807843166869e-06,-1.7520771507406607e-05,5.845340638188645e-05
-3.6955883842892945e-05,-6.99124484526692e-06,-2.6828981845028466e-06,-2.0074841813766398e-05,5.8495035773376e-05
-3.077628571190871e-05,-8.016205583771807e-07,-4.455967427929863e-06,-2.1655110685969703e-05,6.0184211179148406e-05
-2.5125393221969716e-05,5.252463324723067e-06,-5.272148882795591e-06,-2.2366157281794585e-05,6.29215719527565e-05
-2.3603941372130066e-05,7.817810001142789e-06,-3.8557536754524335e-06,-2.0329622202552855e-05,6.3393272284884e-05
-2.371338996454142e-05,4.236777385813184e-06,-8.464643315164722e-07,-1.5288227587006986e-05,6.106247747084126e-05
-2.591263546491973e-05,-3.1648132789996453e-06,1.438305048395705e-06,-1.0527359336265363e-05,5.840662925038487e-05
-2.917623169196304e-05,-5.204436092753895e-06,-2.9074781195959076e-06,-8.646409696666524e-06,5.7459401432424784e-05
-3.4020358725683764e-05,3.3509195418446325e-06,-1.069530571840005e-05,-1.048711874318542e-05,5.5405947932740673e-05
-3.7186549889156595e-05,1.345038072031457e-05,-1.4391937838809099e-05,-1.0922019100689795e-05,5.1062168495263904e-05
-3.625521276262589e-05,1.823872844397556e-05,-1.2032433005515486e-05,-7.391678536805557e-06,4.7987854486564174e-05
-3.089164601988159e-05,2.0173027223790996e-05,-6.653777745668776e-06,-4.2493766159168445e-06,4.930771319777705e-05
-2.5329587515443563e-05,2.3887003408162855e-05,4.316080151056667e-07,-4.246627213433385e-06,5.277222953736782e-05
-2.2873282432556152e-05,2.8621152523555793e-05,6.943208063603379e-06,-4.550595349428477e-06,5.523019717657007e-05
-2.385387779213488e-05,3.1461790058529004e-05,1.0204747013631277e-05,-4.741776592709357e-06,5.3704119636677206e-05
-2.3359607439488173e-05,3.2597519748378545e-05,1.2857632100349292e-05,-5.535184754990041e-06,5.022946061217226e-05
-1.8131884644390084e-05,3.82124817406293e-05,1.909338607219979e-05,-6.1732871472486295e-06,4.964282925357111e-05
-1.5584228094667196e-05,5.0364640628686175e-05,2.45287264988292e-05,-7.829921742086299e-06,5.2674080507131293e-05
-2.036083060374949e-05,5.825600601383485e-05,2.1804182324558496e-05,-1.1151462786074262e-05,5.302053614286706e-05
-2.9580451155197807e-05,4.8824349505594e-05,1.2956764294358436e-05,-1.2790380424121395e-05,4.9703099648468196e-05
-3.76059724658262e-05,1.4235005437512882e-05,6.342221240629442e-06,-1.4906019714544527e-05,4.779924711328931e-05
-3.5352979466551915e-05,-1.6963038433459587e-05,6.366264642565511e-06,-1.6717571270419285e-05,4.9323178245685995e-05
-2.8657053917413577e-05,-5.79865081817843e-06,1.0044007467513438e-05,-1.5178648027358577e-05,5.2416693506529555e-05
-2.8844786356785335e-05,2.5009745513671078e-05,1.2182073078292888e-05,-9.984742064261809e-06,5.422312460723333e-05
-3.9132137317210436e-05,3.8107587897684425e-05,1.297884500672808e-05,-7.16388694854686e-06,5.1539747801143676e-05
-4.7851091949269176e-05,3.843017475446686e-05,1.4344654118758626e-05,-7.178435680543771e-06,4.870823249802925e-05
-4.722607263829559e-05,4.0147344407159835e-05,1.5579913451801986e-05,-7.405934866255848e-06,4.576070568873547e-05
-4.442395947990008e-05,4.517162233241834e-05,1.4875488886900712e-05,-8.536061613995116e-06,4.4418095058063045e-05
-4.029553383588791e-05,4.572111356537789e-05,1.4775443560210988e-05,-8.456457180727739e-06,4.544757030089386e-05
-3.611539796111174e-05,4.515848559094593e-05,1.7241020032088272e-05,-7.211710453702835e-06,4.9440914153819904e-05
-2.730970663833432e-05,5.662689727614634e-05,1.965612500498537e-05,-5.116484317113645e-06,5.500854240381159e-05
-1.68884052982321e-05,7.460907363565639e-05,1.942919880093541e-05,-2.401096935500391e-06,5.8656511100707576e-05
-1.0614124221319798e-05,7.998553337529302e-05,1.9231390979257412e-05,7.962610197864706e-07,6.12261428614147e-05
-9.755134669831023e-06,5.436176070361398e-05,2.071576818707399e-05,2.9232164706627373e-06,6.218595081008971e-05
-1.348534624412423e-05,9.529587714496301e-07,1.9732107830350287e-05,3.3278877253906103e-06,6.325935828499496e-05
-2.326499088667333e-05,-4.740786607726477e-05,1.6413792764069512e-05,-2.9761116593363113e-07,6.348492752294987e-05
-3.4903769119409844e-05,-5.6120123190339655e-05,1.2869238162238616e-05,-5.3196895350993145e-06,6.261677481234074e-05
-4.1840663470793515e-05,-2.708561805775389e-05,1.1121594980068039e-05,-8.18474745756248e-06,6.133175338618457e-05
-4.136081406613812e-05,1.0880306945182383e-05,9.118802154262085e-06,-9.238657185051125e-06,5.969495396129787e-05
-3.3883145079016685e-05,4.242048453306779e-05,5.229189810052048e-06,-8.773734407441225e-06,5.90379313507583e-05
-2.3259523004526272e-05,6.364608270814642e-05,2.120317958542728e-06,-6.830250185885234e-06,6.194598245201632e-05
-1.379396144329803e-05,7.545662083430216e-05,4.107394943275722e-06,-8.559834896004759e-06,6.561852933373302e-05
-9.131307706411462e-06,8.448094013147056e-05,8.646252354083117e-06,-1.3874348042008933e-05,6.517543079098687e-05
-7.952782652864698e-06,8.993381925392896e-05,9.134474566963036e-06,-1.5835043086553924e-05,5.9805526689160615e-05
-5.53356812815764e-06,8.419051300734282e-05,4.5151455196901225e-06,-1.5903708117548376e-05,5.648232399835251e-05
4.0087807064992376e-06,6.753841444151476e-05,-1.578673845870071e-06,-1.698063533694949e-05,5.897131632082164e-05
2.2831573005532846e-05,3.8125239370856434e-05,-5.1926090236520395e-06,-1.6898569811019115e-05,6.464602483902127e-05
3.716616993187927e-05,-1.99358746613143e-05,-7.71558188716881e-06,-1.6373325706808828e-05,6.865774048492312e-05
3.3331474696751684e-05,-7.772250683046877e-05,-6.6161951508547645e-06,-1.4218448086467106e-05,6.981424667173997e-05
1.6144393157446757e-05,-7.050189014989883e-05,-3.6311728308646707e-06,-1.0336097147956025e-05,6.707238935632631e-05
-5.449202944873832e-06,-2.1122550606378354e-05,-3.284585545770824e-06,-8.117768629745115e-06,6.102594124968164e-05
-1.5937250282149762e-05,1.1129885933769401e-05,-2.8635522539843805e-06,-9.091557330975775e-06,6.0275364376138896e-05
-1.8131593606085517e-05,1.9156599591951817e-05,-5.5833238548075315e-06,-1.078744389815256e-05,6.598768231924623e-05
-2.1832789570908062e-05,1.5689533029217273e-05,-7.512490810768213e-06,-9.863014383881819e-06,7.009535329416394e-05
-2.7883970687980764e-05,1.9203926058253273e-05,-9.199237865686882e-06,-9.354875146527775e-06,7.016754534561187e-05
-3.520378959365189e-05,3.198314516339451e-05,-1.2645173228520434e-05,-8.76369813340716e-06,6.827219476690516e-05
-4.382302358862944e-05,4.0063845517579466e-05,-1.0517876035009976e-05,-7.1556191869603936e-06,6.457119161495939e-05
-5.0622300477698445e-05,3.7170200812397525e-05,-3.2053294489742257e-06,-5.518919806490885e-06,5.88105249335058e-05
-5.575787872658111e-05,2.7363445042283274e-05,1.54988174472237e-06,-5.452560344565427e-06,5.4138472478371114e-05
-6.010498691466637e-05,2.1036159523646347e-05,1.4275495914262137e-06,-4.297156465327134e-06,5.306558159645647e-05
-5.86191781621892e-05,2.11520709854085e-05,-2.3882432742539095e-07,-2.40117083194491e-06,5.3045081585878506e-05
-5.103296280140057e-05,2.509899604774546e-05,-3.569110162970901e-07,-2.242258915430284e-06,5.137615153216757e-05
-4.207682650303468e-05,3.272766844020225e-05,2.7058154046244454e-06,-5.3973408284946345e-06,4.789093145518564e-05
-3.754084900720045e-05,3.775333607336506e-05,4.422904567036312e-06,-9.37734148465097e-06,4.6152883442118764e-05
-3.932891195290722e-05,3.2254360121442005e-05,1.9475471617624862e-06,-1.1260305655014236e-05,4.9207930715056136e-05
-4.6867258788552135e-05,1.8863034711102955e-05,-2.0229419988027075e-06,-1.0719460988184437e-05,5.3894469601800665e-05
-5.029537351219915e-05,9.960143870557658e-06,-1.97565850612591e-06,-7.931077561806887e-06,5.5627155234105885e-05
-4.216815796098672e-05,1.1586280379560776e-05,1.1519963436512626e-06,-7.255313903442584e-06,5.5010284995660186e-05
-2.7718833734979853e-05,2.077416138490662e-05,3.4265419799339725e-06,-9.55652376433136e-06,5.553861046792008e-05
-1.8775506759993732e-05,3.539463796187192e-05,3.6092696973355487e-06,-9.377882633998524e-06,5.727041934733279e-05
-2.335928729735315e-05,5.216909994487651e-05,3.7725501442764653e-06,-5.0627486416487955e-06,5.964560841675848e-05
-3.446669870754704e-05,6.761915574315935e-05,5.448879164760001e-06,-1.9363640149094863e-06,6.308843148872256e-05
-3.7661684473278e-05,7.982751412782818e-05,5.7949487199948635e-06,-3.2771731639513746e-07,6.796432717237622e-05
-3.410025601624511e-05,8.283578063128516e-05,4.468919087230461e-06,-1.0257988947159902e-07,7.1694579673931e-05
-3.124985596514307e-05,7.79957408667542e-05,6.138250682852231e-06,-5.213090389588615e-06,6.947493238840252e-05
-2.5444816856179386e-05,7.314559479709715e-05,8.886860996426549e-06,-1.1629561413428746e-05,6.743893754901364e-05
-1.6529380445717834e-05,6.595399463549256e-05,9.76030969468411e-06,-1.3790910998068284e-05,6.88934451318346e-05
-1.385144150845008e-05,4.868044561590068e-05,9.963346201402601e-06,-1.8258213458466344e-05,6.691545422654599e-05
-1.640104346734006e-05,2.7560976377571933e-05,1.2425941349647474e-05,-2.206572207796853e-05,6.4166757510975e-05
-1.685984716459643e-05,1.985741801036056e-05,1.455567962693749e-05,-2.052377567451913e-05,6.624472007388249e-05
-1.3172690159990452e-05,2.5162215024465695e-05,1.5402090866700746e-05,-1.842648816818837e-05,6.970343383727595e-05
-8.152492227964103e-06,3.24102547892835e-05,1.6586667697993107e-05,-1.460322891944088e-05,7.148398435674608e-05
-6.572627171408385e-06,3.6486471799435094e-05,1.757790960255079e-05,-9.618319381843321e-06,6.947290967218578e-05
-1.53453311213525e-05,3.561683479347266e-05,1.8655538951861672e-05,-7.048799943731865e-06,6.577838212251663e-05
-2.8746962925652042e-05,3.256809577578679e-05,1.776498720573727e-05,-4.553271537588444e-06,6.247669080039486e-05
-3.921678944607265e-05,2.9019132853136398e-05,1.3514596503227949e-05,-3.544680339473416e-06,6.196282629389316e-05
-4.3455227569211274e-05,2.5759554773685522e-05,9.388621037942357e-06,-4.526798875303939e-06,6.333905184874311e-05
-4.0775685192784294e-05,2.2774025637772866e-05,9.639807103667408e-06,-5.901560598431388e-06,6.648041744483635e-05
-3.4949702239828184e-05,1.958849315997213e-05,1.061916736944113e-05,-5.584027348959353e-06,6.921167369000614e-05
-2.99454914056696e-05,2.038259663095232e-05,1.1279356840532273e-05,-5.3118792493478395e-06,6.52254675514996e-05
-3.156931416015141e-05,2.6439969587954693e-05,9.829856935539283e-06,-6.732529072905891e-06,5.728132964577526e-05
-3.9478301914641634e-05,3.2621410355204716e-05,6.123887942521833e-06,-9.006096661323681e-06,5.234939817455597e-05
-4.858516331296414e-05,3.360803020768799e-05,2.6413865725771757e-06,-9.999299436458386e-06,5.216823410592042e-05
-4.8408470320282504e-05,3.157003811793402e-05,1.2733067933368147e-06,-7.852645467210095e-06,5.303092621034011e-05
-3.986209776485339e-05,3.416524123167619e-05,3.116121661150828e-06,-3.4799493278114824e-06,5.345139288692735e-05
-3.133081554551609e-05,4.073348827660084e-05,8.439509656454902e-06,1.5080590856086928e-06,5.383009556680918e-05
-3.020151416421868e-05,4.311310112825595e-05,1.1967779755650554e-05,4.062896096002078e-06,5.694752326235175e-05
-3.280058444943279e-05,3.5289383959025145e-05,1.0526016922085546e-05,4.678299319493817e-06,6.301877147052437e-05
-3.246362757636234e-05,1.9063456420553848e-05,9.400916496815626e-06,3.8503108044096734e-06,6.681677041342482e-05
-3.098134766332805e-05,3.6646529224526603e-06,7.88191937317606e-06,5.139449399393925e-07,6.225620018085465e-05
-2.7882457288797013e-05,-5.2736327234015334e-06,3.335126393722021e-06,-2.4152773221430834e-06,5.5008811614243314e-05
-2.348134330532048e-05,-4.835173967876472e-06,-1.6239614524238277e-06,-2.2922674816072686e-06,5.2601775678340346e-05
-2.5187768187606707e-05,-3.959902642236557e-06,-5.782796051789774e-06,-2.1125360945006832e-06,5.106551179778762e-05
-2.6961677576764487e-05,-2.9869190257159062e-05,-1.2079526641173288e-05,-3.0371336379175773e-06,4.9824775487650186e-05
-1.921466719068121e-05,-7.714450475759804e-05,-1.5809551769052632e-05,-3.3108258321590256e-06,5.073147258372046e-05
-3.94722837882e-06,-7.546222332166508e-05,-1.2505470294854604e-05,1.9701087428103392e-09,5.265898289508186e-05
7.88976285548415e-06,-9.803222383197863e-06,-6.400527581718052e-06,2.795686896206462e-06,5.563239028560929e-05
3.4161514577135677e-06,5.1029095629928634e-05,2.476758027114556e-06,1.0924528623945662e-06,5.791784496977925e-05
-7.994250154297333e-06,7.111566083040088e-05,9.675808541942388e-06,-4.320902462495724e-06,6.251444574445486e-05
-1.785296990419738e-05,6.775039219064638e-05,1.2532743312476669e-05,-6.819070677011041e-06,6.601255881832913e-05
-2.2824549887445755e-05,6.948985537746921e-05,1.4359896340465639e-05,-5.3608441703545395e-06,6.474921246990561e-05
-2.1495126929949038e-05,7.14931811671704e-05,1.4752689821762033e-05,-3.934845608455362e-06,6.181384378578514e-05
-2.0079838577657938e-05,4.799827729584649e-05,1.3315228898136411e-05,-2.6142256501771044e-06,6.001766450935975e-05
-2.055439108517021e-05,3.416298341107904e-06,1.1370089850970544e-05,-1.2959252444488811e-06,5.7718098105397075e-05
-2.042691266979091e-05,-1.6974137906800024e-05,9.776502338354476e-06,5.735728905165161e-07,5.584003156400286e-05
-2.0803845472983085e-05,2.6763045752886683e-06,8.297020940517541e-06,4.149494543526089e-06,5.69806870771572e-05
-2.1135077986400574e-05,3.297292278148234e-05,9.635677088226657e-06,5.665334356308449e-06,5.763837179983966e-05
-2.101968311762903e-05,4.9710120947565883e-05,1.4798143638472538e-05,3.2024263418861665e-06,5.658618101733737e-05
-2.0485480490606278e-05,5.227648216532543e-05,1.7850070435088128e-05,8.742373438508366e-07,5.6443568610120565e-05
-2.0022976968903095e-05,4.8280766350217164e-05,1.5267713024513796e-05,1.335389242740348e-06,5.733237412641756e-05
-2.1220183043624274e-05,4.25235484726727e-05,1.1248685950704385e-05,1.9991432509414153e-06,5.676051659975201e-05
-2.3108386812964454e-05,3.846154868369922e-05,9.634948582970537e-06,-8.264564712590072e-07,5.614178371615708e-05
-2.368043533351738e-05,3.231880327803083e-05,1.125488051911816e-05,-7.854177056287881e-06,5.539245830732398e-05
-2.505005795683246e-05,2.5737825126270764e-05,1.4102697605267167e-05,-1.56135211000219e-05,5.319865158526227e-05
-3.204363747499883e-05,2.8220825697644614e-05,1.3987008969706949e-05,-1.8847505998564884e-05,5.0835304136853665e-05
-4.083850217284635e-05,4.131923196837306e-05,1.1411883861001115e-05,-1.799741767172236e-05,5.048194361734204e-05
-4.160768730798736e-05,4.7226003516698256e-05,8.926514055929147e-06,-1.5574009012198076e-05,5.276588490232825e-05
-3.132786150672473e-05,3.706488496391103e-05,4.756559519591974e-06,-1.5720026567578316e-05,5.7443776313448325e-05
-2.2711859855917282e-05,2.3389373382087797e-05,1.5279056242434308e-06,-1.6760099242674187e-05,6.111888069426641e-05
-2.2873269699630328e-05,1.9437762603047304e-05,2.6254992917529307e-06,-2.0254336050129496e-05,6.140684854472056e-05
-2.5071518393815495e-05,3.116794323432259e-05,3.903483047906775e-06,-2.294322257512249e-05,5.973680526949465e-05
-2.5724031729623675e-05,5.4708780226064846e-05,3.499312924759579e-06,-2.3460073862224817e-05,6.007337287883274e-05
-2.284276342834346e-05,7.25451682228595e-05,2.5681210900074802e-06,-2.2538044504472055e-05,6.060172017896548e-05
-1.870888445409946e-05,7.066053512971848e-05,2.233382019767305e-06,-1.7776326785678975e-05,6.081065293983556e-05
-1.746970519889146e-05,5.128905831952579e-05,2.718374162213877e-06,-1.4565048331860453e-05,6.26043402007781e-05
-2.10364432859933e-05,2.827921707648784e-05,-5.597959216174786e-07,-1.3204859897086862e-05,6.544062489410862e-05
-3.000491051352583e-05,1.668042386882007e-05,-4.313538738642819e-06,-1.1004497537214775e-05,6.550508987857029e-05
-3.7032365071354434e-05,1.5248659110511653e-05,-3.60766989615513e-06,-9.132571904046927e-06,6.282503454713151e-05
-3.7286059523466974e-05,1.6203646737267263e-05,-5.0625612146859567e-08,-9.569534995534923e-06,5.924714423599653e-05
-2.9954038836876862e-05,1.5542424080194905e-05,9.318343927589012e-07,-1.039357539411867e-05,5.9295332903275266e-05
-2.236964246549178e-05,1.029942086461233e-05,1.2144888614784577e-06,-1.199874714075122e-05,6.192757427925244e-05
-1.8830363842425868e-05,-8.983176513766011e-08,1.8207850871476694e-06,-1.2578152563946787e-05,6.330849282676354e-05
-1.8555441783973947e-05,-7.757627827231772e-06,2.179642706323648e-06,-1.2866237739217468e-05,6.437078263843432e-05
-2.1924093744019046e-05,-2.54584961112414e-06,3.3039902973541757e-06,-1.4267395272327121e-05,6.228365964489058e-05
-2.7749028959078714e-05,1.3712166946788784e-05,6.710667094012024e-06,-1.628111203899607e-05,5.984239396639168e-05
-3.2504016417078674e-05,2.910955299739726e-05,1.090212754206732e-05,-1.9311666619614698e-05,6.156016024760902e-05
-3.5196080716559663e-05,3.608810584410094e-05,1.2103809240215924e-05,-2.1244984964141622e-05,6.551343540195376e-05
-3.6040350096300244e-05,3.682398528326303e-05,9.613546353648417e-06,-1.7291715266765095e-05,6.752713670721278e-05
-3.4892273106379434e-05,3.493702752166428e-05,6.5953636294580065e-06,-9.699574547994416e-06,6.863381713628769e-05
-3.379263944225386e-05,2.6451933081261814e-05,6.516969733638689e-06,-8.866816642694175e-06,6.745839345967397e-05
-3.325496436445974e-05,5.7869583542924374e-06,6.813263553340221e-06,-1.473141946917167e-05,6.410161586245522e-05
-3.60993217327632e-05,-8.791446816758253e-06,7.457951596734347e-06,-1.8153932614950463e-05,5.9838213928742334e-05
-4.219608672428876e-05,4.27078657594393e-06,5.383440111472737e-06,-1.585580139362719e-05,5.69912554055918e-05
-3.9994098187889904e-05,3.0828545277472585e-05,-8.058209459704813e-07,-1.2904712093586568e-05,5.591689478023909e-05
-3.027977618330624e-05,4.632518539438024e-05,-1.106158106267685e-05,-1.2193109796498902e-05,5.7135177485179156e-05
-2.2660891772829928e-05,4.913348675472662e-05,-2.2003770936862566e-05,-1.5111419997992925e-05,6.106765067670494e-05
-1.2213837180752307e-05,4.087041816092096e-05,-2.7264783057034947e-05,-1.6585390767431818e-05,6.748466694261879e-05
-4.6395784920605365e-06,2.5549696147209033e-05,-2.4365706849494018e-05,-1.43989664138644e-05,7.230512710520998e-05
-2.1940766146144597e-06,1.3914091141487006e-05,-2.0846988263656385e-05,-1.3399083400145173e-05,7.226128946058452e-05
-5.317421710060444e-06,6.12258327237214e-06,-1.734839861455839e-05,-1.3245165973785333e-05,6.957287405384704e-05
-1.2431627510522958e-05,3.36384823640401e-06,-9.52597565628821e-06,-1.3246788512333296e-05,6.316891813185066e-05
-2.302866050740704e-05,3.3124565561593045e-06,-2.457489472362795e-06,-1.4230008673621342e-05,5.8704019465949386e-05
-3.301218384876847e-05,3.0636995234090136e-06,1.7361464870191412e-06,-1.599241113581229e-05,5.8828336477745324e-05
-3.713383193826303e-05,4.588565388985444e-06,7.045850452414015e-06,-1.9059621990891173e-05,6.0992893850198016e-05
-4.00729950342793e-05,1.327529753325507e-05,1.3066874089417979e-05,-2.1819980247528292e-05,6.186246173456311e-05
-4.148886728216894e-05,2.6698347937781364e-05,1.6148973372764885e-05,-2.250242505397182e-05,5.9548590797930956e-05
-4.148745574639179e-05,3.093182385782711e-05,1.891137617349159e-05,-2.191236308135558e-05,5.807845082017593e-05
-3.679237488540821e-05,2.7344971385900863e-05,2.4370328901568428e-05,-2.134580245183315e-05,5.906756268814206e-05
-3.1097941246116534e-05,2.3755257643642835e-05,2.7154565032105893e-05,-1.9183786207577214e-05,6.112208939157426e-05
-2.907939051510766e-05,2.5790315703488886e-05,2.7062334993388504e-05,-1.612215601198841e-05,6.113788549555466e-05
-2.9406321118585765e-05,2.8474647479015402e-05,2.671507536433637e-05,-1.3904206753068138e-05,5.8657762565417215e-05
-3.160861160722561e-05,2.7163943741470575e-05,2.5366858608322218e-05,-1.2063759641023353e-05,5.5987300584092736e-05
-3.370111880940385e-05,2.410763772786595e-05,2.2540478312294e-05,-8.620056178187951e-06,5.485989822773263e-05
-3.344384458614513e-05,2.4399490939686075e-05,1.9003708075615577e-05,-4.507722678681603e-06,5.308470645104535e-05
-3.3908600016729906e-05,3.134264989057556e-05,1.4459371413977351e-05,-3.6005324091092916e-06,5.187514761928469e-05
-3.778202517423779e-05,4.185961734037846e-05,9.151327503786888e-06,-5.762165528722107e-06,5.126675750943832e-05
-4.220418486511335e-05,5.589479405898601e-05,5.67797496842104e-06,-9.179096196021419e-06,4.97405490023084e-05
-4.3424315663287416e-05,8.106320456136018e-05,6.9223819991748314e-06,-1.2584767318912782e-05,5.034240894019604e-05
-4.071750299772248e-05,0.00011923443526029587,9.688899808679707e-06,-1.4349432603921741e-05,5.37829109816812e-05
-3.810001362580806e-05,0.00015449861530214548,8.733315553399734e-06,-1.4018432921147905e-05,5.744446752942167e-05
-3.872124580084346e-05,0.00016668402531649917,6.143924565549241e-06,-1.539311597298365e-05,5.646793943014927e-05
-4.109967630938627e-05,0.00015180207265075296,9.207993798554526e-07,-1.701589280855842e-05,5.166911068954505e-05
-4.1454648453509435e-05,0.00011768168769776821,-5.780488208984025e-06,-1.5966974387993105e-05,4.9536745791556314e-05
-4.0003742469707504e-05,6.89149892423302e-05,-7.747743438812904e-06,-1.1593469935178291e-05,4.80864655401092e-05
-3.934652704629116e-05,2.3122467609937303e-05,-3.487898993626004e-06,-6.220067916729022e-06,4.842204361921176e-05
-3.7648133002221584e-05,-1.62330597959226e-05,4.1125395000563003e-07,-4.665613687393488e-06,5.0521190132712945e-05
-3.14673779939767e-05,-5.8482462918618694e-05,1.721121407172177e-06,-7.102906238287687e-06,5.140105349710211e-05
-2.4941302399383858e-05,-9.833835792960599e-05,3.533319159032544e-06,-6.442096946557285e-06,5.628487269859761e-05
-2.3310609321924858e-05,-0.00011233393888687715,8.40694428916322e-06,-3.0448100005742162e-06,6.132318958407268e-05
-2.3389597117784433e-05,-8.791888103587553e-05,1.2567114936246071e-05,-2.593497129055322e-06,6.233558087842539e-05
-2.5214225388481282e-05,-4.6631088480353355e-05,1.4304034266388044e-05,-6.524712262034882e-06,5.7912311604013667e-05
-3.137221574434079e-05,-1.588312443345785e-05,1.3578434845840093e-05,-1.3883856809115969e-05,5.4122396250022575e-05
-3.6736564652528614e-05,-3.0586854791181395e-06,1.4592885236197617e-05,-1.8225860912934877e-05,5.3220257541397586e-05
-3.784745422308333e-05,2.491555051165051e-06,1.6629284800728783e-05,-1.8759988961392082e-05,5.446327486424707e-05
-3.5446497349767014e-05,8.443420483672526e-06,1.4651651326857973e-05,-1.778519435902126e-05,5.630476152873598e-05
-3.262443351559341e-05,2.0500629034359008e-05,9.249405593436677e-06,-1.661480746406596e-05,5.6383174523944035e-05
-3.6218403693055734e-05,3.991551784565672e-05,4.76048671771423e-06,-1.673382030276116e-05,5.4288866522256285e-05
-4.3002350139431655e-05,6.111226684879512e-05,5.692204922524979e-06,-1.7559859770699404e-05,5.067031452199444e-05
-4.613523924490437e-05,7.196185470093042e-05,8.766036444285419e-06,-1.6035062799346633e-05,5.01110298500862e-05
-4.257363252690993e-05,6.780495459679514e-05,9.006596883409657e-06,-1.1078723218815867e-05,5.318427793099545e-05
-3.514592026476748e-05,5.930912448093295e-05,6.642063908657292e-06,-6.338807452266337e-06,5.580736615229398e-05
-2.9364367946982384e-05,5.6789656809996814e-05,4.667714620154584e-06,-5.0335615924268495e-06,5.700058682123199e-05
-2.666090222191997e-05,5.7615823607193306e-05,2.2455740236182464e-06,-7.3513192546670325e-06,5.621680247713812e-05
-2.2850450477562845e-05,5.261474507278763e-05,-1.6070622450570227e-06,-9.422019502380863e-06,5.5299246014328673e-05
-1.7116271919803694e-05,4.328842260292731e-05,-5.3668163673137315e-06,-8.882740075932816e-06,5.660140959662385e-05
-1.5005758541519754e-05,3.9884329453343526e-05,-6.230593044165289e-06,-8.648820767120924e-06,5.8195280871586874e-05
-1.362524380965624e-05,4.5112345105735585e-05,-2.656425522218342e-06,-9.569380381435622e-06,6.063679757062346e-05
-1.2533046174212359e-05,4.7738511057104915e-05,1.3438285577649367e-06,-1.2384764886519406e-05,5.931962004979141e-05
-1.192499985336326e-05,4.3656007619574666e-05,-1.4431865338337957e-06,-1.6636289728921838e-05,5.42670204595197e-05
-6.932091764610959e-06,4.237720713717863e-05,-4.378666289994726e-06,-2.066250999632757e-05,4.8877154767978936e-05
3.0051103294681525e-06,3.7972542486386374e-05,-6.071511052141432e-06,-2.0406672774697654e-05,4.591198012349196e-05
1.2905106814287137e-05,2.6364063160144724e-05,-1.1618050848483108e-05,-1.267205152544193e-05,4.599919338943437e-05
1.4415186342375819e-05,1.3428146303340327e-05,-1.606830301170703e-05,-3.80450160264445e-06,4.8960104322759435e-05
6.139186098153004e-06,-2.634234078868758e-06,-1.5460946087841876e-05,-7.978328540048096e-07,5.2020568546140566e-05
-2.5119488782365806e-06,-1.4057015505386516e-05,-1.4948967873351648e-05,-5.718056854675524e-06,5.3390158427646384e-05
-1.0227882739854977e-05,-1.4215853298082948e-05,-1.2903479728265665e-05,-1.0116845260199625e-05,5.094180960441008e-05
-1.8865759557229467e-05,-8.238707778218668e-06,-9.600239536666777e-06,-8.680078281031456e-06,4.894406447419897e-05
-2.082757418975234e-05,-2.4390794806095073e-06,-7.7095746746636e-06,-5.205811248742975e-06,5.024816346121952e-05
-1.690374847385101e-05,1.9011712311112205e-06,-4.255878593539819e-06,-6.02333511778852e-06,5.147151750861667e-05
-1.3314014722709544e-05,2.9997368073964026e-06,-1.824159312491247e-07,-8.298255124827847e-06,5.189789953874424e-05
-1.6402640540036373e-05,2.6631007585820043e-06,6.000895609759027e-06,-8.486791557515971e-06,5.2565177611541e-05
-2.4414101062575355e-05,4.55807639809791e-06,9.078767106984742e-06,-6.5485414779686835e-06,5.3256950195645913e-05
-2.8490465410868637e-05,1.106860327126924e-05,7.76922570366878e-06,-5.755108759331051e-06,5.508356844075024e-05
-2.6349618565291166e-05,1.75759651028784e-05,6.3894940467434935e-06,-8.43783072923543e-06,5.906974183744751e-05
-2.3340562620433047e-05,2.280177614011336e-05,7.882352292654105e-06,-1.1129330232506618e-05,5.982155562378466e-05
-2.5105215172516182e-05,3.414428647374734e-05,1.0925937203865033e-05,-1.3511905308405403e-05,5.76308011659421e-05
-2.897569356719032e-05,5.1189945224905387e-05,1.168621292890748e-05,-1.4500438737741206e-05,5.84726149099879e-05
-3.1247971492120996e-05,6.616119935642928e-05,1.0512263543205336e-05,-1.3512325494957622e-05,6.244724499993026e-05
-3.343174830661155e-05,7.318718417081982e-05,1.0311048754374497e-05,-1.2710097507806495e-05,6.49604553473182e-05
-3.8802689232397825e-05,6.792426574975252e-05,9.982083611248527e-06,-1.4708638445881661e-05,6.610059062950313e-05
-4.2541982111288235e-05,5.1378458010731265e-05,8.596787665737793e-06,-1.7576430764165707e-05,6.639545608777553e-05
-4.051932774018496e-05,3.541266414686106e-05,9.287384273193311e-06,-1.8969327356899157e-05,6.527646473841742e-05
-3.8548219890799373e-05,2.7293499442748725e-05,1.0943791494355537e-05,-1.7086797015508637e-05,6.371510971803218e-05
-4.0003604226512834e-05,2.4330760425073095e-05,1.25740034491173e-05,-1.3291285540617537e-05,6.504789780592546e-05
-3.594596637412906e-05,2.625836896186229e-05,1.4403502063942142e-05,-1.16262035589898e-05,6.570637197000906e-05
-2.1647110770572908e-05,4.130140951019712e-05,1.5330693713622168e-05,-1.552097273815889e-05,6.416720862034708e-05
-7.94309289631201e-06,6.71717498335056e-05,1.3976050468045287e-05,-2.130808752554003e-05,6.283030961640179e-05
2.777397014597227e-07,9.098360897041857e-05,1.3585067790700123e-05,-2.540672903705854e-05,6.157871393952519e-05
4.104970230400795e-06,0.00010064893285743892,1.7229893273906782e-05,-2.1742725948570296e-05,6.297036452451721e-05
-1.9817882730421843e-06,0.00010105781257152557,1.892172804218717e-05,-1.5669635104131885e-05,6.722906982759014e-05
-1.3183408555050846e-05,8.878671360434964e-05,1.8110749806510285e-05,-1.3265213965496514e-05,6.926706555532292e-05
-2.1884583475184627e-05,4.9929702072404325e-05,1.6501982827321626e-05,-1.1846462257381063e-05,6.875384133309126e-05
-2.627287722134497e-05,1.5180748960119672e-06,1.1769401680794545e-05,-1.1349630767654162e-05,6.723684055032209e-05
-2.5715115043567494e-05,-1.9058981706621125e-05,6.659358859906206e-06,-1.2309474186622538e-05,6.830187339801341e-05
-2.2933338186703622e-05,-1.0802499673445709e-05,1.8694528307605651e-06,-1.4587893929274287e-05,7.10650856490247e-05
-2.0351988496258855e-05,-1.4107128265550273e-07,-1.661210404790836e-07,-1.543435428175144e-05,7.038734474917874e-05
-1.7094189388444647e-05,4.512903160502901e-06,8.707619940651057e-07,-1.510320453235181e-05,6.67436615913175e-05
-1.7561587810632773e-05,6.920059149706503e-06,2.777453346425318e-06,-1.1424222975620069e-05,6.251360173337162e-05
-2.027163645834662e-05,1.4850329534965567e-05,5.09448454977246e-06,-6.9900675043754745e-06,5.9397847508080304e-05
-2.1065428882138804e-05,2.242253140138928e-05,8.610139957454521e-06,-3.5742486943490803e-06,5.723934737034142e-05
-2.27213586185826e-05,2.4044406018219888e-05,1.2590879123308696e-05,-1.7217456615981064e-06,5.776614125352353e-05
-2.578582825663034e-05,2.3662354578846134e-05,1.5498297216254286e-05,-1.6219431699937559e-06,5.8404879382578656e-05
-3.007750456163194e-05,2.0866011254838668e-05,1.8010681742453016e-05,-2.763423026408418e-06,5.753289951826446e-05
-3.501307946862653e-05,1.2371167031233199e-05,1.7889980881591327e-05,-4.461721800907981e-06,5.891121691092849e-05
-3.816980461124331e-05,5.431612407846842e-06,1.2338517080934253e-05,-3.7547279134741984e-06,6.0968039178987965e-05
-3.621559517341666e-05,1.2068002433807123e-05,4.232023911754368e-06,9.440901749258046e-07,6.092608964536339e-05
-3.120714973192662e-05,3.2023479434428737e-05,-8.922239658204489e-07,4.019163498014677e-06,5.96190984651912e-05
-2.76867958746152e-05,4.912011354463175e-05,-3.176234940838185e-06,-5.811388632537273e-07,5.9006415540352464e-05
-2.771288745861966e-05,4.685666135628708e-05,-3.818618552031694e-06,-9.251483788830228e-06,5.976749525871128e-05
-3.0022058126633056e-05,3.3514694223413244e-05,-2.5388842459506122e-06,-1.3696038877242245e-05,5.859938755747862e-05
-3.397412729100324e-05,2.5258990717702545e-05,1.386080839438364e-06,-1.1914598871953785e-05,5.6950419093482196e-05
-3.359304173500277e-05,2.3509417587774806e-05,8.794157110969536e-06,-1.1191515113750938e-05,5.7860670494847e-05
-2.8423297408153303e-05,2.0874598703812808e-05,1.8421487766318023e-05,-1.3658131138072349e-05,5.7893073972081766e-05
-2.457967639202252e-05,1.2032102858938742e-05,2.3799437258276157e-05,-1.5103366422408726e-05,5.698722816305235e-05
-2.673513336048927e-05,6.2426393014902715e-06,1.8124195776181296e-05,-1.1661983080557548e-05,5.455133577925153e-05
-3.311318505438976e-05,8.980657185020391e-06,9.356695045426022e-06,-1.003229681373341e-05,5.307116225594655e-05
-4.070908107678406e-05,1.5760597307235003e-05,1.0358218787587248e-05,-1.2070749107806478e-05,5.3650805057259277e-05
-4.5756147301290184e-05,2.5617129722377285e-05,1.917600820888765e-05,-1.1729090147127863e-05,5.1878403610317037e-05
-4.461540811462328e-05,3.314183413749561e-05,2.660240716068074e-05,-9.346601473225746e-06,5.122660877532326e-05
-4.1676994442241266e-05,3.101241236436181e-05,2.5143723178189248e-05,-6.2174976847018115e-06,5.167054041521624e-05
-4.2457471863599494e-05,2.3977070668479428e-05,1.7878002836368978e-05,-2.4023124751693103e-06,5.258773671812378e-05
-4.8825630074134097e-05,2.3218963178806007e-05,1.2676061487582047e-05,-5.430602527667361e-07,5.5861975852167234e-05
-5.2577583119273186e-05,2.5954615921364166e-05,1.0365333764639217e-05,-4.122230620851042e-06,5.862621037522331e-05
-4.5440665417118e-05,2.9733284463873133e-05,7.59191016186378e-06,-4.92538765684003e-06,5.7426201237831265e-05
-3.531354741426185e-05,3.1847255741013214e-05,3.777797928705695e-06,-1.0576156910246937e-06,5.4981865105219185e-05
-3.208836278645322e-05,3.29899849020876e-05,1.490594172537385e-06,2.9482550871762214e-06,5.463171692099422e-05
-3.255375850130804e-05,3.962139453506097e-05,3.631152196703624e-07,1.4643759413957014e-06,5.8237295888829976e-05
-2.900144136219751e-05,3.6772762541659176e-05,-4.820406047656434e-07,-2.41607335738081e-06,6.350873445626348e-05
-2.06704244192224e-05,6.31681177765131e-06,-1.2183309650026786e-07,-2.6677746518544154e-06,6.786016456317157e-05
-1.2545910067274235e-05,-2.4945731638581492e-05,1.1661888947855914e-06,-1.57334079631255e-06,6.724319973727688e-05
-5.326497557689436e-06,-1.3552082236856222e-05,2.3586702013744798e-07,-8.638986628284329e-07,6.410283094737679e-05
2.6487059585633688e-06,3.15539218718186e-05,-4.519561571214581e-06,4.719665582797461e-07,6.178403418743983e-05
1.0564674994384404e-05,6.087668225518428e-05,-7.558200650237268e-06,4.1281441554019693e-07,5.9562051319517195e-05
1.547105421195738e-05,5.387687997426838e-05,-4.552585323835956e-06,-4.471578904485796e-06,5.5999647884164006e-05
1.555084418214392e-05,3.933256812160835e-05,8.324905564904839e-08,-1.1394035936973523e-05,5.330034764483571e-05
8.630168849776965e-06,4.077668199897744e-05,2.236615046058432e-06,-1.4609439858759288e-05,5.539408084587194e-05
-1.8194484709965764e-06,5.206814967095852e-05,1.7647024606048944e-06,-1.29917316371575e-05,5.6510401918785647e-05
-1.2745934327540454e-05,5.5371983762597665e-05,2.1912134684498596e-07,-1.2565942597575486e-05,5.696195148630068e-05
-2.127717380062677e-05,3.841621582978405e-05,9.638628171160235e-07,-1.2587604032887612e-05,5.884933489141986e-05
-2.510687590984162e-05,7.881222700234503e-06,5.371316092350753e-06,-9.331538421974983e-06,5.8969388192053884e-05
-2.7727350243367255e-05,-4.562921276374254e-06,7.239606020448264e-06,-4.474528850550996e-06,5.854939081473276e-05
-3.286534047219902e-05,5.355598659662064e-06,3.732612640305888e-06,-2.539427441661246e-06,6.0356986068654805e-05
-3.747918162844144e-05,1.3006117114855442e-05,2.482366426193039e-06,-1.92090942618961e-06,6.158618634799495e-05
-3.5967022995464504e-05,1.8891121726483107e-05,7.136269232432824e-06,-2.6270622583979275e-06,6.267442950047553e-05
-3.5396711609791964e-05,1.913563573907595e-05,1.2782459634763654e-05,-1.421108095200907e-06,6.380718696163967e-05
-3.795256998273544e-05,1.5092665307747666e-05,1.3968243365525268e-05,-5.853389666299336e-07,6.692492024740204e-05
-3.683584145619534e-05,1.1203475878573954e-05,7.508064300054684e-06,-8.031949505493685e-07,6.638305785600096e-05
-3.296555223641917e-05,8.006282769201789e-06,-3.0510916531056864e-06,-9.979764854506357e-07,6.421947182388976e-05
-3.6537057894747704e-05,1.3030757145315874e-05,-1.0939582352875732e-05,-4.046490630571498e-06,6.730209133820608e-05
-4.778977745445445e-05,2.5730871129781008e-05,-1.3191270227252971e-05,-5.8557575357554015e-06,7.051556167425588e-05
-5.40682885912247e-05,4.367393194115721e-05,-1.0521413059905171e-05,-4.671735041483771e-06,7.040108903311193e-05
-5.370999133447185e-05,5.791861258330755e-05,-6.480297088273801e-06,-3.2705900139262667e-06,6.631313590332866e-05
-5.205915658734739e-05,6.486751226475462e-05,-1.948066710610874e-06,-3.913732598448405e-06,6.27102199359797e-05
-4.7783418267499655e-05,6.777552334824577e-05,3.911849489668384e-06,-6.755081358278403e-06,6.322070839814842e-05
-4.045032983412966e-05,7.149379962356761e-05,1.1092480235674884e-05,-1.029354189086007e-05,6.478615250671282e-05
-3.563545033102855e-05,7.482849468942732e-05,1.7676289644441567e-05,-1.1697066838678438e-05,6.25833636149764e-05
-3.591252971091308e-05,7.170005119405687e-05,2.2989715944277123e-05,-1.1542900210770313e-05,5.8222023653797805e-05
-3.299435047665611e-05,5.882144614588469e-05,2.822051646944601e-05,-9.880845937004779e-06,5.666454671882093e-05
-2.3652904928894714e-05,3.377001849003136e-05,2.991429209941998e-05,-6.378197213052772e-06,5.968482219032012e-05
-1.6388074072892778e-05,5.58095825908822e-06,2.7855736334458925e-05,-3.2047164495452307e-06,6.51361042400822e-05
-1.2533014341897797e-05,-6.128371751401573e-06,2.5244704374927096e-05,-4.28481189373997e-06,6.834948726464063e-05
-5.199074621486943e-06,1.042304120346671e-06,2.3494954803027213e-05,-8.018898370210081e-06,6.806109013268724e-05
6.692773240501992e-06,6.179861429700395e-06,2.4195009245886467e-05,-1.1405383702367544e-05,6.677055353065953e-05
1.5020391401776578e-05,3.1011333589958667e-07,2.4592816771473736e-05,-1.3276190657052211e-05,6.30890135653317e-05
1.197819619846996e-05,-3.0398066286352332e-09,2.0384599338285625e-05,-1.3123139979143161e-05,5.7148186897393316e-05
-5.264394644655113e-07,8.358950253750663e-06,1.2310400961723644e-05,-1.2712784155155532e-05,5.239639358478598e-05
-1.458813130739145e-05,7.3880328272935e-06,4.719666321761906e-06,-1.5327805158449337e-05,4.748281935462728e-05
-2.2099831767263822e-05,-2.2845622424938483e-06,-3.1216677598422393e-07,-1.4914311577740591e-05,4.283892485545948e-05
-2.249336102977395e-05,-5.946406417933758e-06,-9.72609313976136e-07,-7.71268332755426e-06,4.2171715904260054e-05
-2.2764612367609516e-05,8.533646678188234e-07,1.305207035784406e-07,-5.378214609663701e-06,4.544570401776582e-05
-2.499805123079568e-05,1.2820258234569337e-05,1.202873590955278e-06,-8.159302524290979e-06,5.004037302569486e-05
-2.9577755412901752e-05,3.1568753911415115e-05,1.9478791273286333e-06,-1.0950548130495008e-05,5.421555761131458e-05
-3.644718526629731e-05,5.635692286887206e-05,-3.183994977007387e-06,-1.425190203008242e-05,5.430648889159784e-05
-4.335547782829963e-05,7.857890159357339e-05,-8.570609679736663e-06,-1.6647349184495397e-05,4.989857552573085e-05
-4.5807908463757485e-05,8.924941357690841e-05,-6.66074583932641e-06,-1.8532658941694535e-05,4.5656586735276505e-05
-4.294071550248191e-05,8.531580533599481e-05,-1.0904407190537313e-06,-1.8527800420997664e-05,4.732938396045938e-05
-3.9086455217329785e-05,7.363840995822102e-05,9.144236514657678e-07,-1.8281343727721833e-05,5.420043817139231e-05
-3.793535506702028e-05,6.0468581068562344e-05,-1.3232220226200297e-06,-1.791667273209896e-05,5.6721215514699e-05
-3.992884012404829e-05,4.71546190965455e-05,-3.8383145692932885e-06,-1.6338968634954654e-05,5.456351209431887e-05
-4.050961433677003e-05,2.5388346330146305e-05,-3.6508049561234657e-06,-1.3189045603212435e-05,5.193944161874242e-05
-3.584242949727923e-05,-8.238525879278313e-06,-3.016289156221319e-06,-9.952867912943475e-06,5.3316289267968386e-05
-2.9132965210010298e-05,-3.876395567203872e-05,-6.562726753145398e-07,-9.008870620164089e-06,5.74682344449684e-05
-2.354243042645976e-05,-4.238013571011834e-05,3.3112100936705247e-06,-1.2185499144834466e-05,5.895068170502782e-05
-2.015952304645907e-05,-1.6791334928711876e-05,3.000737933689379e-06,-1.827808046073187e-05,5.5574229918420315e-05
-1.8867271137423813e-05,1.5332565453718416e-05,3.7448560874508985e-07,-2.2119669665698893e-05,5.206393689149991e-05
-2.1398944227257743e-05,3.110232501057908e-05,1.891510805762664e-07,-1.9633585907286033e-05,5.317656177794561e-05
-2.7081650841864757e-05,3.0250605050241575e-05,1.844445250753779e-06,-1.405888997396687e-05,5.794044409412891e-05
-2.9493015972548164e-05,2.810150181176141e-05,3.817536708083935e-06,-1.3646232218889054e-05,6.0949412727495655e-05
-2.5020748580573127e-05,2.8509650292107835e-05,4.167300630797399e-06,-1.775790224201046e-05,6.059215957066044e-05
-2.1148662199266255e-05,2.8011327231070027e-05,8.503470780851785e-07,-2.019696512434166e-05,6.161240889923647e-05
-2.6198789782938547e-05,2.944473089883104e-05,6.365863782775705e-07,-1.9824812625302002e-05,6.395785021595657e-05
-3.454301622696221e-05,3.283950354671106e-05,3.2613615985610522e-06,-1.8542508769314736e-05,6.456727714976296e-05
-3.815538002527319e-05,3.479244332993403e-05,3.489888740659808e-06,-1.7224763723788783e-05,6.420911813620478e-05
-3.665791155071929e-05,3.315731737529859e-05,6.275010377976287e-07,-1.5861944120842963e-05,6.598846812266856e-05
-3.5289209336042404e-05,2.9559474569396116e-05,-3.9689402910880744e-06,-1.321301988355117e-05,6.625399691984057e-05
-3.923098847735673e-05,2.8661726901191287e-05,-4.700161298387684e-06,-1.356070424662903e-05,6.22984953224659e-05
-4.719289063359611e-05,2.843004222086165e-05,-7.639808927706326e-07,-1.5597266610711813e-05,5.855295603396371e-05
-4.999664452043362e-05,2.9149317924748175e-05,2.011589685935178e-06,-1.6121182852657512e-05,6.0538830439327285e-05
-4.682663711719215e-05,2.793450403260067e-05,-1.1682745082453039e-07,-1.4298447240435053e-05,6.469384243246168e-05
-4.0345588786294684e-05,2.6137802706216462e-05,-4.320945663494058e-06,-1.1609752618824132e-05,6.3672850956209e-05
-3.540546458680183e-05,2.9131075280020013e-05,-6.462606506829616e-06,-8.917641935113352e-06,5.960638009128161e-05
-3.729316085809842e-05,3.713332989718765e-05,-8.507742677466013e-06,-8.77360344020417e-06,5.7411238230997697e-05
-4.4997625082032755e-05,4.239797272020951e-05,-7.6131550486024935e-06,-1.409998003509827e-05,5.809888170915656e-05
-4.8065532610053197e-05,4.1993822378572077e-05,-7.152891157602426e-06,-1.8851824279408902e-05,6.112090341048315e-05
-4.069675560458563e-05,3.8994916394585744e-05,-1.2507705832831562e-05,-1.8045722754322924e-05,6.301953544607386e-05
-3.21708939736709e-05,3.350570113980211e-05,-1.6963955204118975e-05,-1.3967351151222829e-05,6.404262967407703e-05
-2.8958111215615645e-05,2.5067147362278774e-05,-1.4360393834067509e-05,-1.3452296116156504e-05,6.203151133377105e-05
-2.9752671252936125e-05,1.856801100075245e-05,-8.449508641206194e-06,-1.799305755412206e-05,5.878284355276264e-05
-3.0016370146768168e-05,2.067515924863983e-05,-3.968513738072943e-06,-2.2973286831984296e-05,5.8474255638429895e-05
-3.129594188067131e-05,2.715076152526308e-05,2.491797886250424e-06,-2.4409195248153992e-05,6.039495565346442e-05
-3.39212674589362e-05,2.7643107387120835e-05,1.2802322999050375e-05,-2.220639362349175e-05,6.350434705382213e-05
-3.479064253042452e-05,1.236076423083432e-05,2.3370595954474993e-05,-1.791978684195783e-05,6.674460746580735e-05
-3.3525262551847845e-05,-8.134806193993427e-06,2.98692611977458e-05,-1.454396260669455e-05,6.537690933328122e-05
-3.0282719308161177e-05,-8.660087587486487e-06,3.0018543839105405e-05,-1.5357938536908478e-05,6.0467729781521484e-05
-2.3753493223921396e-05,1.4018007277627476e-05,2.4237226170953363e-05,-2.0456474885577336e-05,5.913328641327098e-05
-1.958594293682836e-05,3.8435235182987526e-05,2.0409677745192312e-05,-2.435038550174795e-05,6.139850302133709e-05
-1.8482138330000453e-05,5.493253411259502e-05,2.1478528651641682e-05,-2.3946720830281265e-05,6.308191223070025e-05
-1.4608719538955484e-05,6.129671237431467e-05,2.350709655729588e-05,-2.260649489471689e-05,6.068002767278813e-05
-1.021870684780879e-05,5.972807775833644e-05,2.393305294390302e-05,-2.2445245122071356e-05,5.563516970141791e-05
-6.976223176025087e-06,5.664782293024473e-05,2.1748255676357076e-05,-2.0157876861048862e-05,5.1854975026799366e-05
-4.522996277955826e-06,5.244830754236318e-05,1.587326369190123e-05,-1.3926330211688764e-05,5.283574137138203e-05
-1.7228104809419165e-07,4.605889262165874e-05,8.837131645123009e-06,-8.633219295006711e-06,5.6957436754601076e-05
4.499888291320531e-06,3.263451799284667e-05,4.56574571217061e-06,-4.742218152387068e-06,6.123100320110098e-05
7.242532547024894e-07,1.9508262994349934e-05,4.193876520730555e-06,1.0479551093567352e-07,6.354107608785853e-05
-6.897759703861084e-06,1.2724568478006404e-05,5.835396677866811e-06,-1.4246868431655457e-06,6.469800428021699e-05
-1.0945856047328562e-05,9.885939107334707e-06,4.821861693926621e-06,-9.545690772938542e-06,6.428547931136563e-05
-1.1980980161752086e-05,1.2760046047333162e-05,2.202388714067638e-06,-1.3378402400121558e-05,6.50267829769291e-05
-1.3433575986709911e-05,1.9174060071236454e-05,1.3950294714959455e-06,-8.311601050081663e-06,6.539975584018975e-05
-2.1032459699199535e-05,3.039673356397543e-05,1.582982690706558e-06,-1.0751524541774415e-06,6.361489795381203e-05
-2.436371687508654e-05,4.45231307821814e-05,3.812788008872303e-06,-2.5094091142818797e-06,6.248909630812705e-05
-1.9870905816787854e-05,5.12562291987706e-05,9.248897185898386e-06,-7.476310656784335e-06,6.244211544981226e-05
-1.6049811165430583e-05,4.865322262048721e-05,1.2471623449528124e-05,-1.03651200333843e-05,6.36247787042521e-05
-1.5075007468112744e-05,4.117495700484142e-05,8.870186320564244e-06,-1.4059974091651384e-05,6.445682811317965e-05
-1.4459956219070591e-05,3.610221392591484e-05,1.7012171156238765e-06,-1.901783252833411e-05,6.635461613768712e-05
-1.4985659618105274e-05,3.615794412326068e-05,-2.0438315004867036e-06,-2.125406899722293e-05,6.910261436132714e-05
-1.7403655874659307e-05,3.294923953944817e-05,1.7302368178206962e-06,-1.862585668277461e-05,7.034451118670404e-05
-1.867321043391712e-05,2.5039385946001858e-05,1.073482144420268e-05,-1.555905328132212e-05,6.767918966943398e-05
-1.726927985146176e-05,1.5271169104380533e-05,1.8155944417230785e-05,-1.4327057215268724e-05,6.267651042435318e-05
-1.3485226190823596e-05,2.477105681464309e-06,1.9111717847408727e-05,-1.453987988497829e-05,6.058462895452976e-05
-1.3676333765033633e-05,-7.172855021053692e-06,1.5718431313871406e-05,-1.2954438716406003e-05,6.22120060143061e-05
-1.823398815758992e-05,-5.438729431261891e-07,1.1701738003466744e-05,-1.0359094630985055e-05,6.300451786955819e-05
-2.2092923245509155e-05,1.9669700122904032e-05,8.677739060658496e-06,-1.1184278264408931e-05,5.957769099040888e-05
-2.417726682324428e-05,3.463821849436499e-05,5.572461759584257e-06,-1.611791412869934e-05,5.5680618970654905e-05
-2.8168884455226362e-05,3.082823604927398e-05,2.1397831915237475e-06,-1.8538168660597876e-05,5.388660792959854e-05
-3.084602576564066e-05,1.2158629942859989e-05,2.0251052319508744e-06,-1.6254818547167815e-05,5.279311881167814e-05
-2.8670128813246265e-05,-7.324178568524076e-06,4.479777999222279e-06,-1.0769411346700508e-05,5.3189462050795555e-05
-2.557870902819559e-05,-1.7401391232851893e-05,4.106241249246523e-06,-4.68817597720772e-06,5.482106644194573e-05
-2.452560693200212e-05,-1.5776133295730688e-05,-1.0572838959888031e-07,-2.2211904706637142e-06,5.702818452846259e-05
-2.5113635274465196e-05,-9.854496056505013e-06,-2.7134537958772853e-06,-3.397315595066175e-06,5.897558366996236e-05
-2.5230787287000567e-05,-3.2687596558389487e-06,-2.377803639319609e-06,-5.665231128659798e-06,5.7163724704878405e-05
-2.623946056701243e-05,4.7218518375302665e-06,-5.917750513617648e-06,-6.298089374467963e-06,5.415761188487522e-05
-2.7504203899297863e-05,1.820028955989983e-05,-9.623047844797838e-06,-6.41887118035811e-06,5.1123275625286624e-05
-2.722168756008614e-05,2.829906043189112e-05,-9.6117419161601e-06,-4.305153197492473e-06,4.793843618244864e-05
-3.111214027740061e-05,2.6124816940864548e-05,-7.878566066210624e-06,-2.4882383513613604e-06,4.6749348257435486e-05
-3.3474239899078384e-05,2.519011468393728e-05,-6.280184607021511e-06,-3.600299123718287e-06,4.59410366602242e-05
-2.888938797696028e-05,3.7122015783097595e-05,-7.468171588698169e-06,-4.0826471376931295e-06,4.74230146210175e-05
-2.729326661210507e-05,5.203090768191032e-05,-6.374824806698598e-06,-3.770825742321904e-06,4.8065809096442536e-05
-3.107564407400787e-05,5.866989886271767e-05,-4.03068133891793e-06,-2.498883304724586e-06,4.7336608986370265e-05
-3.721352913998999e-05,5.965842501609586e-05,-2.3917439193610335e-06,7.198835874078213e-07,4.739927680930123e-05
-4.113378963666037e-05,5.7464352721581236e-05,-1.834348381635209e-06,1.1367358183633769e-06,4.784690463566221e-05
-3.920185918104835e-05,5.479026003740728e-05,-1.8515227111493004e-06,-3.843874765152577e-06,4.836545849684626e-05
-3.5434164601610973e-05,5.482014603330754e-05,-2.1642865704052383e-06,-8.519043149135541e-06,4.897823600913398e-05
-3.560216282494366e-05,6.375059456331655e-05,-2.966121883218875e-06,-7.79731635702774e-06,5.056472582509741e-05
-3.667615965241566e-05,7.371627725660801e-05,-5.176907507120632e-06,-4.983813596481923e-06,5.171026714378968e-05
-3.303325502201915e-05,7.568582077510655e-05,-9.28227473195875e-06,-5.887085990252672e-06,5.167633935343474e-05
-2.6837640689336695e-05,7.248474867083132e-05,-1.4285566066973843e-05,-8.529488695785403e-06,5.2775965741602704e-05
-2.4913939341786318e-05,7.121551607269794e-05,-1.8357646695221774e-05,-8.698287274455652e-06,5.4477688536280766e-05
-2.8653224944719113e-05,7.140418892959133e-05,-1.781827631930355e-05,-6.774187568225898e-06,5.336798494681716e-05
-3.45076659868937e-05,6.758327799616382e-05,-1.2045958101225551e-05,-4.37131211583619e-06,4.876365346717648e-05
-4.0533548599341884e-05,5.895883441553451e-05,-1.4394410072782193e-06,-4.479083600017475e-06,4.4281023292569444e-05
-4.399759563966654e-05,4.6329121687449515e-05,9.725654308567755e-06,-7.634215762664098e-06,4.5487904571928084e-05
-4.3951069528702646e-05,3.338817987241782e-05,1.3523567758966237e-05,-7.563035978819244e-06,5.034990681451745e-05
-4.153555346420035e-05,2.140195283573121e-05,1.4111156815488357e-05,-2.347798954360769e-06,5.388634599512443e-05
-3.644988464657217e-05,6.493008186225779e-06,1.694005186436698e-05,1.190662146655086e-06,5.3814761486137286e-05
-2.8324589948169887e-05,-1.3791569472232368e-05,1.804430030460935e-05,-1.6647958034354815e-07,5.357833651942201e-05
-1.9674547729664482e-05,-2.745071287790779e-05,1.5384253856609575e-05,-7.946892992549692e-07,5.7255780120613053e-05
-1.0343450412619859e-05,-1.386866824759636e-05,1.0524759090912994e-05,2.0193906493659597e-06,5.872718247701414e-05
-5.84787073876214e-07,1.783654988685157e-05,1.305989826505538e-05,4.8405236157123e-06,5.731686542276293e-05
5.554019480769057e-06,3.7675603380193934e-05,2.0095996660529636e-05,7.232903044496197e-06,5.910557592869736e-05
2.4561194322814117e-07,3.947132790926844e-05,2.429979394946713e-05,1.0996722267009318e-05,5.801080260425806e-05
-1.473416978114983e-05,3.21579136652872e-05,2.4170391043298878e-05,1.4394572644960135e-05,5.5151125707197934e-05
-2.6141780836042017e-05,2.9418417398119345e-05,1.971155325009022e-05,1.0767856110760476e-05,5.56849772692658e-05
-3.0759547371417284e-05,3.777065285248682e-05,1.2482309102779254e-05,5.274012437439524e-06,5.791834701085463e-05
-3.004643258464057e-05,4.694223025580868e-05,7.877928510424681e-06,6.244076303119073e-06,6.098782250774093e-05
-2.7304809918859974e-05,3.510764872771688e-05,7.1313793341687415e-06,9.074917215912137e-06,6.279118679231033e-05
-2.552612750150729e-05,7.165022452682024e-06,8.696682016307022e-06,9.770675205800217e-06,6.232468876987696e-05
-2.7039779524784535e-05,-1.1700309187290259e-05,1.0060871318273712e-05,5.85022144150571e-06,6.426883192034438e-05
-2.6682051611714996e-05,-5.133787908562226e-06,8.559900379623286e-06,1.623568891773175e-06,6.847909389762208e-05
-2.430871427350212e-05,1.8661881767911837e-05,5.2719783525390085e-06,4.72368242299126e-07,6.945704080862924e-05
-2.4609202228020877e-05,3.9094960811780766e-05,2.2426793293561786e-06,8.52777986892761e-07,6.886896881042048e-05
-2.6592138965497725e-05,4.447303217602894e-05,3.9561673474963754e-06,-6.897653861415165e-07,6.739229138474911e-05
-2.8683400159934536e-05,3.3685504604363814e-05,6.810552349634236e-06,-2.6640032046998385e-06,6.504131306428462e-05
-3.070315142394975e-05,1.672606958891265e-05,8.900523425836582e-06,-3.511382146825781e-06,6.267119897529483e-05
-3.288959851488471e-05,4.565119070321089e-06,1.019246246869443e-05,-6.551531441800762e-06,6.005846807966009e-05
-3.437077975831926e-05,-1.5473743815164198e-06,1.1679900126182474e-05,-1.0281334652972873e-05,6.015580947860144e-05
-3.682195529108867e-05,-4.571230419969652e-06,1.17107438200037e-05,-1.1326485946483444e-05,6.280195520957932e-05
-3.733830453711562e-05,-6.0098623180238064e-06,1.0076925718749408e-05,-1.1675174391712062e-05,6.436272815335542e-05
-3.4499302273616195e-05,-7.497367732867133e-06,1.0200196811638307e-05,-1.5707302736700512e-05,6.52758390060626e-05
-3.083291812799871e-05,-4.053646080137696e-06,9.6154362836387e-06,-2.023301385634113e-05,6.473910616477951e-05
-3.255627234466374e-05,4.364459073258331e-06,4.001228262495715e-06,-2.307652357558254e-05,6.361398118315265e-05
-3.50364571204409e-05,2.1284655304043554e-05,-1.7660191815593862e-06,-2.181816853408236e-05,6.222998490557075e-05
-2.651423346833326e-05,4.67174977529794e-05,-2.4129033135977807e-06,-1.8199509213445708e-05,5.89872979617212e-05
-1.0617241969157476e-05,7.49994142097421e-05,-4.360397269920213e-07,-1.7122429198934697e-05,5.760835119872354e-05
-1.1858870720971026e-06,9.114993008552119e-05,-1.9618767055362696e-06,-1.7413462046533823e-05,5.985915049677715e-05
-4.997598352929344e-06,8.92447424121201e-05,-1.582613549544476e-06,-2.025102367042564e-05,6.139506149338558e-05
-1.525337211205624e-05,8.340318163391203e-05,5.020319804316387e-06,-2.489444159436971e-05,5.7160057622240856e-05
-1.9339136997587048e-05,7.289036875590682e-05,1.1238379556743894e-05,-2.5179380827466957e-05,5.4506934247910976e-05
-1.8309150618733838e-05,4.132786125410348e-05,1.443686051061377e-05,-1.9496956156217493e-05,5.699491885025054e-05
-1.9104525563307106e-05,-9.788403986021876e-06,1.470760707888985e-05,-1.5038992387417238e-05,5.6899920309660956e-05
-1.6856207366799936e-05,-3.9145474147517234e-05,1.3037702956353314e-05,-1.654884181334637e-05,5.514087024494074e-05
-1.0665075933502521e-05,-2.7383908673073165e-05,8.042648005357478e-06,-1.862413773778826e-05,5.61839624424465e-05
-9.488540854363237e-06,-2.7919279546040343e-06,3.6754292978002923e-06,-2.0348181351437233e-05,5.92652904742863e-05
-1.90153641597135e-05,1.3299403690325562e-05,2.6957866339216707e-06,-2.1619191102217883e-05,6.001545989420265e-05
-3.4735709050437436e-05,2.0331090127001517e-05,6.687835593766067e-06,-2.1769410523120314e-05,5.92337928537745e-05
-4.4635562517214566e-05,2.9767532396363094e-05,1.1555700439203065e-05,-2.220349051640369e-05,5.8517547586234286e-05
-4.4543186959344894e-05,4.319669824326411e-05,1.1123912372568157e-05,-2.1348603695514612e-05,5.9108075220137835e-05
-4.0087412344291806e-05,5.096929817227647e-05,7.160014320106711e-06,-2.015556128753815e-05,6.07431102253031e-05
-3.6717789043905213e-05,4.931323928758502e-05,4.558192358672386e-06,-2.0819968995056115e-05,6.17264086031355e-05
-3.4147724363720044e-05,4.7394365537911654e-05,4.627856469596736e-06,-2.040252547885757e-05,6.108074740041047e-05
-2.992474583152216e-05,5.054930443293415e-05,3.7233673992886906e-06,-1.788385634426959e-05,6.321445835055783e-05
-2.649792622833047e-05,5.2237839554436505e-05,8.79127792785539e-09,-1.834113209042698e-05,6.734320777468383e-05
-2.4043321900535375e-05,4.9061552999773994e-05,-3.275931476309779e-06,-2.2255568183027208e-05,6.850963836768642e-05
-2.193502768932376e-05,4.599836756824516e-05,-1.469535163778346e-06,-2.5475026632193476e-05,6.755896902177483e-05
-2.216824759670999e-05,4.031752177979797e-05,6.150101398816332e-06,-2.607982787594665e-05,6.594711885554716e-05
-2.287373717990704e-05,2.566547664173413e-05,1.3738673260377254e-05,-2.6273808543919586e-05,6.42431405140087e-05
-1.895562672871165e-05,-7.259439485096664e-07,1.1468054253782611e-05,-2.55259783443762e-05,6.401284190360457e-05
-1.4972443750593811e-05,-3.373949948581867e-05,7.213382673398883e-07,-2.2560863726539537e-05,6.61226877127774e-05
-1.379214518237859e-05,-4.651545168599114e-05,-1.0493075933482032e-05,-1.9715747839654796e-05,6.655282049905509e-05
-1.0106951776833739e-05,-2.7368543669581413e-05,-1.3200819012126885e-05,-1.9760243958444335e-05,6.417448457796127e-05
-8.792179869487882e-06,3.835856659861747e-06,-8.328927833645139e-06,-2.233445229649078e-05,6.032406599842943e-05
-1.762185274856165e-05,2.2566680854652077e-05,5.102024260850158e-07,-2.4354811102966778e-05,5.644786506309174e-05
-2.781532566586975e-05,2.2016114598955028e-05,8.190023436327465e-06,-2.186335768783465e-05,5.766745744040236e-05
-3.411226498428732e-05,2.0222036255290732e-05,1.2589059224410448e-05,-1.4825384823780041e-05,5.975113163003698e-05
-3.8773767300881445e-05,2.6691868697525933e-05,1.5876699762884527e-05,-1.058769066730747e-05,5.8560992329148576e-05
-3.853665111819282e-05,2.71115804935107e-05,1.6231109839282e-05,-1.2737885299429763e-05,5.872175461263396e-05
-3.537302109180018e-05,2.129486165358685e-05,1.965190313057974e-05,-1.5017602891020942e-05,5.821353624924086e-05
-3.2022329833125696e-05,1.9895593140972778e-05,2.276262966915965e-05,-1.07038467831444e-05,5.632782995235175e-05
-3.161882341373712e-05,2.2227050067158416e-05,2.3548491299152374e-05,-8.447802429145668e-06,5.3672796639148146e-05
-3.175868187099695e-05,1.9310347852297127e-05,1.980748857022263e-05,-1.200374390464276e-05,5.4541560530196875e-05
-3.3578176953596994e-05,1.5589748727506958e-05,1.4951643606764264e-05,-1.3195735846238676e-05,5.674475323758088e-05
-3.762001870200038e-05,1.6489646441186778e-05,1.2194061127956957e-05,-9.831419447436929e-06,5.908257662667893e-05
-3.732445475179702e-05,2.1179581381147727e-05,1.0490119166206568e-05,-3.536137910487014e-06,5.93947661400307e-05
-3.385243326192722e-05,2.813028550008312e-05,7.566641670564422e-06,1.1251037221882143e-06,5.97008693148382e-05
-3.2148935133591294e-05,3.181691499776207e-05,4.342493411968462e-06,1.1672601658574422e-06,6.121851038187742e-05
-3.328740785946138e-05,3.1686664442531765e-05,4.909353265247773e-06,-2.266600176881184e-06,6.11990035395138e-05
-3.3673255529720336e-05,3.16726254823152e-05,6.222851425263798e-06,-5.47186073163175e-06,6.097646109992638e-05
-3.263367398176342e-05,3.258320066379383e-05,6.059833140170667e-06,-5.709296146960696e-06,6.262770330067724e-05
-3.291554094175808e-05,3.285975617473014e-05,5.686377335223369e-06,-3.979853318014648e-06,6.422017759177834e-05
-3.713876139954664e-05,3.421662768232636e-05,6.698755441902904e-06,-4.00642238673754e-06,6.315165956038982e-05
-4.226379678584635e-05,3.538007877068594e-05,3.6404526326805353e-06,-6.08065693086246e-06,6.0350557760102674e-05
-4.199741670163348e-05,3.2293111871695146e-05,-1.3158263527657255e-06,-5.428436907095602e-06,5.730750854127109e-05
-3.5669130738824606e-05,2.314431003469508e-05,-3.613888793552178e-06,-2.518240989957121e-06,5.825315383845009e-05
-2.924088403233327e-05,1.4611604456149507e-05,-2.7674682314682286e-06,-2.672062464625924e-06,5.983882874716073e-05
-2.423223304504063e-05,1.3565892913902644e-05,-1.1542135780473473e-06,-2.6735190203908132e-06,6.242411473067477e-05
-2.1807789380545728e-05,1.8330505554331467e-05,1.2862788025813643e-06,2.1677956283383537e-06,6.380896229529753e-05
-1.947145392477978e-05,2.100056008202955e-05,2.1727680632466218e-06,6.201714313647244e-06,6.074384873500094e-05
-1.7913320334628224e-05,1.8782011466100812e-05,-3.0688974561599025e-07,3.7276547573128482e-06,5.4844353144289926e-05
-2.261389818158932e-05,2.221204158558976e-05,-4.137277755944524e-06,-3.5674404443852836e-06,5.313447763910517e-05
-2.833268081303686e-05,2.9220085707493126e-05,-6.496710284409346e-06,-1.05649296529009e-05,5.3574203775497153e-05
-2.7787062208517455e-05,3.43755200447049e-05,-5.212560154177481e-06,-1.15424318209989e-05,5.321593926055357e-05
-2.4770879463176243e-05,3.921604002243839e-05,-1.611737275197811e-06,-8.974831871455535e-06,5.6565942941233516e-05
-2.2859216187498532e-05,4.123356120544486e-05,3.021071279363241e-06,-2.8579120225913357e-06,6.0125395975774154e-05
-2.097649485222064e-05,5.2043124014744535e-05,6.107722583692521e-06,3.6952565096726175e-06,5.939859329373576e-05
-2.091222813760396e-05,6.761556869605556e-05,4.911137239105301e-06,3.718912694239407e-06,5.499725375557318e-05
-2.1803049094160087e-05,7.503014785470441e-05,4.75543401989853e-06,5.386552288655366e-07,5.147872434463352e-05
-2.2834825358586386e-05,7.112650928320363e-05,7.538517365901498e-06,-1.3588916090157e-06,5.273585702525452e-05
-2.17783290281659e-05,6.343475251924247e-05,1.0881886737479363e-05,-3.564063717931276e-06,5.570112625719048e-05
-2.0253521142876707e-05,5.9749760112026706e-05,9.409386620973237e-06,-8.971907845989335e-06,5.726587551180273e-05
-1.9606444766395725e-05,5.69270814594347e-05,3.483889486233238e-06,-1.4004103832121473e-05,5.589778083958663e-05
-2.1740548618254252e-05,5.5132561101345345e-05,-2.1613195713143796e-06,-1.643065297685098e-05,5.3177489462541416e-05
-2.6972751584253274e-05,5.7634424592833966e-05,-6.305813712970121e-06,-1.6813555703265592e-05,5.286531086312607e-05
-3.0129327569738962e-05,6.117363227531314e-05,-8.45926933834562e-06,-1.5081162928254344e-05,5.429974044091068e-05
-2.6238376449327916e-05,5.8459896536078304e-05,-8.639963198220357e-06,-1.2365653674351051e-05,5.6870612752391025e-05
-2.0093133571208455e-05,5.4411106248153374e-05,-5.103765488456702e-06,-1.0746407497208565e-05,5.891088585485704e-05
-1.856865856098011e-05,5.40304281457793e-05,-1.9498074834700674e-06,-1.0727363587648142e-05,5.881342804059386e-05
-2.1049461793154478e-05,5.464185596792959e-05,-1.5296786841645371e-06,-1.2265169061720371e-05,5.6993303587660193e-05
-2.3592716388520785e-05,4.97151049785316e-05,-2.041683274001116e-06,-1.2276536835997831e-05,5.507766400114633e-05
-2.244179995614104e-05,4.018676554551348e-05,-6.942128152331861e-07,-8.735225492273457e-06,5.296786184771918e-05
-1.980112210731022e-05,3.2644591556163505e-05,7.86215878179064e-07,-4.924298536934657e-06,5.197839709580876e-05
-2.0329738617874682e-05,3.405226016184315e-05,1.3924575341661694e-06,-6.650917839579051e-06,5.1655395509442315e-05
-2.273652353323996e-05,3.733164703589864e-05,5.176465833756083e-07,-1.2357974810583983e-05,4.973301474819891e-05
-2.2437672669184394e-05,3.212291267118417e-05,2.762718622761895e-06,-1.635990156501066e-05,5.0749044021358714e-05
-2.128633059328422e-05,1.9567019990063272e-05,8.103929758362938e-06,-1.7862723325379193e-05,5.4699823522241786e-05
-2.1653464500559494e-05,4.419657216203632e-06,1.2385873560560867e-05,-1.8358799934503622e-05,5.723290450987406e-05
-2.7131738534080796e-05,-1.1332686881360132e-05,1.3930555724073201e-05,-1.9123130186926574e-05,5.8409495977684855e-05
-2.792907616822049e-05,-2.695918556128163e-05,8.649431038065813e-06,-2.1360629034461454e-05,5.869264350621961e-05
-2.021723412326537e-05,-2.9564807846327312e-05,1.8345990611123852e-06,-2.3968339519342408e-05,5.824671097798273e-05
-1.981921559490729e-05,-1.7536356608616188e-05,5.429014890978578e-07,-2.6983074349118397e-05,5.7472920161671937e-05
-2.7498050258145668e-05,-3.4595641409396194e-06,5.952476385573391e-06,-2.9906828785897233e-05,5.6927416153484955e-05
-3.438357816776261e-05,1.048865760822082e-05,1.1694650311255828e-05,-2.9435432225000113e-05,5.6670793128432706e-05
-3.516372453304939e-05,2.9584352887468413e-05,9.385699740960263e-06,-2.784567914204672e-05,5.544136729440652e-05
-3.3095890103140846e-05,5.0502829253673553e-05,4.014591468148865e-06,-2.496449087630026e-05,5.455575228552334e-05
-3.2629955967422575e-05,6.590372504433617e-05,3.3300295854132855e-06,-2.251707701361738e-05,5.9295110986568034e-05
-3.250527515774593e-05,7.680677663302049e-05,7.379381713690236e-06,-2.087373286485672e-05,6.538417801493779e-05
-3.116465813945979e-05,8.538808469893411e-05,1.1293602256046142e-05,-1.8802313206833787e-05,6.783014396205544e-05
-2.9434244424919598e-05,8.23910377221182e-05,1.2730120033666026e-05,-1.5764779163873754e-05,6.749266322003677e-05
-2.8641066819545813e-05,5.3782878239871934e-05,1.185212931886781e-05,-1.1295602234895341e-05,6.596164166694507e-05
-2.5716450181789696e-05,9.340060387330595e-06,8.87735586729832e-06,-8.47966020955937e-06,6.501079769805074e-05
-2.3514479835284874e-05,-1.812285881896969e-05,6.134598152129911e-06,-9.256581506633665e-06,6.53128299745731e-05
-2.3381970095215365e-05,-1.0718238627305254e-05,3.5446262245386606e-06,-1.2093591067241505e-05,6.741492688888684e-05
-2.325895729882177e-05,1.3740899703407194e-05,1.5264270132320235e-06,-1.3461732123687398e-05,6.846033647889271e-05
-2.4373246560571715e-05,2.8461050533223897e-05,1.2812304248654982e-06,-1.1688924132613465e-05,6.655666948063299e-05
-2.487859637767542e-05,2.760744064289611e-05,1.334756689175265e-06,-7.957472917041741e-06,6.469884101534262e-05
-2.2611495296587236e-05,2.0097533706575632e-05,-1.0455528354214039e-06,-6.542452865687665e-06,6.315066275419667e-05
-2.1773237676825374e-05,9.791493539523799e-06,-4.562795311358059e-06,-6.711314199492335e-06,6.22316001681611e-05
-2.1238449335214682e-05,1.5148258398767211e-06,-8.320374945469666e-06,-5.142183454154292e-06,6.192197906784713e-05
-2.1197150999796577e-05,1.1526077514645294e-06,-1.029941086017061e-05,-1.7331942672171863e-06,6.008399941492826e-05
-2.5791325242607854e-05,4.550787252810551e-06,-7.306799489015248e-06,6.327226174107636e-07,5.822627281304449e-05
-2.8461250622058287e-05,1.5994541172403842e-05,2.13155487926997e-07,-1.1084225661761593e-06,5.783963206340559e-05
-2.7303754905005917e-05,3.3492113288957626e-05,8.929735486162826e-06,-5.219649665377801e-06,6.000364010105841e-05
