-2.4120510715874843e-05,5.714595317840576e-06,1.1225581147300545e-05,5.1625252126541454e-06,6.844184099463746e-05
-1.699899439699948e-05,1.3321248843567446e-05,1.3215037142799702e-05,5.08355788042536e-06,6.929114897502586e-05
-1.846317172748968e-05,2.1616826415993273e-05,1.7413227396900766e-05,1.8284581528860144e-06,6.672065501334146e-05
-3.1486895750276744e-05,3.4924145438708365e-05,2.0721074179164134e-05,-4.4631160562857985e-06,6.5757951233536e-05
-4.680789425037801e-05,5.546096508624032e-05,2.069419679173734e-05,-1.1978688235103618e-05,6.844476592959836e-05
-5.4489624744746834e-05,7.841642946004868e-05,1.7644324543653056e-05,-1.7550491975271143e-05,6.705285341013223e-05
-5.517416866496205e-05,9.155062434729189e-05,1.3543506611313205e-05,-1.9862320186803117e-05,6.31368238828145e-05
-5.3967934945831075e-05,8.649689698358998e-05,6.899490472278558e-06,-2.0670991943916306e-05,5.9543250245042145e-05
-5.131361467647366e-05,7.091877341736108e-05,-4.8469942157680634e-06,-2.5930090487236157e-05,5.822801904287189e-05
-4.827868542633951e-05,7.481429929612204e-05,-1.0803679288073909e-05,-3.2327101507689804e-05,6.106426008045673e-05
-4.4044663809472695e-05,0.00010844088683370501,-2.324858542124275e-06,-3.391347490833141e-05,6.519137241411954e-05
-4.3015959818148986e-05,0.000128521365695633,6.4113669395737816e-06,-3.113349521299824e-05,6.679830403300002e-05
-3.957669832743704e-05,0.00010589351586531848,4.6215104703151155e-06,-2.751808824541513e-05,6.46319385850802e-05
-3.1663144909543917e-05,6.929891969775781e-05,-9.259624107471609e-07,-2.3584419977851212e-05,6.362636486301199e-05
-2.6043582693091594e-05,4.123095641261898e-05,3.891010692314012e-06,-2.086469976347871e-05,6.517113070003688e-05
-1.5675945178372785e-05,2.4006114472285844e-05,1.5395789887406863e-05,-2.0540224795695394e-05,6.523216870846227e-05
4.1196580014002393e-07,1.0741740879893769e-05,2.213011248386465e-05,-2.1054316675872542e-05,6.397451215889305e-05
1.014136887533823e-05,7.486910931220336e-07,2.4618762836325914e-05,-2.2087217075750232e-05,6.252489401958883e-05
-1.1976607083852286e-06,-7.384899163298542e-06,2.6022689780802466e-05,-1.9589135263231583e-05,6.067179128876887e-05
-2.331777250219602e-05,-1.5602705389028415e-05,2.540378955018241e-05,-1.4267855476646218e-05,5.98656915826723e-05
-3.6385998100740835e-05,-1.8677623302210122e-05,2.3684060579398647e-05,-7.39863116905326e-06,6.016052793711424e-05
-3.0394130590138957e-05,-1.2122673069825396e-06,2.16858370549744e-05,-3.88425360142719e-06,6.072045653127134e-05
-1.2855001841671765e-05,3.65826090273913e-05,1.6384030459448695e-05,-3.9437786654161755e-06,6.307876174105331e-05
-7.444196512551571e-07,6.65234838379547e-05,8.893117410480045e-06,-6.393204785126727e-06,6.521736941067502e-05
-6.238583409867715e-07,7.415833533741534e-05,3.2656334951752797e-06,-9.840498023550026e-06,6.372388452291489e-05
-1.1106624697276857e-05,7.123040995793417e-05,1.7127703131336602e-06,-1.3110385225445498e-05,6.046867201803252e-05
-2.5922850909410045e-05,7.637280214112252e-05,1.8843002180801705e-06,-1.3998853319208138e-05,5.9691494243452325e-05
-3.486605783109553e-05,8.865871495800093e-05,2.5610254397179233e-06,-1.3309363566804677e-05,5.9286714531481266e-05
-3.065836426685564e-05,9.247096750186756e-05,3.4725294426607434e-06,-1.3935570677858777e-05,5.875837814528495e-05
-2.2706824893248267e-05,8.19117485661991e-05,5.6486182984372135e-06,-1.4230226952349767e-05,6.139853212516755e-05
-2.0444369511096738e-05,6.611765275010839e-05,8.379238352063112e-06,-1.4445873603108339e-05,6.50564325042069e-05
-2.341345498280134e-05,4.918347258353606e-05,6.87209285388235e-06,-1.616093868506141e-05,6.64946564938873e-05
-3.1135965400608256e-05,3.5968110751127824e-05,6.930852123332443e-07,-1.6279349438264035e-05,6.482865137513727e-05
-3.8679223507642746e-05,2.5475692382315174e-05,-2.1434977952594636e-06,-1.3242088243714534e-05,6.229441351024434e-05
-4.0375645767198876e-05,1.786314169294201e-05,-1.169091433439462e-06,-9.6761223176145e-06,6.023331297910772e-05
-3.881351585732773e-05,1.5566707588732243e-05,5.404906460171333e-06,-7.689586709602736e-06,6.0424874391173944e-05
-3.749822644749656e-05,1.6894700820557773e-05,1.5939971490297467e-05,-9.929424777510576e-06,6.229224527487531e-05
-3.3368549338774756e-05,1.6164702174137346e-05,2.090944144583773e-05,-9.906898412737064e-06,5.99863487877883e-05
-2.9677206839551218e-05,9.090927960642148e-06,1.6922977010835893e-05,-7.928309969429392e-06,5.395731932367198e-05
-2.4811653929646127e-05,6.930266408744501e-06,9.695425433164928e-06,-8.153087946993764e-06,4.805259595741518e-05
-1.870647793111857e-05,1.3941011275164783e-05,5.178212632017676e-06,-9.052677341969684e-06,4.2233383283019066e-05
-2.0213619791320525e-05,2.0482118998188525e-05,3.134702637908049e-06,-7.537565579696093e-06,4.282917871023528e-05
-2.441414471832104e-05,1.3589600712293759e-05,7.835704309400171e-06,-5.521942512132227e-06,4.8430185415782034e-05
-2.9060674933134578e-05,-9.390349987370428e-06,1.3655961083713919e-05,-4.328789145802148e-06,5.443821646622382e-05
-2.9792270652251318e-05,-3.214268508600071e-05,1.4967552488087676e-05,-5.478125785884913e-06,5.984346353216097e-05
-2.849800694093574e-05,-3.566222949302755e-05,9.212626537191682e-06,-6.5424710555817e-06,6.128448876552284e-05
-2.5709361580084078e-05,-1.584960409672931e-05,1.9725787296920316e-06,-3.5557077353587374e-06,6.10376664553769e-05
-2.3362921638181433e-05,1.234082446899265e-05,-1.5791612213433837e-06,7.057319066916534e-07,6.168823892949149e-05
-2.4910972570069134e-05,3.43501269526314e-05,-1.5543463405265356e-06,2.254131459267228e-06,6.140832556411624e-05
-3.2294101401930675e-05,3.666462725959718e-05,-4.254047496488056e-07,1.7555605609231861e-06,6.011589357513003e-05
-4.1138959204545245e-05,2.0727420633193105e-05,-1.0174551334785065e-06,2.532266535126837e-06,6.210126593941823e-05
-4.2496110836509615e-05,6.301292614807608e-06,-1.0312980975868413e-06,2.8169718007120537e-06,6.65251791360788e-05
-3.262303289375268e-05,1.0655736332410015e-05,1.0821958085216465e-06,1.34252854877559e-06,6.916680285939947e-05
-1.6474743461003527e-05,2.9331989935599267e-05,4.514401553024072e-06,-4.936991899739951e-07,7.13437475496903e-05
-7.794349585310556e-06,4.2677616875153035e-05,6.693243449262809e-06,9.897905783873284e-07,7.13492845534347e-05
-1.2152371709817089e-05,4.3876316340174526e-05,8.850402082316577e-06,1.8928448071164894e-06,6.725272396579385e-05
-2.5663632186478935e-05,4.2452993511687964e-05,9.735083949635737e-06,-5.95425831306784e-07,6.162003410281613e-05
-3.546078733052127e-05,4.339431325206533e-05,9.202933142660186e-06,-3.710755663632881e-06,5.7575671235099435e-05
-3.402774018468335e-05,4.490370338317007e-05,9.197678082273342e-06,-6.813526397309033e-06,5.815546683152206e-05
-2.30761434067972e-05,4.404177889227867e-05,9.864817911875434e-06,-9.884220162348356e-06,6.187280087033287e-05
-1.5190265912679024e-05,3.727926377905533e-05,6.442389349103905e-06,-1.1060088581871241e-05,6.231504812603816e-05
-1.5703037206549197e-05,3.654278043541126e-05,-1.584671593946041e-07,-9.546063665766269e-06,5.97548350924626e-05
-1.8912020095740445e-05,4.5321059587877244e-05,-3.473442802714999e-06,-1.0731525435403455e-05,5.882517507416196e-05
-2.088599285343662e-05,5.373740350478329e-05,-1.404175407060393e-07,-1.3236081940704025e-05,5.930295810685493e-05
-2.481657429598272e-05,5.373960448196158e-05,5.9118119679624215e-06,-1.4416559679375496e-05,5.894365312997252e-05
-2.603987741167657e-05,4.504791650106199e-05,5.389613306761021e-06,-1.6441406842204742e-05,6.023990863468498e-05
-2.4862965801730752e-05,3.6957510019419715e-05,-7.070066487813165e-08,-1.5611227354384027e-05,6.006343392073177e-05
-2.7961272280663252e-05,3.491779716568999e-05,-5.41846986834571e-07,-1.2295309716137126e-05,5.412827886175364e-05
-3.2618710974929854e-05,3.301418837509118e-05,7.901166441115492e-07,-8.43435827846406e-06,5.158774365554564e-05
-3.3925040042959154e-05,2.9892516977270134e-05,4.91962595106088e-08,-6.94036680215504e-06,5.5168373364722356e-05
-2.9132881536497734e-05,2.8021684556733817e-05,-1.299534574172867e-06,-8.28582142275991e-06,5.92971446167212e-05
-1.4787569853069726e-05,2.79378527920926e-05,-1.9262447494838852e-06,-1.3230824151833076e-05,5.960923954262398e-05
5.82553639105754e-06,2.4579931050539017e-05,-1.3869215536033153e-06,-1.7914468116941862e-05,6.123608181951568e-05
2.0051495084771886e-05,1.6927788237808272e-05,1.4980154219301767e-06,-1.60092422447633e-05,6.430636130971834e-05
1.605865872988943e-05,1.0429529538669158e-05,7.65659842727473e-06,-8.587129741499666e-06,6.579322507604957e-05
-5.578922809945652e-06,6.676051725662546e-06,1.2665314898185898e-05,-3.2037430628406582e-06,6.414150266209617e-05
-3.2975327485473827e-05,3.8914981814741623e-07,1.3146812307240907e-05,-3.5649575238494435e-06,5.928573227720335e-05
-5.291137131280266e-05,-2.7983619474980514e-06,1.236294974660268e-05,-6.404370651580393e-06,5.7215762353735045e-05
-5.531472197617404e-05,8.24561902845744e-06,1.180825802293839e-05,-8.918575986172073e-06,5.9377529396442696e-05
-4.2904430301859975e-05,2.600112566142343e-05,8.125077329168562e-06,-8.755652743275277e-06,6.145523366285488e-05
-2.774396853055805e-05,3.53613831975963e-05,3.224722149752779e-06,-8.57424038258614e-06,6.105821375967935e-05
-1.9781355149461888e-05,3.150693737552501e-05,2.160863687095116e-06,-8.021362191357184e-06,6.101773033151403e-05
-1.854589572758414e-05,2.2763009837944992e-05,7.647510756214615e-06,-7.343671313719824e-06,6.254663458094001e-05
-2.221103204647079e-05,1.5853827790124342e-05,1.3792676327284425e-05,-9.53179278440075e-06,6.403682345990092e-05
-2.9580764021375217e-05,1.2172795322840102e-05,1.3248210962046869e-05,-1.4492270565824583e-05,6.350247713271528e-05
-3.7569549022009596e-05,1.2771124602295458e-05,8.003762559383176e-06,-1.744126893754583e-05,6.29740025033243e-05
-4.1455838072579354e-05,1.600299947313033e-05,2.2483288830699166e-06,-1.636491833778564e-05,6.472679524449632e-05
-4.4267460907576606e-05,1.763068576110527e-05,-2.610418505355483e-06,-1.2789539141522255e-05,6.585601659025997e-05
-4.837527376366779e-05,2.0427827621460892e-05,-3.5220136851421557e-06,-1.1535005796758924e-05,6.318173836916685e-05
-4.8074689402710646e-05,2.7934151148656383e-05,-4.101614649698604e-06,-1.2788322237611283e-05,6.144833605503663e-05
-4.482571966946125e-05,4.058420017827302e-05,-3.3417406939406646e-06,-1.1161759175593033e-05,6.173351721372455e-05
-4.392239861772396e-05,4.452899156603962e-05,1.8455046983945067e-06,-7.809785529389046e-06,6.150882836664096e-05
-4.015046943095513e-05,3.687191565404646e-05,2.501445578673156e-06,-7.911987268016674e-06,6.137118907645345e-05
-3.1532490538666025e-05,3.407655458431691e-05,-5.028945452068001e-06,-1.056948440236738e-05,6.201319047249854e-05
-3.3072235964937136e-05,4.0626971895108e-05,-1.1761590030801017e-05,-1.1278155398031231e-05,6.16257093497552e-05
-3.879515497828834e-05,4.649926631827839e-05,-1.0204134014202282e-05,-1.0675157682271674e-05,5.791520743514411e-05
-4.227843601256609e-05,4.5430213504005224e-05,-1.6263360294033191e-06,-1.1771626304835081e-05,5.198016879148781e-05
-5.1910214097006246e-05,4.1351348045282066e-05,6.757204118912341e-06,-1.1894280760316178e-05,4.567572977975942e-05
-5.8697442000266165e-05,3.7666570278815925e-05,1.1153299965371843e-05,-1.211353901453549e-05,4.340054510976188e-05
-5.544484156416729e-05,3.371346974745393e-05,1.3923498954682145e-05,-1.1913874914171174e-05,4.646258821594529e-05
-4.224549775244668e-05,2.809135003190022e-05,1.8277245544595644e-05,-1.0510490028536879e-05,5.110196798341349e-05
-3.083698175032623e-05,2.2542359147337265e-05,2.1839574401383288e-05,-1.0873437531699892e-05,5.424151095212437e-05
-2.583768764452543e-05,1.5656447430956177e-05,2.2796502889832482e-05,-1.2051567864546087e-05,5.4982603614917025e-05
-2.444643178023398e-05,7.994633961061481e-06,2.3816386601538397e-05,-1.3296755241753999e-05,5.529240661417134e-05
-2.5910590920830145e-05,3.4991469419765053e-06,2.5561648726579733e-05,-1.430552492820425e-05,5.426985808298923e-05
-2.6887666535913013e-05,5.6558560572739225e-06,2.4186265363823622e-05,-1.639273796172347e-05,5.160957152838819e-05
-2.5400262529728934e-05,1.5901372535154223e-05,1.6930602214415558e-05,-1.8551018001744524e-05,4.8685680667404085e-05
-2.2385733245755546e-05,2.9815539164701477e-05,7.690548954997212e-06,-2.0098437744309194e-05,4.878696927335113e-05
-1.797894947230816e-05,4.155970600550063e-05,1.1109583653023947e-07,-2.2539255951414816e-05,5.169763244339265e-05
-1.3257038517622277e-05,4.7582510887878016e-05,-4.937167886964744e-06,-2.696361298148986e-05,5.569003042182885e-05
-1.3065541679679882e-05,4.803386400453746e-05,-6.301779194473056e-06,-2.889002462325152e-05,5.9026751841884106e-05
-1.3911330825067125e-05,4.196759618935175e-05,-3.540261332091177e-06,-2.4147058866219595e-05,5.959761256235652e-05
-1.0005203876062296e-05,2.369688263570424e-05,-1.0166996844418463e-06,-1.6239013348240405e-05,5.802090163342655e-05
-5.152254288987024e-06,3.331218977109529e-06,-1.8589884120956413e-06,-9.059888725460041e-06,5.698785389540717e-05
-2.477182079019258e-06,6.286967618507333e-06,-8.624199836049229e-06,-2.0062286694155773e-06,5.8531171816866845e-05
-4.314304931085644e-07,3.263603139203042e-05,-1.5694669855292886e-05,4.867362349614268e-06,5.774204691988416e-05
1.909432967295288e-07,5.444804992293939e-05,-1.65077144629322e-05,9.042243618750945e-06,5.298648102325387e-05
-2.3559546207252424e-06,5.058447641204111e-05,-1.2338564374658745e-05,8.779587915341835e-06,4.965326297678985e-05
-9.033189598994795e-06,3.274481787229888e-05,-6.659914106421638e-06,6.091028808441479e-06,5.2869079809170216e-05
-1.2487793355830945e-05,2.5010149329318665e-05,-2.5370366074639605e-06,6.901897222633124e-07,5.8228240959579125e-05
-1.5243507732520811e-05,2.5209723389707506e-05,3.048221287826891e-06,-3.311597083666129e-06,6.0057733207941055e-05
-2.0103567294427194e-05,2.6403857191326097e-05,1.2335102837823797e-05,-5.77804894419387e-06,5.8996371080866084e-05
-2.7303822207613848e-05,2.949686677311547e-05,2.2645450371783227e-05,-7.577708402095595e-06,5.844003680977039e-05
-3.502673644106835e-05,3.384044612175785e-05,2.7757852876675315e-05,-6.703526196361054e-06,6.194536399561912e-05
-3.7558042095042765e-05,3.372616629349068e-05,2.8731839847750962e-05,-5.2379691624082625e-06,6.491089152405038e-05
-3.1752435461385176e-05,2.9411741707008332e-05,2.870630669349339e-05,-6.522554031107575e-06,6.217759801074862e-05
-2.3278556909644976e-05,2.80790281976806e-05,2.644955020514317e-05,-1.1195971637789626e-05,5.825251719215885e-05
-1.8370630641584285e-05,2.8747012038365938e-05,2.0113195205340162e-05,-1.4460074453381822e-05,5.7783094234764576e-05
-1.557088216941338e-05,3.217847552150488e-05,1.2248166967765428e-05,-1.6041814888012595e-05,5.816681368742138e-05
-1.6367877833545208e-05,3.8529702578671277e-05,7.0364571911341045e-06,-1.7104646758525632e-05,5.6241886341013014e-05
-1.71354604390217e-05,4.669621557695791e-05,3.3706921840348514e-06,-1.878919829323422e-05,5.578850323217921e-05
-1.3487589058058802e-05,5.205279740039259e-05,2.3495115897276264e-07,-1.7249736629310064e-05,5.6754492106847465e-05
-9.065896847459953e-06,5.225838322076015e-05,-2.5260785605496494e-06,-1.097620406653732e-05,5.665428034262732e-05
-1.01080086096772e-05,5.1010330935241655e-05,-5.3065750762471e-06,-4.792004347109469e-06,5.39467109774705e-05
-1.6320189388352446e-05,5.069215330877341e-05,-9.149836841970682e-06,-2.1806401946378173e-06,5.112511644256301e-05
-2.4845596271916293e-05,4.887009345111437e-05,-1.242663711309433e-05,-2.2951955997996265e-06,4.954067844664678e-05
-3.143947833450511e-05,4.5518576371250674e-05,-1.4753228242625482e-05,-2.0136583316343604e-06,5.1685241487575695e-05
-3.260305311414413e-05,4.150032327743247e-05,-1.3146364835847635e-05,-2.7697890914168966e-07,5.752546712756157e-05
-3.188919072272256e-05,3.465802001301199e-05,-4.675916443375172e-06,1.3267273288875003e-06,5.969745325273834e-05
-3.4395514376228675e-05,2.2274121874943376e-05,6.342501819744939e-06,-1.0387927886768011e-06,5.793966192868538e-05
-3.6120145523454994e-05,5.103965577291092e-06,1.1771546269301325e-05,-5.888824944122462e-06,5.630791201838292e-05
-3.566387022146955e-05,-9.654729183239397e-06,1.018025341181783e-05,-7.659357834199909e-06,5.4101645218906924e-05
-3.816224852926098e-05,-1.1902779988304246e-05,6.469587333413074e-06,-5.698346740246052e-06,5.2403782319743186e-05
-4.378688026918098e-05,-2.8583003768289927e-06,-5.392899993239553e-07,-5.1190472731832415e-06,5.331980355549604e-05
-4.7259240091079846e-05,1.0261240277031902e-05,-5.766976300947135e-06,-5.889792191737797e-06,5.34169957973063e-05
-4.682140570366755e-05,2.334073906240519e-05,-6.525748631247552e-06,-6.135424428066472e-06,5.018939555156976e-05
-4.8187783249886706e-05,3.0354563932633027e-05,-6.034938451193739e-06,-4.914038072456606e-06,4.7866491513559595e-05
-5.034196874476038e-05,3.857916090055369e-05,-5.4766301218478475e-06,-4.517231445788639e-06,5.031142063671723e-05
-5.127034819452092e-05,4.227266981615685e-05,-7.420227575494209e-06,-8.98095913726138e-06,5.285753286443651e-05
-5.190315278014168e-05,2.908340138674248e-05,-6.545592896145536e-06,-1.7704416677588597e-05,5.3274085075827315e-05
-4.6153007133398205e-05,1.1791526048909873e-05,-4.211902250972344e-06,-2.8949543775524944e-05,5.172507371753454e-05
-3.3712571166688576e-05,9.895621587929782e-06,-4.3654508772306144e-06,-3.064055272261612e-05,5.2250659791752696e-05
-2.014213714573998e-05,2.0368985133245587e-05,-3.898813702107873e-06,-2.617437712615356e-05,5.407443313742988e-05
-1.1072398592659738e-05,3.469965668045916e-05,1.3920670198785956e-06,-2.6513660486671142e-05,5.555095413001254e-05
-7.535424629168119e-06,4.481285941437818e-05,1.11338349597645e-05,-2.684971332200803e-05,5.993356535327621e-05
-9.600792509445455e-06,4.564156915876083e-05,1.918561611091718e-05,-2.2074626031098887e-05,6.76588824717328e-05
-1.1173954590049107e-05,4.66648671135772e-05,2.1675830794265494e-05,-2.0616982510546222e-05,7.156465289881453e-05
-8.05855688668089e-06,5.0704071327345446e-05,1.762060674082022e-05,-2.305680936842691e-05,6.889497308293357e-05
-6.536195087392116e-06,4.6045268391026184e-05,5.3965195547789335e-06,-2.0014866095152684e-05,6.467606726801023e-05
-1.2687813978118356e-05,3.150350312353112e-05,-1.1659015399345662e-05,-1.268908272322733e-05,6.124023639131337e-05
-2.5582266971468925e-05,1.56262431119103e-05,-2.4175011276383884e-05,-8.869472367223352e-06,5.903242345084436e-05
-3.6801960959564894e-05,2.246901885882835e-06,-2.853867772500962e-05,-1.067720222636126e-05,5.961898568784818e-05
-4.31816115451511e-05,-1.222877654072363e-05,-2.7462348953122273e-05,-1.1883544175361749e-05,6.394972297130153e-05
-4.438246105564758e-05,-3.645957258413546e-05,-2.390674671914894e-05,-1.1436395652708597e-05,7.144371193135157e-05
-3.887274579028599e-05,-5.856841744389385e-05,-1.7809865312301554e-05,-1.241227892023744e-05,7.714164530625567e-05
-2.4590155589976348e-05,-4.372069088276476e-05,-8.400000297115184e-06,-1.5499224900850095e-05,7.546452980022877e-05
-8.613118552602828e-06,1.659275403653737e-05,1.8716848444455536e-06,-1.6373191101592965e-05,7.02742618159391e-05
-1.0056636483568582e-06,7.539189391536638e-05,7.81943163019605e-06,-1.361404520139331e-05,6.61795784253627e-05
-5.482388132804772e-06,9.569356916472316e-05,1.0157124961551744e-05,-1.0485653547220863e-05,6.409485649783164e-05
-1.3215911167208105e-05,8.384878310607746e-05,1.3222492270870134e-05,-1.107355365093099e-05,6.50839283480309e-05
-1.1925233593501616e-05,5.974500527372584e-05,1.7906071661855094e-05,-1.1861503480758984e-05,6.76231284160167e-05
-6.2994586187414825e-06,4.167042061453685e-05,1.9256089217378758e-05,-1.3521498658519704e-05,7.015706796664745e-05
-8.979094673122745e-06,4.264413291821256e-05,1.8742006432148628e-05,-1.8854658264899626e-05,6.877382838865742e-05
-1.7566617316333577e-05,6.217774352990091e-05,2.272071833431255e-05,-2.3030039301374927e-05,6.374878284987062e-05
-2.209674676123541e-05,7.827461377019063e-05,2.6375739253126085e-05,-2.0756799131049775e-05,6.016412953613326e-05
-2.5339109924971126e-05,7.704659947194159e-05,2.4896973627619445e-05,-1.6005162251531146e-05,5.832630631630309e-05
-3.065110286115669e-05,6.802412826800719e-05,2.1697716874768957e-05,-1.0503891644475516e-05,6.029400901752524e-05
-3.514913987601176e-05,5.6451397540513426e-05,1.967826028703712e-05,-5.681076800101437e-06,6.269823643378913e-05
-3.3039865229511634e-05,5.0073791499016806e-05,1.841418634285219e-05,-5.345042609405937e-06,6.089450835133903e-05
-2.9729113521170802e-05,5.227172005106695e-05,1.4880687558616046e-05,-7.486280082957819e-06,5.651999526889995e-05
-3.0409677492571063e-05,5.061126284999773e-05,1.35090313051478e-05,-9.487574970989954e-06,5.5852553487056866e-05
-3.0574461561627686e-05,3.9546273910673335e-05,1.3890113223169465e-05,-1.0640139407769311e-05,5.969814446871169e-05
-2.8490447220974602e-05,2.52715872193221e-05,1.3287104593473487e-05,-1.003792385745328e-05,6.498451693914831e-05
-2.461235817463603e-05,8.015521416382398e-06,1.2669775060203392e-05,-9.143306670011953e-06,6.5745429310482e-05
-2.4577315343776718e-05,-1.0199240932706743e-05,9.917462193698157e-06,-1.0600933819659986e-05,6.269865843933076e-05
-2.8862423278042115e-05,-2.2623109543928877e-05,6.597084848181112e-06,-1.1386533515178598e-05,5.999749555485323e-05
-3.682519673020579e-05,-2.161586053261999e-05,5.265904746920569e-06,-9.481239430897404e-06,5.841923484695144e-05
-4.1594525100663304e-05,-5.82798338655266e-06,6.121008937043371e-06,-6.548691089847125e-06,5.702625276171602e-05
-3.99812706746161e-05,1.4249651030695532e-05,6.893410045449855e-06,-6.3178872551361565e-06,5.6648790632607415e-05
-3.51124836015515e-05,2.3158456315286458e-05,7.0902765401115175e-06,-7.834874850232154e-06,5.6185257562901825e-05
-2.8242699045222253e-05,2.1320365704013966e-05,6.786222002119757e-06,-8.96138408279512e-06,5.366446930565871e-05
-2.2231006369111128e-05,2.33977370953653e-05,7.880043995101005e-06,-8.328494004672393e-06,5.1842918765032664e-05
-2.1494513930520043e-05,3.181977808708325e-05,8.8934539235197e-06,-7.5085240496264305e-06,5.435985076474026e-05
-2.6893223548540846e-05,3.781235864153132e-05,9.207494258589577e-06,-9.358634088130202e-06,5.9404799685580656e-05
-3.387927063158713e-05,3.3902699215104803e-05,8.41482869873289e-06,-1.2780780707544181e-05,5.9295158280292526e-05
-3.484508488327265e-05,2.416358438495081e-05,6.075707005948061e-06,-1.2152324416092597e-05,5.5019718274706975e-05
-2.8693557396763936e-05,1.9113234884571284e-05,5.259164026938379e-06,-7.778706276440062e-06,5.320649142959155e-05
-2.079281330225058e-05,2.5086326786549762e-05,7.629871106473729e-06,3.017677556726994e-07,5.43452006240841e-05
-1.3966584447189234e-05,3.1171191949397326e-05,1.060561953636352e-05,1.1903416634595487e-05,5.2234048780519515e-05
-1.1008031833625864e-05,2.9548638849519193e-05,1.2295065971557051e-05,2.0662317183450796e-05,4.9562975618755445e-05
-6.6450893427827395e-06,2.4482566004735418e-05,1.4739420294063166e-05,2.2392829123418778e-05,4.806167271453887e-05
-4.108172106498387e-06,2.2425047063734382e-05,1.4255799214879517e-05,1.8198568795924075e-05,4.5874279749114066e-05
-9.722516551846638e-06,2.3659265934838913e-05,1.0129471775144339e-05,1.4361287867359351e-05,4.479700874071568e-05
-2.132779627572745e-05,2.1398376702563837e-05,7.544672371295746e-06,1.0729844689194579e-05,4.688137414632365e-05
-2.7751902962336317e-05,1.1058324162149802e-05,9.318754564446863e-06,8.54694371810183e-06,5.019046147936024e-05
-2.3929942472022958e-05,6.534650083267479e-07,1.2716418495983817e-05,1.0069865311379544e-05,5.338940172805451e-05
-1.76846679096343e-05,1.7326665329164825e-06,1.1459596862550825e-05,1.0158391887671314e-05,5.700604015146382e-05
-1.6923238945310004e-05,9.437830158276483e-06,8.66664504428627e-06,5.795578545075841e-06,6.22313455096446e-05
-2.1767304133391008e-05,1.7493221093900502e-05,1.0012611710408237e-05,-4.7129830704761844e-07,6.396664684871212e-05
-2.9124879802111536e-05,2.223712726845406e-05,1.4773879229323938e-05,-6.331518761726329e-06,6.263626710278913e-05
-3.437871782807633e-05,2.1719886717619374e-05,1.6465530279674567e-05,-1.051869821822038e-05,6.264029070734978e-05
-3.1531901186099276e-05,2.210892671428155e-05,1.3816330465488136e-05,-1.2350405086181127e-05,6.503035547211766e-05
-2.3940376195241697e-05,2.664143539732322e-05,1.0738128366938327e-05,-1.4315482985693961e-05,6.89286389388144e-05
-2.0239054720150307e-05,2.9782715500914492e-05,1.09005786725902e-05,-1.5463045201613568e-05,7.059646304696798e-05
-2.180456431233324e-05,2.668240267666988e-05,1.4459345948125701e-05,-1.3869540453015361e-05,7.037058821879327e-05
-2.4739632863202132e-05,2.1470965293701738e-05,1.601506482984405e-05,-1.1573142728593666e-05,7.157080108299851e-05
-2.7952351956628263e-05,1.923252784763463e-05,1.2247109225427266e-05,-1.1579099009395577e-05,7.028828258626163e-05
-3.136085069854744e-05,1.994028025364969e-05,3.101001766481204e-06,-1.4337796528707258e-05,6.462161400122568e-05
-3.7035002605989575e-05,2.191526618844364e-05,-7.531989467679523e-06,-2.0478164515225217e-05,6.233410385902971e-05
-4.381157486932352e-05,2.6440988222020678e-05,-1.4702834960189648e-05,-2.9784261641907506e-05,6.63927203277126e-05
-4.730860746349208e-05,3.498553633107804e-05,-1.86430370376911e-05,-3.983398346463218e-05,7.121366070350632e-05
-4.8059766413643956e-05,4.1954557673307136e-05,-2.089399094984401e-05,-4.531129525275901e-05,6.981053593335673e-05
-4.491298022912815e-05,3.9404836570611224e-05,-2.1265357645461336e-05,-4.477334368857555e-05,6.511931132990867e-05
-3.652806844911538e-05,3.2200470741372555e-05,-2.2107205950305797e-05,-4.0992690628627315e-05,6.225582910701632e-05
-2.985574974445626e-05,3.0312112357933074e-05,-1.9137489289278165e-05,-3.630582068581134e-05,6.383228173945099e-05
-2.9584771255031228e-05,3.0432507628574967e-05,-8.525722478225362e-06,-3.090410973527469e-05,6.716943607898429e-05
-2.840147863025777e-05,2.945913001894951e-05,2.483198613845161e-06,-2.5036846636794508e-05,7.00336677255109e-05
-2.3539318135590293e-05,2.9879185603931546e-05,4.5909137043054216e-06,-2.5220009774784558e-05,7.08229053998366e-05
-2.5136314434348606e-05,2.9872317099943757e-05,4.3853092392964754e-06,-2.9200526114436798e-05,7.134690531529486e-05
-3.162064967909828e-05,2.8340618882793933e-05,1.1067862942581996e-05,-2.808216777339112e-05,7.184346031863242e-05
-3.7849513319088146e-05,2.524370574974455e-05,1.9170402083545923e-05,-2.087187021970749e-05,6.910802039783448e-05
-4.2595656850608066e-05,2.389531073276885e-05,2.3600287022418343e-05,-1.5090204215084668e-05,6.506853242171928e-05
-4.372288458398543e-05,2.2575231923838146e-05,2.771970866888296e-05,-1.3188849152356852e-05,6.226208643056452e-05
-3.7832214729860425e-05,1.8214106603409164e-05,3.177184407832101e-05,-1.293390778300818e-05,5.8773457567440346e-05
-2.646811662998516e-05,9.470307304582093e-06,3.06807596643921e-05,-1.3310858776094392e-05,5.50523582205642e-05
-1.81829873326933e-05,1.1801747632489423e-06,2.559741733421106e-05,-1.4604276657337323e-05,5.175028491066769e-05
-1.3926526662544347e-05,2.028297330980422e-06,1.9116918338113464e-05,-1.4559082956111524e-05,4.864997390541248e-05
-1.2038665772706736e-05,1.2197589057905134e-05,1.634419459151104e-05,-1.1174501196364872e-05,4.699112105299719e-05
-1.6080217392300256e-05,2.6393689040560275e-05,1.8186217857874e-05,-5.163143214304e-06,4.728764179162681e-05
-2.708252941374667e-05,3.490621747914702e-05,1.8910115613834932e-05,1.6042533843574347e-06,4.862072455580346e-05
-3.896366979461163e-05,3.498163277981803e-05,1.913397318276111e-05,7.304010523512261e-06,4.959505895385519e-05
-4.6950681280577555e-05,2.929826223407872e-05,2.0056604626006447e-05,9.482227142143529e-06,5.2334456995595247e-05
-4.9812693760031834e-05,2.8549820854095742e-05,1.9503564544720575e-05,9.068591680261306e-06,5.8225250540999696e-05
-4.646593879442662e-05,3.9472484786529094e-05,1.3549465620599221e-05,1.0558541362115648e-05,6.311628385446966e-05
-3.908781582140364e-05,5.4562438890570775e-05,4.790428647538647e-06,1.4108766663412098e-05,6.336127262329683e-05
-3.324389035697095e-05,5.7441222452325746e-05,-2.9745012852799846e-07,1.433908983017318e-05,6.149295950308442e-05
-2.783591662591789e-05,4.484354212763719e-05,1.8873111002903897e-06,8.25896677270066e-06,6.121539627201855e-05
-1.8615752196637914e-05,3.5345437936484814e-05,6.372796633513644e-06,1.3887309933124925e-06,6.199210474733263e-05
-1.0965581168420613e-05,3.689980803756043e-05,6.782120635762112e-06,-1.4292925243353238e-06,6.147588283056393e-05
-1.188609985547373e-05,2.519190456951037e-05,4.380299287731759e-06,1.5556837240637833e-07,6.126938387751579e-05
-1.2852573490818031e-05,-5.189489911572309e-06,-1.732743157845107e-06,1.7423818690076587e-06,6.0178157582413405e-05
-2.751954070845386e-06,-2.1922154701314867e-05,-1.0664407454896718e-05,-2.5257591005356517e-06,5.672562474501319e-05
9.219851563102566e-06,-8.325754606630653e-06,-1.5177769455476664e-05,-1.0617709449434187e-05,5.580529978033155e-05
1.2762042388203554e-05,2.3754822905175388e-05,-1.4470369933405891e-05,-1.4631339581683278e-05,5.9149017033632845e-05
7.496585112676257e-06,4.2140516598010436e-05,-1.4958543033571914e-05,-1.4334204934129957e-05,6.35212636552751e-05
-7.359867595368996e-06,3.6627545341616496e-05,-1.3611317626782693e-05,-1.632127350603696e-05,6.657708581769839e-05
-2.214251617260743e-05,3.76687639800366e-05,-1.1270658433204517e-05,-2.1908708731643856e-05,6.399639823939651e-05
-2.981275065394584e-05,5.8303521655034274e-05,-1.2110919669794384e-05,-2.6167599571635947e-05,5.885044447495602e-05
-3.142806235700846e-05,7.873003778513521e-05,-1.1320385965518653e-05,-2.694074464670848e-05,5.6653781939530745e-05
-2.7918176783714443e-05,8.046042057685554e-05,-9.88837200566195e-06,-2.2056614398024976e-05,5.6646538723725826e-05
-2.5731120331329294e-05,6.286534335231408e-05,-1.046559918904677e-05,-1.6720547137083486e-05,5.609771687886678e-05
-2.7203381250728853e-05,4.000552507932298e-05,-9.506316018814687e-06,-1.3428201782517135e-05,5.263577259029262e-05
-2.9210323191364296e-05,2.5063085558940656e-05,-6.554374067491153e-06,-1.2343575690465514e-05,4.861083652940579e-05
-3.151528289890848e-05,1.4981832464400213e-05,-4.06543131248327e-06,-1.3039789337199181e-05,4.898197221336886e-05
-3.449138966971077e-05,3.7244321902107913e-06,-2.8605804800463375e-06,-1.0824168384715449e-05,5.2284362027421594e-05
-3.75065574189648e-05,-3.2692689728719415e-06,-2.007069724641042e-06,-5.187231636227807e-06,5.611993037746288e-05
-3.989105607615784e-05,3.125030190176403e-08,9.344403650857203e-08,7.294297574844677e-07,5.962476279819384e-05
-3.728056981344707e-05,1.0707830369938165e-05,3.302408913441468e-06,5.565085757552879e-06,5.9263013099553064e-05
-2.7857935492647812e-05,2.1774654669570737e-05,2.8940517040609848e-06,8.636788152216468e-06,5.607170533039607e-05
-1.4748339708603453e-05,3.312253102194518e-05,-4.5092991740602884e-07,8.81450978340581e-06,5.514540316653438e-05
-5.698536369891372e-06,4.175443245912902e-05,-4.5386821057036286e-07,8.64948015077971e-06,5.5200784117914736e-05
-1.167284972325433e-05,4.361751416581683e-05,2.7796957056125393e-06,8.51009099278599e-06,5.120852802065201e-05
-2.8296131858951412e-05,4.197459202259779e-05,5.061144292994868e-06,6.953249794605654e-06,4.4041826186003163e-05
-3.9503192965639755e-05,4.427038584253751e-05,7.302473477466265e-06,4.970767349732341e-06,3.8322654290823266e-05
-4.2657251469790936e-05,5.2384482842171565e-05,8.761731805861928e-06,4.911316864308901e-06,3.604879748309031e-05
-4.6757304517086595e-05,6.42434970359318e-05,7.405677024507895e-06,4.856752639170736e-06,3.773911521420814e-05
-4.91827231599018e-05,8.106636960292235e-05,6.54456925985869e-06,1.7164669543490163e-06,4.216729212203063e-05
-4.038465704070404e-05,0.00010341734014218673,6.164401838759659e-06,2.6757045361591736e-06,4.528402860159986e-05
-2.8557531550177373e-05,0.0001248546177521348,8.733647518965881e-06,1.1618750249908771e-05,4.6623419621028006e-05
-2.82085075014038e-05,0.00013175126514397562,1.1834006727440283e-05,1.4672634279122576e-05,4.638565587811172e-05
-3.631766958278604e-05,0.00010673176439013332,1.1686099242069758e-05,8.48638592287898e-06,4.4837961468147114e-05
-3.9387236029142514e-05,4.297707346267998e-05,6.264135208766675e-06,2.3758602765155956e-06,4.725426697405055e-05
-2.8990249120397493e-05,-2.921085433627013e-05,-1.3318090168468188e-06,-3.1441900318895932e-06,5.2766768931178376e-05
-1.0564473996055312e-05,-6.339317042147741e-05,-1.8369162262388272e-06,-9.258105819753837e-06,5.656997745973058e-05
6.452114575949963e-07,-4.75828092021402e-05,8.807134008748108e-07,-1.0880306945182383e-05,5.790384238935076e-05
4.749439085571794e-06,-1.1666147656796966e-05,4.423787061114126e-07,-8.97747577255359e-06,5.709571632905863e-05
7.469790489267325e-06,9.371781743539032e-06,-4.404208084451966e-06,-6.95349945090129e-06,5.6039316405076534e-05
6.970484719204251e-06,1.1540079867700115e-05,-6.192417913553072e-06,-9.97946426650742e-06,5.479906394612044e-05
2.0674572169809835e-06,8.01209534984082e-06,-4.081187853444135e-06,-1.8235725292470306e-05,5.561556463362649e-05
-5.70853899262147e-06,8.791495929472148e-06,-2.068301910185255e-06,-2.6041705496027134e-05,5.7592958910390735e-05
-9.856994438450783e-06,1.2734660231217276e-05,7.203071845651721e-07,-2.8557928089867346e-05,5.882113691768609e-05
-9.870819667412434e-06,1.2686597074207384e-05,4.4029443415638525e-06,-2.6115179935004562e-05,5.904276986257173e-05
-1.147953389590839e-05,8.209426596295089e-06,6.1188179643068e-06,-2.286116978211794e-05,5.912869892199524e-05
-1.6008676539058797e-05,3.809227337114862e-06,4.750227617478231e-06,-2.2700976842315868e-05,6.037614366505295e-05
-2.1387433662312105e-05,2.8163319711893564e-06,4.735091351903975e-06,-2.4264712919830345e-05,6.19914208073169e-05
-2.57461033470463e-05,2.2698106931784423e-06,7.081555395416217e-06,-2.1607245798804797e-05,6.175311136757955e-05
-2.7108970243716612e-05,2.1816990170009376e-07,9.788714123715181e-06,-1.2507531209848821e-05,6.224585376912728e-05
-2.9186094252509065e-05,6.369232323777396e-07,1.098127722798381e-05,-2.5303106667706743e-06,6.199768540682271e-05
-3.393596853129566e-05,7.424938758049393e-06,1.0495207789062988e-05,1.3935434708400862e-06,5.975169187877327e-05
-3.710975215653889e-05,1.6667781892465428e-05,7.675482265767641e-06,-3.7413457221191493e-07,5.973393126623705e-05
-3.715877392096445e-05,2.0234292605891824e-05,4.1593771129555535e-06,-3.838354132312816e-06,6.266217678785324e-05
-3.855875911540352e-05,1.7261345419683494e-05,1.9115232134936377e-06,-6.1309788179642055e-06,6.456029223045334e-05
-4.377695586299524e-05,1.8844306396204047e-05,5.004622494197974e-07,-9.402010618941858e-06,6.263764225877821e-05
-4.8443042032886297e-05,2.7075971956946887e-05,1.4667976699911378e-07,-1.4406126865651459e-05,5.97766374994535e-05
-4.809536403627135e-05,3.492783071123995e-05,2.194923808929161e-06,-2.222456350864377e-05,5.7486107834847644e-05
-4.3731139157898724e-05,3.7500150938285515e-05,2.2269746295933146e-06,-3.113288039457984e-05,5.596659320872277e-05
-3.951176768168807e-05,4.579931191983633e-05,2.763955990303657e-06,-3.5659748391481116e-05,5.8952839026460424e-05
-3.4479326131986454e-05,6.67201675241813e-05,2.669283730938332e-06,-3.351230770931579e-05,6.33035451755859e-05
-3.176310929120518e-05,6.528796075144783e-05,4.181894155408372e-07,-2.9677119528059848e-05,6.1021615692880005e-05
-3.047123936994467e-05,3.480578016024083e-05,1.934758756760857e-06,-2.842466528818477e-05,5.8223788073519245e-05
-2.8255239158170298e-05,1.45707663250505e-05,7.402772553177783e-06,-2.7650385163724422e-05,5.4754877055529505e-05
-3.0523977329721674e-05,2.0012797904200852e-05,1.4775899217056576e-05,-2.6713672923506238e-05,5.237515506451018e-05
-3.4888831578427926e-05,3.683170143631287e-05,2.001014945562929e-05,-2.561135625001043e-05,5.251780748949386e-05
-3.580644988687709e-05,4.868038377026096e-05,2.1029136405559257e-05,-2.1445761376526207e-05,5.429198790807277e-05
-3.246058622607961e-05,5.067404345027171e-05,1.964134025911335e-05,-1.8355665815761313e-05,5.62575260119047e-05
-2.6539797545410693e-05,4.4326428906060755e-05,1.792358852981124e-05,-1.537848038424272e-05,5.709883407689631e-05
-1.8230964997201227e-05,3.963524795835838e-05,1.550177148601506e-05,-1.417820112692425e-05,5.690156467608176e-05
-1.34380334202433e-05,4.080453436472453e-05,1.3151346138329245e-05,-1.6362399037461728e-05,5.7379180361749604e-05
-1.5161220289883204e-05,4.5240401959745213e-05,1.3067094187135808e-05,-1.775829332473222e-05,5.8893456298392266e-05
-2.325674722669646e-05,4.723092570202425e-05,1.4635686966357753e-05,-1.4164522326609585e-05,5.673448686138727e-05
-3.131809353362769e-05,4.3334865040378645e-05,1.4619078683608677e-05,-6.7193518589192536e-06,5.461557884700596e-05
-3.245891275582835e-05,3.564556027413346e-05,1.344456359220203e-05,-1.972023255802924e-06,5.5469841754529625e-05
-3.2074243790702894e-05,3.1915315048536286e-05,1.1527378774189856e-05,-1.9995311504317215e-06,5.741019776905887e-05
-3.952601400669664e-05,3.946604920201935e-05,8.606244591646828e-06,-5.392204457166372e-06,5.798120764666237e-05
-5.337073889677413e-05,5.169181531528011e-05,5.394085746956989e-06,-8.463956874038558e-06,5.6872751883929595e-05
-5.857414726051502e-05,5.760568819823675e-05,3.462482254690258e-06,-1.0608727279759478e-05,5.366684854379855e-05
-4.678488403442316e-05,5.107573088025674e-05,1.4642818086940679e-06,-9.115266038861591e-06,4.857874955632724e-05
-2.6679597795009613e-05,3.445069887675345e-05,1.742359700074303e-06,-5.450599019241054e-06,4.5651508116861805e-05
-8.535434972145595e-06,1.4137676771497354e-05,5.634174158331007e-06,-6.115748192314641e-07,4.91164973936975e-05
6.500511517515406e-06,-4.52125414085458e-06,8.91463514562929e-06,1.4854480241410783e-06,5.523487561731599e-05
9.926812708727084e-06,-1.896035610116087e-05,9.584024155628867e-06,-7.988595029928547e-07,5.818541467306204e-05
3.0840062663628487e-06,-2.5058705432456918e-05,9.80270760919666e-06,-4.801709110324737e-06,5.4279396863421425e-05
-9.578375284036156e-06,-2.498254798410926e-05,1.2031053302052896e-05,-9.534925084153656e-06,4.856804298469797e-05
-2.2022983102942817e-05,-2.0976478481316008e-05,1.3380798009166028e-05,-1.0847717931028455e-05,4.721309232991189e-05
-2.5772771550691687e-05,-7.994579391379375e-06,1.2892084669147152e-05,-7.490006737498334e-06,5.0303533498663455e-05
-2.31401136261411e-05,7.4350587055960204e-06,1.1261320651101414e-05,-2.532779035391286e-06,5.5169864936033264e-05
-2.4201450287364423e-05,1.406592764396919e-05,1.2044765753671527e-05,-9.556838449498173e-07,5.946705277892761e-05
-3.21746374538634e-05,1.2365364455035888e-05,1.8257900592288934e-05,-6.998325261520222e-06,6.464028410846367e-05
-3.702507456182502e-05,1.0742124686657917e-05,2.6663135940907523e-05,-1.398736822011415e-05,6.687936547677964e-05
-4.062218067701906e-05,1.2567210433189757e-05,3.1650561140850186e-05,-1.3254862096800935e-05,6.70669469400309e-05
-4.427110980032012e-05,1.463661374145886e-05,2.7904397938982584e-05,-1.0860480870178435e-05,6.99224547133781e-05
-4.8359106585849077e-05,1.903699194372166e-05,1.6962081645033322e-05,-1.1108113540103659e-05,7.34267377993092e-05
-5.184602559893392e-05,2.7382642656448297e-05,5.796650384581881e-06,-1.1208057912881486e-05,7.482770888600498e-05
-5.359160786611028e-05,2.9654633181053214e-05,-2.76341893368226e-06,-1.1070150321756955e-05,7.323200406972319e-05
-6.011128789396025e-05,1.2227407751197461e-05,-1.0106780791829806e-05,-1.1081292541348375e-05,7.273203664226457e-05
-6.662586383754387e-05,-1.4414350744118565e-06,-1.7810065401135944e-05,-1.2439701094990596e-05,7.232371717691422e-05
-6.585759547306225e-05,1.4729785107192583e-05,-2.4200087864301167e-05,-1.5870802599238232e-05,6.974884308874607e-05
-5.587348641711287e-05,5.094619336887263e-05,-2.8395033950801007e-05,-1.7971309716813266e-05,6.59971556160599e-05
-3.480883970041759e-05,7.821440522093326e-05,-2.737132672336884e-05,-1.5172387065831572e-05,6.314722850220278e-05
-9.804302862903569e-06,8.324544614879414e-05,-1.921674993354827e-05,-9.596745258022565e-06,6.284238043008372e-05
8.152463124133646e-06,7.745398761471733e-05,-7.323640147660626e-06,-4.784321845363593e-06,6.491131352959201e-05
1.4147352885629516e-05,7.874525908846408e-05,1.944916448337608e-06,-1.9167371192452265e-06,6.608783587580547e-05
7.329148502321914e-06,9.315836359746754e-05,1.6618529343759292e-06,-3.128391426798771e-06,6.603629299206659e-05
-7.32713033357868e-06,0.00010670039773685858,-9.458544809604064e-06,-7.26823918739683e-06,6.594720616703853e-05
-1.9020244508283213e-05,0.00010293815284967422,-2.367250999668613e-05,-1.1074012036260683e-05,6.180287891766056e-05
-2.600620973680634e-05,7.698369881836697e-05,-3.284044214524329e-05,-1.5928073480608873e-05,5.455297650769353e-05
-3.515872231218964e-05,4.298891144571826e-05,-3.594530789996497e-05,-2.624571425258182e-05,5.058449460193515e-05
-4.538395660347305e-05,1.4858883332635742e-05,-3.5598019167082384e-05,-4.1085721022682264e-05,5.362760566640645e-05
-5.007908839615993e-05,-1.5743022231617942e-05,-3.2913536415435374e-05,-5.295752998790704e-05,5.7901968830265105e-05
-4.412022099131718e-05,-3.267464489908889e-05,-2.372511153225787e-05,-5.5426171456929296e-05,5.844713086844422e-05
-2.6697460270952433e-05,-8.152441296260804e-06,-9.271108865505084e-06,-4.756640919367783e-05,5.681866605300456e-05
-2.878425675589824e-06,2.5194636691594496e-05,7.334561360039515e-06,-3.555163857527077e-05,5.55138431082014e-05
1.883695222204551e-05,2.6116684239241295e-05,1.9589599105529487e-05,-2.5733552320161834e-05,5.694267019862309e-05
2.92104286927497e-05,6.891016710142139e-06,2.612321259221062e-05,-1.4598121197195724e-05,6.0912036133231595e-05
2.2917893147678114e-05,9.826107088883873e-06,2.9896389605710283e-05,-2.6388775609120785e-07,6.056056736269966e-05
5.590419732470764e-06,2.5201121388818137e-05,3.3091764635173604e-05,1.0533597560424823e-05,5.690246689482592e-05
-1.3535189282265492e-05,2.7517435228219256e-05,4.046331378049217e-05,1.6378997315769084e-05,5.500511542777531e-05
-2.488144309609197e-05,2.0713334379252046e-05,4.7410037950612605e-05,1.8858103430829942e-05,5.427424912340939e-05
-2.8498954634414986e-05,1.915148095577024e-05,5.290502667776309e-05,2.3363369109574705e-05,5.358006092137657e-05
-2.9897842978243716e-05,2.650952410476748e-05,5.609700383502059e-05,2.922649946413003e-05,5.4383148381020874e-05
-2.998882337124087e-05,3.7678892113035545e-05,5.724776929127984e-05,3.0076895200181752e-05,5.4941487178439274e-05
-2.9174023438827135e-05,4.340948726166971e-05,5.4033866035752e-05,2.8057496820110828e-05,5.391657032305375e-05
-3.0694372981088236e-05,4.0551374695496634e-05,4.516911940299906e-05,2.5316461687907577e-05,5.341221913113259e-05
-3.683250179165043e-05,3.8362661143764853e-05,3.540300531312823e-05,1.883371987787541e-05,5.302510180626996e-05
-4.3726508010877296e-05,3.819464109255932e-05,2.6803505534189753e-05,1.0474321243236773e-05,5.2730280003743246e-05
-5.011085158912465e-05,3.7501675251405686e-05,2.35566094488604e-05,4.780025847139768e-06,5.157554551260546e-05
-5.3931096772430465e-05,3.815015952568501e-05,2.21957488975022e-05,-1.9711626464413712e-07,5.1742095820372924e-05
-5.110645361128263e-05,4.2931547795888036e-05,1.613806489331182e-05,-6.061638487153687e-06,5.596759001491591e-05
-4.480184361455031e-05,4.9008613132173195e-05,5.880628123122733e-06,-1.0336039849789813e-05,6.0237824072828516e-05
-4.335853736847639e-05,5.472961856867187e-05,-2.303340124854003e-06,-1.1877387805725448e-05,6.200755160534754e-05
-4.4121396058471873e-05,5.260634861770086e-05,-6.445418875955511e-06,-1.3206702533352654e-05,6.167768151499331e-05
-4.158796582487412e-05,3.9801132516004145e-05,-7.398416983050993e-06,-1.6490199413965456e-05,6.0149774071760476e-05
-3.626807301770896e-05,1.9016988517250866e-05,-8.815718501864467e-06,-2.1033240045653656e-05,6.035813203197904e-05
-3.013561581610702e-05,-5.619655780719768e-07,-1.1237226317462046e-05,-2.1491869119927287e-05,6.204052624525502e-05
-2.563123962318059e-05,-9.39518849918386e-06,-1.0784692676679697e-05,-1.9173179680365138e-05,6.385292363120243e-05
-2.2141035515232943e-05,-7.047176040941849e-06,-7.520753115386469e-06,-2.0481284082052298e-05,6.307906733127311e-05
-1.4169135283736978e-05,2.6868742679653224e-06,-2.7505993784870952e-06,-2.3737629817333072e-05,6.0695256252074614e-05
-6.246131306397729e-06,2.0462439351831563e-05,5.475469151861034e-06,-2.4231234419858083e-05,6.237719935597852e-05
-6.726323590555694e-06,3.8815909647382796e-05,1.2892643098894041e-05,-2.497817149560433e-05,6.254036270547658e-05
-1.5068888387759216e-05,4.423063001013361e-05,1.4367957192007452e-05,-2.811265949276276e-05,5.786598558188416e-05
-2.152566594304517e-05,3.6705754610011354e-05,1.1252927833993454e-05,-2.6640951546141878e-05,5.5053478718036786e-05
-1.964365401363466e-05,1.626970879442524e-05,5.646741101372754e-06,-2.103968472511042e-05,5.871991379535757e-05
-1.849997352110222e-05,-1.119812804972753e-05,-8.591497930865444e-07,-1.73112111951923e-05,6.456698611145839e-05
-2.2283114958554506e-05,-1.8720356820267625e-05,-6.420473255275283e-06,-1.6268289982690476e-05,6.497326103271917e-05
-2.4377299268962815e-05,-4.584529733620002e-07,-6.678350928268628e-06,-1.6592945030424744e-05,6.072703399695456e-05
-1.9892784621333703e-05,2.0100198526051827e-05,-4.211098257655976e-06,-1.5700574294896796e-05,5.628565850201994e-05
-1.581926699145697e-05,2.760986717476044e-05,-4.298671683500288e-06,-1.4661598470411263e-05,5.5883203458506614e-05
-1.6886770026758313e-05,2.296247475896962e-05,-9.981296898331493e-06,-1.7858532373793423e-05,5.7945162552641705e-05
-2.1097357603139244e-05,1.0552236744842958e-05,-1.6080904970294796e-05,-2.8856566132162698e-05,6.153014692245051e-05
-2.4221890271292068e-05,1.6132197799834103e-07,-1.8669885321287438e-05,-3.946319702663459e-05,6.532432598760352e-05
-2.5321420253021643e-05,-3.817589913523989e-06,-1.6551715816603974e-05,-4.1060549847316e-05,6.719911471009254e-05
-2.4794673663564026e-05,-2.3167135623225477e-06,-1.2741958016704302e-05,-3.5932109312852845e-05,6.693292380077764e-05
-2.6853775125346147e-05,4.502325282373931e-06,-1.0290211321262177e-05,-3.0226536182453856e-05,6.67207277729176e-05
-3.4957480238517746e-05,1.4044511772226542e-05,-6.2434642131847795e-06,-2.541710637160577e-05,6.706448766635731e-05
-4.180501855444163e-05,2.203357325925026e-05,1.6204870689762174e-06,-2.2837672077002935e-05,6.953995034564286e-05
-4.148707739659585e-05,2.6344261641497724e-05,1.0348233445256483e-05,-2.2937409084988758e-05,7.279031706275418e-05
-3.5537097573978826e-05,2.9796605303999968e-05,1.695013270364143e-05,-2.1218917026999407e-05,7.490396819775924e-05
-3.1019331800052896e-05,3.071723040193319e-05,2.267877061967738e-05,-1.328595681115985e-05,7.495563477277756e-05
-3.219466452719644e-05,3.006945007655304e-05,2.4809402020764537e-05,-1.573770873619651e-06,7.30698520783335e-05
-3.5499233490554616e-05,3.855010072584264e-05,2.2798842110205442e-05,3.774829792746459e-06,7.354261470027268e-05
-3.4752247302094474e-05,6.387061876012012e-05,1.747663009155076e-05,4.366121629573172e-06,7.410267426166683e-05
-2.9593582439702004e-05,9.282449900638312e-05,6.540878530358896e-06,6.004543593007838e-06,7.340557203860953e-05
-2.3932519980007783e-05,0.00010692591604311019,-4.253664883435704e-06,4.656143573811278e-06,7.235319208120927e-05
-2.1940360966254957e-05,0.000106706669612322,-7.228184585983399e-06,-2.2059246020944556e-06,7.317526615224779e-05
-1.5478293789783493e-05,0.00010803923214552924,-5.336947197065456e-06,-8.705105756234843e-06,7.567436841782182e-05
-6.6577181314642075e-06,9.182195935864002e-05,-3.918192305718549e-06,-1.023619461193448e-05,7.632778579136357e-05
-1.3601411410490982e-05,4.49978033429943e-05,-4.948778041580226e-06,-7.1627009674557485e-06,7.49859755160287e-05
-3.1824714824324474e-05,-1.7644232741531596e-08,-5.341425094229635e-06,-5.66112339583924e-06,7.214987272163853e-05
-4.2148447391809896e-05,-1.6781299564172514e-05,-4.602513854479184e-06,-1.0154845767829102e-05,6.813625805079937e-05
-3.892125459969975e-05,-1.2721634448098484e-05,-3.298575848020846e-06,-1.5768451703479514e-05,6.369066977640614e-05
-2.7622119887382723e-05,-1.2863773008575663e-05,-3.2125967663887423e-06,-2.1304118490661494e-05,6.04817432758864e-05
-1.582719232828822e-05,-2.0807083274121396e-05,-7.665424163860735e-06,-2.8925232982146554e-05,5.929234976065345e-05
-7.870234185247682e-06,-2.5021337933139876e-05,-1.5821116903680377e-05,-3.309660678496584e-05,5.60343214601744e-05
-2.564047235864564e-06,-1.6896974557312205e-05,-1.879861156339757e-05,-3.147237657685764e-05,5.1601855375338346e-05
4.067256327289215e-07,3.570275737274642e-07,-1.4828448911430314e-05,-2.741733260336332e-05,4.973548129783012e-05
-4.276317213225411e-06,1.952973434526939e-05,-8.946331945480779e-06,-2.4035656679188833e-05,5.2126859372947365e-05
-1.7265758287976496e-05,3.419219865463674e-05,-1.6665810562699335e-06,-2.0722347471746616e-05,5.558129487326369e-05
-3.081749673583545e-05,4.006623203167692e-05,6.667193702014629e-06,-1.786095708666835e-05,5.9839327150257304e-05
-3.8568821764783934e-05,4.154771158937365e-05,1.3082507393846754e-05,-1.555151175125502e-05,6.377600220730528e-05
-3.69980298273731e-05,4.258324042893946e-05,1.2845986930187792e-05,-1.1400074981793296e-05,6.474486144725233e-05
-2.6952675398206338e-05,4.6003347961232066e-05,7.056493814161513e-06,-3.5977027437184006e-06,6.294935155892745e-05
-1.8663451555767097e-05,5.529527334147133e-05,3.247124368499499e-06,3.1572351417707978e-06,6.16645920672454e-05
-1.956884989340324e-05,6.389865302480757e-05,5.3987228056939784e-06,5.254585630609654e-06,6.20923237875104e-05
-2.3600299755344167e-05,6.456783739849925e-05,6.627202310482971e-06,5.1049564717686735e-06,6.162602221593261e-05
-2.820536246872507e-05,6.139017932582647e-05,5.3540074986813124e-06,2.288712266818038e-06,5.950736522208899e-05
-3.506694338284433e-05,5.914390931138769e-05,8.468464329780545e-06,-3.1713186672277516e-06,5.574572423938662e-05
-3.988562457379885e-05,5.95244018768426e-05,1.607734157005325e-05,-8.22289348434424e-06,5.272101770970039e-05
-3.781999839702621e-05,5.616691123577766e-05,2.0020899683004245e-05,-1.2725021406367887e-05,5.217200668994337e-05
-3.454446778050624e-05,4.249455014360137e-05,2.0884519472019747e-05,-1.6313493688357994e-05,5.3275700338417664e-05
-3.5045108234044164e-05,2.3856553525547497e-05,2.2497682948596776e-05,-1.5841476852074265e-05,5.2640018111560494e-05
-3.895820555044338e-05,1.1840003026009072e-05,2.320160456292797e-05,-1.2139269529143348e-05,4.845982766710222e-05
-4.297037230571732e-05,1.1358127267158125e-05,2.4063983801170252e-05,-7.357727099588374e-06,4.667769462685101e-05
-4.010778866359033e-05,1.6390216842410155e-05,2.3688215151196346e-05,-5.928255177423125e-06,4.870584234595299e-05
-3.4482389310142025e-05,1.7949834727915004e-05,1.9742976292036474e-05,-5.0301250666962005e-06,5.114171653985977e-05
-2.964424857054837e-05,1.3901206330046989e-05,1.2930546290590428e-05,-1.2829427760152612e-06,5.2851992222713307e-05
-2.525805939512793e-05,3.816124262812082e-06,8.22598121885676e-06,2.8745107556460425e-06,4.996085408492945e-05
-2.117467374773696e-05,-2.1482974261743948e-06,6.756245966244023e-06,7.326161266973941e-06,4.4296906708041206e-05
-2.0136092643951997e-05,7.370911134785274e-06,4.620014351530699e-06,1.1885837011504918e-05,3.870998989441432e-05
-2.3387521650874987e-05,2.136634248017799e-05,1.9450244508334436e-06,1.414233793184394e-05,3.756751902983524e-05
-2.6905412596534006e-05,2.6055735361296684e-05,3.0452550703330417e-08,1.3115300134813879e-05,4.0827035263646394e-05
-2.83457829937106e-05,2.478808892192319e-05,1.3108840448694536e-06,6.688779194519157e-06,4.507943958742544e-05
-3.018193456227891e-05,3.1350195058621466e-05,5.508294634637423e-06,-4.211656232655514e-06,4.420847471919842e-05
-3.428400668781251e-05,4.0876395360101014e-05,8.90163028088864e-06,-1.208083540404914e-05,3.997452586190775e-05
-3.481291787466034e-05,3.6943711165804416e-05,6.985410436755046e-06,-1.3773388673143927e-05,3.930503226001747e-05
-3.4262720873812214e-05,2.5583363822079264e-05,1.547620143149686e-09,-1.5934348994051106e-05,4.334520053816959e-05
-3.5595854569692165e-05,3.0752424208913e-05,-5.280543064145604e-06,-2.7364903871784918e-05,4.7989691665861756e-05
-3.65108426194638e-05,5.267950473353267e-05,-2.874534629881964e-06,-4.3680702219717205e-05,4.913351222057827e-05
-3.530717731337063e-05,6.67254498694092e-05,3.6125527458352735e-06,-5.181615051697008e-05,4.848104072152637e-05
-3.273353650001809e-05,5.655735367326997e-05,7.000316145422403e-06,-4.874911974184215e-05,4.877609899267554e-05
-2.843498623406049e-05,2.5745972379809245e-05,6.990222573222127e-06,-4.237804751028307e-05,4.8163830797420815e-05
-2.3688275177846663e-05,-1.2060684639436658e-05,6.49371122563025e-06,-3.3906824683072045e-05,4.6636418119305745e-05
-1.979869557544589e-05,-4.1128339944407344e-05,5.852793947269674e-06,-2.1312720491550863e-05,4.6607485273852944e-05
-1.763329237292055e-05,-4.8836278438102454e-05,4.3725563045882154e-06,-7.271241429407382e-06,4.549580262391828e-05
-2.0591513020917773e-05,-3.672725870274007e-05,2.0469612991291797e-06,7.176922736107372e-06,4.356709177955054e-05
-2.7922569643124007e-05,-1.673758015385829e-05,1.2723203326459043e-06,2.1027128241257742e-05,4.651051858672872e-05
-3.136851955787279e-05,-3.2640819824791834e-08,3.7349045669543557e-06,3.303623816464096e-05,5.3126092097954825e-05
-2.658298399182968e-05,1.1175622603332158e-05,7.585797447973164e-06,4.546651689452119e-05,5.731534110964276e-05
-1.987192990782205e-05,2.425125967420172e-05,1.2763577615260147e-05,5.6325232435483485e-05,6.028502684785053e-05
-1.7878677681437694e-05,4.593624544213526e-05,1.805392821552232e-05,5.864266859134659e-05,6.30471549811773e-05
-1.862572207755875e-05,6.526744255097583e-05,2.1107551219756715e-05,5.304646765580401e-05,6.349384784698486e-05
-1.3351402230910026e-05,6.632364238612354e-05,1.897540823847521e-05,4.322313179727644e-05,6.19665952399373e-05
-1.02559042716166e-05,6.368903268594295e-05,1.3871753253624775e-05,2.6914871341432445e-05,6.118179589975625e-05
-1.0679770639399067e-05,6.993572606006637e-05,8.487244485877454e-06,1.0815531823027413e-05,5.822136881761253e-05
-3.9631149206798e-07,7.902697689132765e-05,7.567540251329774e-06,3.870198725053342e-06,5.764827801613137e-05
1.751904346747324e-05,8.828033605823293e-05,1.0710492460930254e-05,2.762210215223604e-06,6.227919948287308e-05
3.0503269954351708e-05,9.087460057344288e-05,1.206769320560852e-05,1.381783363285649e-06,6.672253221040592e-05
3.096643558819778e-05,7.303284655790776e-05,1.2919319487991743e-05,-4.837908363697352e-06,6.526739161927253e-05
2.2370875740307383e-05,2.9829563573002815e-05,1.549591797811445e-05,-1.060467548086308e-05,6.035069236531854e-05
1.122218236560002e-05,-1.2706032975984272e-05,1.6924885130720213e-05,-1.0936922990367748e-05,5.813417737954296e-05
-1.1087136044807266e-06,-2.674790630408097e-05,1.4469424058916047e-05,-9.257586498279124e-06,5.9055822930531576e-05
-1.1208750038349535e-05,-1.1044027814932633e-05,1.1786590221163351e-05,-1.1512279343151022e-05,5.886848157388158e-05
-2.076423515973147e-05,1.1341199751768727e-05,9.056442650035024e-06,-1.5542571418336593e-05,5.952571518719196e-05
-3.202839070581831e-05,2.478229180269409e-05,6.868525360914646e-06,-1.75856603163993e-05,6.258008943405002e-05
-3.997107705799863e-05,2.659739948285278e-05,6.386388122336939e-06,-1.851252636697609e-05,6.499562732642516e-05
-4.1145551222143695e-05,1.9551194782252423e-05,8.50514607009245e-06,-2.0298299205023795e-05,6.680672959191725e-05
-4.3329535401426256e-05,8.125213753373828e-06,1.024811172101181e-05,-2.0892977772746235e-05,6.818605470471084e-05
-5.210333620198071e-05,2.9300298365342314e-07,9.36364995141048e-06,-1.9957044059992768e-05,6.661774386884645e-05
-5.895247886655852e-05,7.236739747895626e-06,8.572694241593126e-06,-2.1607689632219262e-05,6.369801849359646e-05
-5.694679566659033e-05,2.3622791559319012e-05,1.3151413440937176e-05,-2.2141190129332244e-05,6.366016168612987e-05
-5.391187369241379e-05,3.09195056615863e-05,2.494406908226665e-05,-2.0794950614799745e-05,6.571010453626513e-05
-5.636773130390793e-05,2.77208073384827e-05,3.774382275878452e-05,-2.0253997718100436e-05,6.693728937534615e-05
-5.8918314607581124e-05,2.7024492737837136e-05,4.2304109229007736e-05,-2.0655848857131787e-05,6.595154263777658e-05
-5.293650974635966e-05,2.9735199859715067e-05,3.5726196074392647e-05,-2.5902158085955307e-05,6.459552969317883e-05
-3.845910032396205e-05,3.36447155859787e-05,2.4674691303516738e-05,-2.9908358555985615e-05,6.488168583018705e-05
-2.131203109456692e-05,3.568786269170232e-05,1.2554673048725817e-05,-2.747633698163554e-05,6.686504639219493e-05
-4.171025011601159e-06,3.487187495920807e-05,1.7075288951673429e-06,-2.600759398774244e-05,6.551216938532889e-05
1.3467018106894102e-05,3.7484987842617556e-05,-7.921488759166095e-06,-2.6866769985645078e-05,6.368610775098205e-05
2.589526047813706e-05,5.386224074754864e-05,-1.4109337826084811e-05,-2.9949165764264762e-05,6.131846021162346e-05
2.5049555915757082e-05,6.320493412204087e-05,-1.9295799575047567e-05,-3.166367969242856e-05,6.204756937222555e-05
1.065360447682906e-05,5.795135803055018e-05,-2.2047601305530407e-05,-2.7358380975783803e-05,6.345020665321499e-05
-1.1773674486903474e-05,5.183947359910235e-05,-1.5134427485463675e-05,-2.2310963686322793e-05,6.259086512727663e-05
-2.789744030451402e-05,4.039734631078318e-05,-7.481597549485741e-06,-2.1277268388075754e-05,6.129816028987989e-05
-3.393811857677065e-05,2.4764305635471828e-05,-4.676052412833087e-06,-1.8390725017525256e-05,5.859708835487254e-05
-3.426052717259154e-05,1.9902916392311454e-05,-2.6819161575986072e-06,-1.568219522596337e-05,5.832458191434853e-05
-3.0451121347141452e-05,3.589933839975856e-05,-1.7329271031485405e-06,-1.4102357454248704e-05,6.12628718954511e-05
-2.4120867237797938e-05,5.5512758990516886e-05,-3.862703579216031e-06,-1.6814599803183228e-05,6.422249862225726e-05
-1.8588369130156934e-05,6.563926581293344e-05,-4.863955382461427e-06,-2.1152211047592573e-05,6.745727296220139e-05
-1.0706144166761078e-05,6.509563536383212e-05,-4.501358489505947e-06,-2.0336654415586963e-05,7.216761150630191e-05
-3.286283572379034e-06,5.756166501669213e-05,-7.26630514691351e-06,-1.628644167794846e-05,7.544079562649131e-05
-1.2662477502090042e-06,5.2865205361740664e-05,-1.113661073759431e-05,-1.3086159015074372e-05,7.614127389388159e-05
-5.876806881133234e-06,5.5525495554320514e-05,-1.0303982890036423e-05,-1.3616724572784733e-05,7.341929449466988e-05
-1.4081542758503929e-05,5.528202746063471e-05,-6.361591204040451e-06,-1.4720219951414037e-05,6.946488429093733e-05
-2.2000918761477806e-05,4.2439296521479264e-05,-3.627323621913092e-06,-1.4458295481745154e-05,6.67477652314119e-05
-3.027152706636116e-05,1.8876289686886594e-05,-3.1985491659725085e-06,-1.43012930493569e-05,6.577015301445499e-05
-3.6903882573824376e-05,-9.077010872715618e-06,-4.5028568820271175e-06,-1.5071968846314121e-05,6.620900967391208e-05
-4.053376687807031e-05,-2.797792330966331e-05,-5.2063151088077575e-06,-1.5157032976276241e-05,6.652566662523896e-05
-4.166412691120058e-05,-2.8065740480087698e-05,-8.05109812063165e-06,-1.6972382582025602e-05,6.519859016407281e-05
-4.4885633542435244e-05,-1.0793044566526078e-05,-1.783506741048768e-05,-1.9628816517069936e-05,6.418895645765588e-05
-5.336695539881475e-05,1.342003270110581e-05,-2.7508160201250575e-05,-2.17993110709358e-05,6.315518112387508e-05
-6.493329419754446e-05,3.0483482987619936e-05,-2.666819273144938e-05,-1.886647987703327e-05,5.789762508356944e-05
-7.043627556413412e-05,3.2575168006587774e-05,-1.856462586147245e-05,-1.322888238064479e-05,4.9813166697276756e-05
-6.776783993700519e-05,2.617716381791979e-05,-1.2109936506021768e-05,-9.313765076512937e-06,4.6606095565948635e-05
-6.067199865356088e-05,2.2758660634281114e-05,-1.050096489052521e-05,-7.919425115687773e-06,4.60898045275826e-05
-5.5289561714744195e-05,2.6619229174684733e-05,-6.597424999199575e-06,-8.742453246668447e-06,4.50414590886794e-05
-5.236359720584005e-05,3.3206371881533414e-05,4.938759502692847e-06,-7.892062967584934e-06,4.604379500960931e-05
-5.186522685107775e-05,3.771148476516828e-05,1.7319276594207622e-05,-7.342373919527745e-06,4.78418187412899e-05
-5.166309711057693e-05,3.9697944885119796e-05,2.5047003873623908e-05,-8.215420166379772e-06,4.853609061683528e-05
-4.8248417442664504e-05,4.242265276843682e-05,3.2779989851405844e-05,-7.450773409800604e-06,4.944919055560604e-05
-4.2701147322077304e-05,4.6833847591187805e-05,3.562960046110675e-05,-5.038012659497326e-06,5.184557448956184e-05
-3.2162191928364336e-05,4.903064836980775e-05,3.1333358492702246e-05,-2.049509475909872e-06,5.2201863582013175e-05
-2.1054955141153187e-05,4.931947114528157e-05,2.5319768610643223e-05,2.1118310087331338e-06,4.979909135727212e-05
-1.2040754882036708e-05,4.5330976718105376e-05,2.337158002774231e-05,6.049767762306146e-06,5.185418558539823e-05
-1.7489429637862486e-06,3.275098788435571e-05,2.7096735720988363e-05,8.579671884945128e-06,5.640180825139396e-05
3.3309561331407167e-06,1.4697920050821267e-05,2.7406334993429482e-05,8.887865988072008e-06,5.732287900173105e-05
-2.6695593078329694e-06,4.124010956729762e-06,2.1343650587368757e-05,5.960197540844092e-06,5.435126513475552e-05
-1.5537601939286105e-05,6.353620392474113e-06,1.514857831352856e-05,2.5535184704494895e-06,5.3556912462227046e-05
-2.324629713257309e-05,1.0840274626389146e-05,1.312754557147855e-05,2.0955735635652672e-06,5.903985584154725e-05
-2.1360154278227128e-05,1.2609844816324767e-05,1.3197010957810562e-05,4.248309323884314e-06,6.416221731342375e-05
-1.813677590689622e-05,1.3354437214729842e-05,1.230537691299105e-05,7.285907031473471e-06,6.476434646174312e-05
-2.1871352146263234e-05,1.3013310308451764e-05,9.641914402891416e-06,9.574901923770085e-06,6.250331352930516e-05
-2.9649630960193463e-05,6.7473451963451225e-06,6.819087502663024e-06,9.247422894986812e-06,5.969429912511259e-05
-3.187063703080639e-05,-1.2802788660337683e-06,3.0299138416012283e-06,6.814193056925433e-06,5.638414586428553e-05
-2.888559720304329e-05,2.2422484562412137e-06,4.3650629777403083e-07,3.976125299232081e-06,5.454693018691614e-05
-2.730366395553574e-05,1.6812324247439392e-05,1.8413805946693174e-06,-2.748536758190312e-07,5.507730020326562e-05
-2.695519469853025e-05,2.739518095040694e-05,3.7722229535575025e-06,-4.9489440243633e-06,5.729270196752623e-05
-2.357206540182233e-05,3.12860356643796e-05,1.0207065770373447e-06,-7.02009583619656e-06,6.029826181475073e-05
-2.3415646865032613e-05,2.9688773793168366e-05,-4.554195129458094e-06,-7.541305876657134e-06,6.270239100558683e-05
-2.7812477128463797e-05,2.3552667698822916e-05,-8.083130524028093e-06,-1.024016000883421e-05,6.271406164159998e-05
-2.945134838228114e-05,2.9180291676311754e-05,-6.460888471337967e-06,-9.853480150923133e-06,6.144271901575848e-05
-2.8362854209262878e-05,4.543890099739656e-05,1.4903415603839676e-06,-4.6516106522176415e-06,6.018014391884208e-05
-3.007709347002674e-05,5.1155297114746645e-05,4.228901616443181e-06,-6.655823767687252e-07,5.886135477339849e-05
-3.315097637823783e-05,4.366016946732998e-05,-2.0096797470614547e-06,-2.275439555887715e-06,5.699470784747973e-05
-3.58771976607386e-05,3.354925138410181e-05,-6.223841410246678e-06,-6.468605079135159e-06,5.259336830931716e-05
-4.1020361095434055e-05,2.2851547328173183e-05,-8.103262189251836e-06,-8.19755678094225e-06,4.697257463703863e-05
-4.463006553123705e-05,1.0763208592834417e-05,-7.970900696818717e-06,-1.16304099719855e-05,4.700397403212264e-05
-4.4695509131997824e-05,-3.461279447947163e-06,-2.688189397304086e-06,-1.5841225831536576e-05,5.196695201448165e-05
-4.172953777015209e-05,-1.6429368770332076e-05,4.649558377423091e-06,-1.8218734112451784e-05,5.709460310754366e-05
-4.154210546403192e-05,-2.4304408725583926e-05,1.0036900675913785e-05,-1.9457047528703697e-05,5.939147013123147e-05
-4.9589983973419294e-05,-2.319912709936034e-05,1.3715829481952824e-05,-2.4110688173095696e-05,5.623947436106391e-05
-5.742482971982099e-05,-1.2274213986529503e-05,1.2681982298090588e-05,-3.0726834665983915e-05,5.1225222705397755e-05
-5.446651630336419e-05,6.7166324697609525e-06,5.507128207682399e-06,-3.290906533948146e-05,4.837018786929548e-05
-4.014894875581376e-05,2.1347677829908207e-05,-3.1827864859224064e-06,-3.0630115361418575e-05,4.8232141125481576e-05
-2.005713031394407e-05,2.0699984816019423e-05,-8.358294508070685e-06,-2.9998034733580425e-05,4.989554508938454e-05
2.0154284641193954e-07,1.9224871721235104e-05,-8.66857953951694e-06,-3.0614304705522954e-05,5.486692316480912e-05
1.5851055650273338e-05,3.343205025885254e-05,-8.258427442342509e-06,-2.8934291549376212e-05,6.130092515377328e-05
1.7841901353676803e-05,5.6934684835141525e-05,-1.1490513315948192e-05,-2.6516765501582995e-05,6.674171891063452e-05
1.1673669177980628e-06,6.710153684252873e-05,-1.5268455172190443e-05,-2.467082958901301e-05,6.801557901781052e-05
-2.1430692868307233e-05,6.048137220204808e-05,-1.3469722034642473e-05,-2.084236803057138e-05,6.353426579153165e-05
-3.3159587474074215e-05,5.8329489547759295e-05,-6.316630333458306e-06,-1.0340786502638366e-05,5.92702126596123e-05
-3.452201053733006e-05,6.682681851089001e-05,1.0017099612014135e-06,2.2130031993583543e-06,5.988944758428261e-05
-3.643006493803114e-05,7.02099860063754e-05,6.113185918366071e-06,9.931506610882934e-06,5.937288369750604e-05
-4.1230898204958066e-05,6.806895544286817e-05,1.2817584320146125e-05,1.1241134416195564e-05,5.582908124779351e-05
-4.4816031731897965e-05,7.13622648618184e-05,1.9414601410971954e-05,1.0056111023004632e-05,5.377436173148453e-05
-4.834319406654686e-05,8.221809548558667e-05,2.118304473697208e-05,6.845398274890613e-06,5.2140469051664695e-05
-5.738649997510947e-05,9.271610906580463e-05,1.999790401896462e-05,-5.521718549061916e-07,5.176771810511127e-05
-6.220432987902313e-05,9.284834959544241e-05,1.6092068108264357e-05,-6.828722234786255e-06,5.355311805033125e-05
-5.297287134453654e-05,9.15570926736109e-05,1.176951263914816e-05,-5.68108862353256e-06,5.759536361438222e-05
-3.1950079574016854e-05,7.740266300970688e-05,1.2588979188876692e-05,-3.0958963179728016e-06,5.76184356759768e-05
-1.484323092881823e-05,2.813622086250689e-05,1.511538812337676e-05,-2.129431322828168e-06,5.0803806516341865e-05
-2.2638687369180843e-06,-2.1657806428265758e-05,1.8540871678851545e-05,-2.483382104401244e-06,4.587999501382001e-05
1.0937948900391348e-05,-2.9526345315389335e-05,1.682003312453162e-05,-6.127219876361778e-06,4.8003901611082256e-05
1.6861731637618504e-05,-4.21041795561905e-06,1.012571738101542e-05,-8.816548870527185e-06,5.2629995479946956e-05
1.6757065168349072e-05,2.0208546629874036e-05,6.705909981974401e-06,-1.0854432730411645e-05,5.595382026513107e-05
1.718662679195404e-05,3.0385053833015263e-05,7.090074177540373e-06,-1.4017933608556632e-05,5.9332385717425495e-05
1.9566501578083262e-05,2.6323476049583405e-05,8.31001489132177e-06,-1.4965139598643873e-05,5.90181298321113e-05
1.4512833331536967e-05,1.6249196050921455e-05,7.28249005987891e-06,-1.5534515114268288e-05,5.366755067370832e-05
5.711528956453549e-06,1.3873770512873307e-05,6.53050801702193e-06,-1.5987981896614656e-05,4.7579120291629806e-05
-1.4209905430107028e-06,2.4289465727633797e-05,8.532783795089927e-06,-1.7003285393002443e-05,4.657569661503658e-05
-2.453934939694591e-06,4.000648550572805e-05,1.4424362234422006e-05,-1.7512778867967427e-05,4.873532452620566e-05
8.62124878153736e-08,5.0488615670474246e-05,1.94273470697226e-05,-1.5297080608434044e-05,5.096495078760199e-05
2.7345136004441883e-06,5.7090583140961826e-05,1.9759947463171557e-05,-1.079925277736038e-05,5.534029332920909e-05
2.2127010197436903e-06,6.135114381322637e-05,1.710774995444808e-05,-6.67941867504851e-06,6.265213596634567e-05
-4.725099188362947e-06,5.523273648577742e-05,1.3091521395836025e-05,-6.388155270542484e-06,6.819943519076332e-05
-1.663393595663365e-05,3.5550983739085495e-05,8.800763680483215e-06,-9.289458830608055e-06,6.78251963108778e-05
-2.7283307645120658e-05,1.7402529920218512e-05,5.334642082743812e-06,-1.4665602066088468e-05,6.360873521771282e-05
-3.205301254638471e-05,1.3432034393190406e-05,2.261775534861954e-06,-1.889979284896981e-05,6.034726175130345e-05
-3.5898647183785215e-05,2.224799754912965e-05,1.9069509562541498e-06,-1.99759906536201e-05,6.010124707245268e-05
-4.233865547575988e-05,2.9874268875573762e-05,4.920360879623331e-06,-1.7841697626863606e-05,5.962717841612175e-05
-4.834663195651956e-05,2.741514254012145e-05,8.638583494757768e-06,-1.538401556899771e-05,5.7864428526954725e-05
-5.262691047391854e-05,2.1015675883973017e-05,1.0648629540810362e-05,-1.521881131338887e-05,5.618910290650092e-05
-5.6956974731292576e-05,1.780534330464434e-05,7.972871571837459e-06,-1.2832439097110182e-05,5.656896610162221e-05
-5.5818381952121854e-05,3.127089485133183e-06,3.3621749935264233e-06,-5.939336006122176e-06,5.594166213995777e-05
-4.9635513278190047e-05,-3.676937194541097e-05,2.9874249776185025e-06,-2.996936018462293e-06,5.361506555345841e-05
-4.255518069840036e-05,-6.355796358548105e-05,6.78867536407779e-06,-4.289857770345407e-06,5.379423237172887e-05
-3.834066592389718e-05,-4.269641431164928e-05,6.414762538042851e-06,-3.278389158367645e-06,5.225253335083835e-05
-3.427725823712535e-05,-8.714348950888962e-06,2.682824060684652e-06,-2.251566456834553e-06,5.067709571449086e-05
-2.7879543267772533e-05,3.86089732273831e-06,7.658434952872994e-08,-1.6567190641580964e-06,5.160431464901194e-05
-1.8263830497744493e-05,2.8627061965380562e-06,2.1368121494447223e-08,-2.687190090000513e-06,5.0633185310289264e-05
-1.2091929420421366e-05,8.531308594683651e-06,2.7288324417895637e-06,-7.608570740558207e-06,4.884171357844025e-05
-1.0551687410043087e-05,2.224698255304247e-05,4.8513315960008185e-06,-1.0068076335301157e-05,4.6770903281867504e-05
-1.039367271005176e-05,2.7983618565485813e-05,6.333942565106554e-06,-1.0377008038631175e-05,5.103981675347313e-05
-1.0856558219529688e-05,2.3301810870179906e-05,4.402396371006034e-06,-1.0014703548222315e-05,5.9518020862014964e-05
-1.4716544683324173e-05,2.62214398389915e-05,1.9916008113796124e-06,-8.652972610434517e-06,6.544043571921065e-05
-2.0266325009288266e-05,4.387874651001766e-05,6.016606675984804e-06,-7.4776512519747484e-06,6.718011718476191e-05
-2.0998975742259063e-05,5.3237745305523276e-05,1.4268596714828163e-05,-7.193296823970741e-06,6.712174217682332e-05
-2.1357171135605313e-05,4.779434675583616e-05,2.1118010408827104e-05,-6.920809937582817e-06,6.612128345295787e-05
-2.392790156591218e-05,3.7345165765145794e-05,2.141151526302565e-05,-6.0009501794411335e-06,6.47861379547976e-05
-2.3451999368262477e-05,2.6311083274777047e-05,1.7044359992723912e-05,-6.6513016463431995e-06,6.475909322034568e-05
-1.5697340131737292e-05,1.6040896298363805e-05,1.529694964119699e-05,-8.214379704440944e-06,6.373687938321382e-05
-4.770269242726499e-06,8.924640496843494e-06,1.689849523245357e-05,-1.1011714377673343e-05,5.9274258092045784e-05
7.864106805755e-07,-1.9768990568991285e-06,1.7109392501879483e-05,-1.732969394652173e-05,5.424038681667298e-05
-3.827381078735925e-06,-2.911355477408506e-05,1.4024882148078177e-05,-2.5648698283475824e-05,5.342688018572517e-05
-1.5119595445867162e-05,-5.997350672259927e-05,8.466581675747875e-06,-3.0480357963824645e-05,5.652863183058798e-05
-3.057125286431983e-05,-7.031936547718942e-05,2.3320185391639825e-06,-3.2857846235856414e-05,5.7929726608563215e-05
-4.927996269543655e-05,-5.5922799219843e-05,-3.589260586522869e-06,-3.6237979657016695e-05,5.399518340709619e-05
-6.991960981395096e-05,-2.8784044843632728e-05,-9.79149899649201e-06,-3.39573816745542e-05,5.106835669721477e-05
-7.96653184806928e-05,4.089703907084186e-06,-1.5184863514150493e-05,-1.944708674272988e-05,5.703348870156333e-05
-7.296150579350069e-05,3.865283724735491e-05,-1.9909148250008002e-05,-3.5957698401034577e-06,7.135854684747756e-05
-6.542900518979877e-05,6.776661757612601e-05,-1.8912922314484604e-05,2.895310217354563e-06,8.308382530231029e-05
-6.350337207550183e-05,9.43681807257235e-05,-1.1683510820148513e-05,1.9509047888277564e-06,8.539085683878511e-05
-6.277247302932665e-05,0.00012080484884791076,-4.315606929594651e-06,-5.10959716848447e-06,7.736797851976007e-05
-6.680006481474265e-05,0.00015214382437989116,3.436583938309923e-06,-2.3198221242637374e-05,6.606713577639312e-05
-7.799965533195063e-05,0.0001814350252971053,3.983735041401815e-06,-4.787577563547529e-05,6.294745253399014e-05
-8.46987240947783e-05,0.00017490499885752797,-1.4046235037312726e-06,-6.410870992112905e-05,6.445251347031444e-05
-7.657083187950775e-05,0.00012566414079628885,-6.988891982473433e-06,-6.842239963589236e-05,6.380262493621558e-05
-5.8675301261246204e-05,5.679417881765403e-05,-8.876070751284715e-06,-6.490343366749585e-05,6.681153899990022e-05
-3.9981150621315464e-05,6.278215096244821e-06,-3.3122703371191164e-06,-5.2010702347615734e-05,6.803544965805486e-05
-2.2399233785108663e-05,-8.245495337178e-06,1.164760533356457e-06,-3.392734288354404e-05,6.89894804963842e-05
-6.95305288900272e-06,1.895713012345368e-06,-9.465427979193919e-07,-1.5724308468634263e-05,6.963854684727266e-05
-7.350067221523204e-07,2.5128876586677507e-05,-5.001848421670729e-06,-1.7850419453679933e-07,6.934414705028757e-05
-2.56218822869414e-06,5.232542025623843e-05,-3.6186286251904676e-06,1.325317680311855e-05,6.924752233317122e-05
-6.249142188607948e-06,6.870898505439982e-05,1.972409108930151e-06,2.8680226023425348e-05,6.757589289918542e-05
-6.382847459462937e-06,6.351498450385407e-05,1.0998182006005663e-05,4.591742981574498e-05,6.690367445116863e-05
-1.6221400755966897e-06,4.1739855078049004e-05,1.9608671209425665e-05,6.12644653301686e-05,6.527052755700424e-05
4.661653747461969e-06,2.04054649657337e-05,2.5037050363607705e-05,6.848603516118601e-05,6.431288056774065e-05
7.3652095124998596e-06,1.2826043530367315e-05,2.6101140974787995e-05,6.64959879941307e-05,6.539146124850959e-05
3.848170308629051e-06,1.2454516763682477e-05,2.4875267627066933e-05,5.452759432955645e-05,6.665676482953131e-05
-2.5160804852930596e-06,1.0962317901430652e-05,2.272634992550593e-05,3.340206603752449e-05,6.45116888335906e-05
-1.0673687029338907e-05,1.1156075743201654e-05,1.988930489460472e-05,1.1445546078903135e-05,5.997730477247387e-05
-2.341500476177316e-05,1.971324672922492e-05,1.7188722267746925e-05,-3.501403853078955e-06,5.887950464966707e-05
-3.718790685525164e-05,3.302549885120243e-05,1.2847955076722428e-05,-1.411251741956221e-05,6.155193841550499e-05
-4.014921432826668e-05,4.338590952102095e-05,8.420167432632297e-06,-2.1086036213091575e-05,6.180336640682071e-05
-3.496578574413434e-05,4.697372060036287e-05,3.2727566576795653e-06,-2.3013908503344283e-05,6.0484777350211516e-05
-3.3028118195943534e-05,4.566125790006481e-05,-2.6557609089650214e-06,-2.3968130335561e-05,5.834850890096277e-05
-3.733685298357159e-05,4.252856524544768e-05,-5.4216970966081135e-06,-2.536968167987652e-05,5.598847201326862e-05
-4.134754271944985e-05,3.945514254155569e-05,-6.6221832639712375e-06,-2.7291456717648543e-05,5.631800013361499e-05
-3.9473608921980485e-05,2.6522273401496932e-05,-6.3189963839249685e-06,-2.9719121812377125e-05,6.074698467273265e-05
-3.723279951373115e-05,-7.482957698812243e-06,-3.934318556275684e-06,-3.0326355044962838e-05,6.202193617355078e-05
-3.815227319137193e-05,-4.571579484036192e-05,-2.671197080417187e-06,-2.7817835871246643e-05,5.781953950645402e-05
-3.974885476054624e-05,-4.222234201733954e-05,-3.4632930692168884e-06,-2.4793605916784145e-05,5.622355092782527e-05
-3.952674524043687e-05,-2.1226908302196534e-06,-3.6408559935807716e-06,-2.3040865926304832e-05,5.76407510379795e-05
-3.42631756211631e-05,3.1145398679655045e-05,-7.960632615322538e-07,-2.1495494365808554e-05,5.569014683715068e-05
-2.143851452274248e-05,5.1649552915478125e-05,-1.0519244142415118e-06,-2.1283003661665134e-05,5.6273434893228114e-05
-7.79393576522125e-06,6.241610390134156e-05,-1.8746644627753994e-06,-2.113873779308051e-05,6.049121657270007e-05
-3.359339416419971e-06,5.523680374608375e-05,-9.22257129332138e-07,-1.9768771380768158e-05,5.8526267821434885e-05
-7.573331913590664e-06,2.632635550980922e-05,2.406910653007799e-07,-1.7596596080693416e-05,5.275579314911738e-05
-1.6231404515565373e-05,-9.150166988547426e-06,-3.7976170119691233e-07,-1.4641020243288949e-05,4.976777927367948e-05
-2.6106814402737655e-05,-3.813995499513112e-05,2.2606832317251246e-06,-1.4760339581698645e-05,4.9770849727792665e-05
-3.3107462513726205e-05,-4.2757899791467935e-05,6.100491191318724e-06,-1.5651166904717684e-05,4.873995567322709e-05
-3.399779598112218e-05,-1.4047488548385445e-05,8.732535206945613e-06,-1.5757250366732478e-05,4.7117162466747686e-05
-3.038590330106672e-05,2.9090697353240103e-05,8.68137794896029e-06,-1.7554546502651647e-05,4.699857163359411e-05
-2.4774892153800465e-05,5.4898031521588564e-05,7.745225957478397e-06,-2.0801260689040646e-05,4.940924918628298e-05
-1.8967370124300942e-05,5.137169864610769e-05,9.311051144322846e-06,-2.3455482732970268e-05,5.228478039498441e-05
-1.2680628060479648e-05,3.072868275921792e-05,9.513705663266592e-06,-2.595142723293975e-05,5.246629370958544e-05
-9.365408004669007e-06,1.2058912943757605e-05,8.10353049018886e-06,-2.7004403818864375e-05,5.249860987532884e-05
-1.1151945727760904e-05,1.2889965546492022e-05,5.5457658163504675e-06,-2.4138436856446788e-05,5.418594446382485e-05
-1.69520153576741e-05,3.539696626830846e-05,1.758304961185786e-06,-1.9785653421422467e-05,5.6352087995037436e-05
-2.6268888177582994e-05,6.16498218732886e-05,-2.739462843237561e-06,-1.7751774066709913e-05,5.7753924920689315e-05
-3.5762386687565595e-05,7.318828284041956e-05,-4.730359705718001e-06,-2.0049730665050447e-05,5.849855733686127e-05
-4.0617931517772377e-05,7.228650065371767e-05,-1.5226003142743139e-06,-2.0380624846438877e-05,5.8470413932809606e-05
-4.108130087843165e-05,6.658217898802832e-05,6.4149517129408196e-06,-1.5963321857270785e-05,5.907648301217705e-05
-4.1468159906798974e-05,6.097152436268516e-05,9.880327525024768e-06,-1.3655127077072393e-05,5.8970337704522535e-05
-4.0091981645673513e-05,5.361130752135068e-05,7.69756570662139e-06,-1.4986463611421641e-05,5.850923480466008e-05
-3.126271622022614e-05,4.8646266805008054e-05,6.123325874796137e-06,-1.5915502444840968e-05,6.149819091660902e-05
-2.432323708490003e-05,4.463733785087243e-05,1.0333315913158003e-05,-1.6602647519903257e-05,6.512398977065459e-05
-2.925274020526558e-05,3.078976442338899e-05,1.454310586268548e-05,-1.8655709936865605e-05,6.402051076292992e-05
-3.483377076918259e-05,1.236939260707004e-05,1.0256864698021673e-05,-1.8651600839802995e-05,5.826762208016589e-05
-3.1946870876709e-05,3.0514186164509738e-06,2.6891761990555096e-06,-1.910813443828374e-05,5.8289071603212506e-05
-2.6222918677376583e-05,4.2923399945493657e-08,1.6870925492185052e-06,-1.8686281691771e-05,6.213265442056581e-05
-2.5739980628713965e-05,2.7317701096762903e-06,1.2985723607528143e-08,-1.4132902833807748e-05,6.262627721298486e-05
-2.777090048766695e-05,1.0144503903575242e-05,-2.092320528390701e-06,-1.107605203287676e-05,6.210460560396314e-05
-2.4660352210048586e-05,8.195418558898382e-06,1.3273910326461191e-06,-9.440271242056042e-06,6.059392399038188e-05
-1.7530681361677125e-05,4.3083587115688715e-06,8.575853826187085e-06,-9.251286428479943e-06,5.637956201098859e-05
-1.5872265066718683e-05,1.2961320862814318e-05,1.3091649634588975e-05,-9.440696885576472e-06,5.419158696895465e-05
-1.8432898286846466e-05,2.4466806280543096e-05,1.1716385415638797e-05,-9.363209755974822e-06,5.451337347039953e-05
-2.2954684027354233e-05,2.0709763703052886e-05,1.0237635251542088e-05,-1.033560693031177e-05,5.4663811170030385e-05
-2.6589455956127495e-05,1.0282617949997075e-05,1.0210495020146482e-05,-1.1089156942034606e-05,5.341088763088919e-05
-2.6884994440479204e-05,1.6036232409533113e-05,9.17296165425796e-06,-1.0432975614094175e-05,5.1626713684527203e-05
-2.2599127987632528e-05,3.678828579722904e-05,7.664117219974287e-06,-1.0031348210759461e-05,5.143640373717062e-05
-1.6673348000040278e-05,5.080860137240961e-05,8.05396575742634e-06,-1.1788225492637139e-05,4.936088953400031e-05
-1.5705581972724758e-05,4.994613118469715e-05,7.943885975691956e-06,-1.2943394722242374e-05,4.679441553889774e-05
-1.935042382683605e-05,4.430524495546706e-05,7.356773039646214e-06,-1.0564674994384404e-05,4.876928505836986e-05
-2.1115707568242215e-05,4.055862518725917e-05,5.491931005963124e-06,-7.566790372948162e-06,5.440022505354136e-05
-1.873187102319207e-05,3.428019044804387e-05,1.2877570725322585e-06,-5.463925845106132e-06,5.77328319195658e-05
-1.9343573512742296e-05,2.1673615265171975e-05,-2.4993996703415178e-06,-3.1693091386841843e-06,5.797461199108511e-05
-2.2578251446248032e-05,9.045903425430879e-06,-2.3986544874787796e-06,-4.534449544735253e-06,5.7391014706809074e-05
-2.1664331143256277e-05,6.494795798062114e-06,2.6784636020238395e-07,-9.570247129886411e-06,5.75413869228214e-05
-1.9109926142846234e-05,1.3827607290295418e-05,4.167045062786201e-06,-8.315569175465498e-06,5.806619083159603e-05
-1.9719887859537266e-05,1.7557398678036407e-05,6.006559488014318e-06,-4.781311872648075e-06,5.881318065803498e-05
-2.068516732833814e-05,1.5046439330035355e-05,5.9759768191725016e-06,-8.777464245213196e-06,6.119835597928613e-05
-1.88216599781299e-05,1.2305677955737337e-05,5.107432116346899e-06,-1.573963527334854e-05,6.240913353394717e-05
-1.6291169231408276e-05,8.777868060860783e-06,4.659994829125935e-06,-1.9545923350960948e-05,5.966619937680662e-05
-2.17447795876069e-05,6.6284715103392955e-06,9.042793863045517e-06,-1.539422373753041e-05,5.747827890445478e-05
-2.5067922251764685e-05,8.72012969921343e-06,1.3084000784147065e-05,-1.119353237299947e-05,5.817723285872489e-05
-2.2700980480294675e-05,8.207766768464353e-06,1.2984881323063746e-05,-1.244747454620665e-05,5.8566409279592335e-05
-2.0444784240680747e-05,3.833849859802285e-06,1.4959641703171656e-05,-1.4169005225994624e-05,6.058580765966326e-05
-1.784930645953864e-05,1.5786679341545096e-07,1.9271867131465115e-05,-1.0320793080609292e-05,6.156275776447728e-05
-1.676401552686002e-05,7.591541361762211e-06,2.1217440007603727e-05,-3.3021783565345686e-06,5.678911111317575e-05
-1.3243120520201046e-05,3.185801688232459e-05,1.8524688130128197e-05,6.393743774424365e-07,5.344938472262584e-05
-1.1942788660235237e-05,6.225064862519503e-05,1.5010637980594765e-05,1.6046068367359112e-06,5.161654553376138e-05
-1.689472992438823e-05,8.296268788399175e-05,1.2053182217641734e-05,1.2115576737414813e-06,5.3771480452269316e-05
-1.862770841398742e-05,8.460323442704976e-05,9.112037332670297e-06,3.170986474287929e-06,5.9267513279337436e-05
-1.4384916539711412e-05,8.103952859528363e-05,3.5076743643003283e-06,4.925027951685479e-06,6.263812247198075e-05
-1.411679568263935e-05,8.94838958629407e-05,-7.9770989032113e-06,3.842586920654867e-06,6.474921974586323e-05
-2.5457369702053256e-05,0.00010348959767725319,-2.173778193537146e-05,1.6740667660997133e-06,6.585815572179854e-05
-4.717113188235089e-05,0.00010316106636309996,-2.958143704745453e-05,1.4726608696946641e-06,6.699402001686394e-05
-6.857184780528769e-05,8.43227535369806e-05,-2.7123156542074867e-05,7.549487008873257e-07,6.656851473962888e-05
-7.61979681556113e-05,5.529574627871625e-05,-1.804457679099869e-05,-1.7181307612190722e-06,6.683894025627524e-05
-6.907485658302903e-05,2.8693473723251373e-05,-9.644015335652512e-06,-2.42574560616049e-06,7.063000521156937e-05
-5.7720164477359504e-05,1.4153790289128665e-05,-3.071931587328436e-06,-3.0132910069369245e-06,7.521889347117394e-05
-4.974726107320748e-05,1.3148704056220595e-05,6.512263553304365e-06,-7.417521828756435e-06,7.575829658890143e-05
-4.592393452185206e-05,1.3417366972134914e-05,1.6649319150019437e-05,-1.0994162039423827e-05,7.250616181408986e-05
-3.714189733727835e-05,3.3922485727089224e-06,2.381597187195439e-05,-1.1132492545584682e-05,6.921306339791045e-05
-1.1865658052556682e-05,-1.1818796338047832e-05,2.5511519197607413e-05,-1.2792227607860696e-05,6.765247962903231e-05
2.693554779398255e-05,-2.4565862986491993e-05,2.2417121726903133e-05,-1.456762220186647e-05,6.510589446406811e-05
5.829249494126998e-05,-2.758073605946265e-05,2.0148689145571552e-05,-1.260612225451041e-05,6.331683835014701e-05
6.627215771004558e-05,-1.752991374814883e-05,2.073156247206498e-05,-1.094719391403487e-05,6.052868775441311e-05
5.3517123888013884e-05,-4.346181412984151e-06,2.295911508554127e-05,-1.1427094250393566e-05,5.771596624981612e-05
3.330267281853594e-05,-2.5165743409161223e-06,2.489728467480745e-05,-1.0157832548429724e-05,6.150544504635036e-05
1.4601854672946502e-05,-1.1482003174023703e-05,2.1637155441567302e-05,-4.5380397750705015e-06,6.864120223326609e-05
1.8631036482474883e-06,-1.3225399015937e-05,1.6309837519656867e-05,-2.1553681506247813e-07,6.765736907254905e-05
-8.063546374614816e-06,3.6812548387388233e-06,1.6054562365752645e-05,-3.739871544894413e-06,5.978671833872795e-05
-2.0388068151078187e-05,2.6599582270137034e-05,1.724276262393687e-05,-5.886186954739969e-06,5.5900276493048295e-05
-3.124355498584919e-05,4.485974568524398e-05,1.9149974832544103e-05,-2.7999003577861004e-06,5.679802052327432e-05
-3.9380280213663355e-05,5.959396730759181e-05,2.403985126875341e-05,4.2348892748123035e-06,5.8086512581212446e-05
-3.856174589600414e-05,6.802194548072293e-05,2.5675297365523875e-05,8.514568435202818e-06,5.8396326494403183e-05
-3.7593454180750996e-05,7.068303239066154e-05,2.456064976286143e-05,4.887978775514057e-06,6.016535189701244e-05
-4.506484037847258e-05,7.612111221533269e-05,2.193033833464142e-05,-6.624815341638168e-06,5.873659756616689e-05
-5.0909693527501076e-05,8.060270920395851e-05,1.6339119611075148e-05,-2.247390875709243e-05,5.419201261247508e-05
-4.94727173645515e-05,7.644503057235852e-05,8.024630005820654e-06,-3.261280289734714e-05,5.252755363471806e-05
-4.655161319533363e-05,6.57197306281887e-05,-9.786417649593204e-07,-3.52710485458374e-05,5.5649270507274196e-05
-4.495274697546847e-05,5.5721058743074536e-05,-1.0552512321737595e-05,-3.3627835364313796e-05,5.8743338740896434e-05
-3.998156898887828e-05,5.047886224929243e-05,-1.831330700952094e-05,-3.011919579876121e-05,6.028698408044875e-05
-3.2257623388431966e-05,4.436526432982646e-05,-1.7840542568592355e-05,-2.537963882787153e-05,6.144699727883562e-05
-2.746050631685648e-05,3.236415795981884e-05,-7.465357157343533e-06,-1.8088749129674397e-05,6.1417231336236e-05
-3.0060538847465068e-05,2.0951925762346946e-05,3.2433461001346586e-06,-8.060827894951217e-06,6.016237966832705e-05
-3.530709363985807e-05,1.1036190699087456e-05,5.303686066326918e-06,3.3426587719986856e-08,5.6792458053678274e-05
-3.788627509493381e-05,1.3604500281871879e-06,5.748730700361193e-07,2.720008524192963e-06,5.472622797242366e-05
-3.776651283260435e-05,1.4036576203579898e-06,-5.5404466365871485e-06,4.163129233347718e-06,5.553930895985104e-05
-4.1027440602192655e-05,1.3517158549802843e-05,-8.832832463667728e-06,7.366888894466683e-06,5.590257205767557e-05
-4.4608183088712394e-05,3.297051807749085e-05,-9.514325938653201e-06,9.213149496645201e-06,5.445677015813999e-05
-3.864360405714251e-05,4.9795668019214645e-05,-7.5662524068320636e-06,9.968822269001976e-06,5.57830098841805e-05
-2.7458045224193484e-05,4.796031498699449e-05,-3.0844205411995063e-06,9.212797522195615e-06,5.9114678151672706e-05
-2.512769788154401e-05,2.5208466468029656e-05,-1.5398185269077658e-06,5.0212092901347205e-06,5.8350993640488014e-05
-3.322253905935213e-05,-1.656432323215995e-05,-9.728826171340188e-07,5.511211611519684e-07,5.519872865988873e-05
-4.1034894820768386e-05,-5.68878349440638e-05,1.7650786503509153e-06,7.736591669527115e-07,5.461953332996927e-05
-4.0367478504776955e-05,-5.34485443495214e-05,3.3340868412778946e-06,2.355179731239332e-06,5.910985782975331e-05
-4.124596307519823e-05,-1.5726756828371435e-05,2.882742364818114e-06,6.863070325380249e-07,6.334202771540731e-05
-4.0636059566168115e-05,2.590724307083292e-06,-4.421508492669091e-06,-6.001841484248871e-06,6.260797090362757e-05
-3.764573921216652e-05,-1.0403541637060698e-05,-1.6938896806095727e-05,-1.4883616131555755e-05,6.134506111266091e-05
-3.835171082755551e-05,-1.0124740583705716e-05,-2.6785399313666858e-05,-2.0938730813213624e-05,5.9816986322402954e-05
-3.525576539686881e-05,2.698515345400665e-05,-2.7014724764740095e-05,-2.0243676772224717e-05,5.838632569066249e-05
-3.2813313737278804e-05,7.038788317004219e-05,-2.169937033613678e-05,-2.0540019249892794e-05,5.851054083905183e-05
-3.129482865915634e-05,8.12877988209948e-05,-1.5326850189012475e-05,-2.740977106441278e-05,5.496620724443346e-05
-3.332944470457733e-05,6.565495277754962e-05,-9.509662959317211e-06,-2.9706803616136312e-05,4.669125337386504e-05
-3.4093358408426866e-05,4.576255741994828e-05,-2.2675576474284753e-06,-2.508753641450312e-05,4.1273091483162716e-05
-3.289938467787579e-05,2.5620012820581906e-05,3.31253113472485e-06,-1.691428042249754e-05,4.229231126373634e-05
-2.857909566955641e-05,1.4954925063648261e-05,6.186157861520769e-06,-8.962369065557141e-06,4.8495581722818315e-05
-1.6321220755344257e-05,2.0855903130723163e-05,1.0503978955966886e-05,-9.86129634839017e-07,5.4958109103608876e-05
-2.481971478118794e-06,3.627125624916516e-05,1.6969974240055308e-05,5.584335212915903e-06,5.802086889161728e-05
2.3341397081821924e-06,4.340665691415779e-05,2.06306158361258e-05,5.730816155846696e-06,5.608069113804959e-05
-6.12128042121185e-06,1.9711444110726006e-05,1.684811468294356e-05,-3.0742619401280535e-06,5.2388873882591724e-05
-1.5229515156534035e-05,-2.8791031581931747e-05,1.021244861476589e-05,-1.527239328424912e-05,5.354273889679462e-05
-1.2023711860820185e-05,-6.12045987509191e-05,5.939131369814277e-06,-2.3245174816111103e-05,5.859526208951138e-05
-1.2389398307277588e-07,-6.109195965109393e-05,6.68715483698179e-06,-2.3932669137138873e-05,6.282861431827769e-05
1.54035672039754e-06,-4.0904491470428184e-05,9.868921551969834e-06,-1.8374026694800705e-05,6.333227065624669e-05
-1.4324553376354743e-05,3.1877148103376385e-06,1.2574134416354354e-05,-1.2788262210960966e-05,5.945559678366408e-05
-3.705283597810194e-05,6.436253897845745e-05,1.0136476703337394e-05,-1.0917570762103423e-05,5.2764044085051864e-05
-5.185640839044936e-05,9.830415365286171e-05,5.699323082808405e-06,-1.1205020200577565e-05,5.091315688332543e-05
-5.610010339296423e-05,8.304692164529115e-05,7.409695626847679e-06,-7.747422387183178e-06,5.4053609346738085e-05
-5.676591899828054e-05,5.317827162798494e-05,1.3668448445969261e-05,1.8232799448014703e-06,5.873678674106486e-05
-6.376702367560938e-05,2.523787770769559e-05,1.5600264305248857e-05,1.162847092928132e-05,5.8227378758601844e-05
-7.627245940966532e-05,-1.1980283488810528e-05,1.3121345546096563e-05,1.684043490968179e-05,5.109697303851135e-05
-8.461230754619464e-05,-2.7825115466839634e-05,6.993212991801556e-06,2.080747435684316e-05,4.746064587379806e-05
-7.967712735990062e-05,1.1840106708405074e-05,-1.8891643094320898e-06,1.5630284906364977e-05,4.834220453631133e-05
-5.436194987851195e-05,8.106151653919369e-05,-1.2142241757828742e-05,2.6975644686899614e-06,5.208911170484498e-05
-1.6842370314407162e-05,0.00012058495485689491,-1.8438515326124616e-05,-4.5821861931472085e-06,5.60057997063268e-05
1.0863494026125409e-05,0.00010505379759706557,-1.8153850760427304e-05,-4.199236627755454e-06,5.934123328188434e-05
1.6249785403488204e-05,7.625650323461741e-05,-1.3707292964681983e-05,3.7848085412406363e-06,6.351810588967055e-05
4.436946255736984e-06,6.243576353881508e-05,-8.629466719867196e-06,1.149135368905263e-05,6.72279711579904e-05
-9.673216482042335e-06,4.4116826757090166e-05,-4.175697085884167e-06,1.3932692127127666e-05,6.989868415985256e-05
-1.1040085155400448e-05,1.8107502910424955e-05,3.96416726289317e-06,1.145102760347072e-05,6.930623931111768e-05
4.1782439552662254e-07,4.843214810534846e-06,1.3498491171048954e-05,4.9609529924055096e-06,6.260562076931819e-05
1.2044619325024541e-05,2.3075826902640983e-05,2.06670902116457e-05,-2.4097971618175507e-07,5.640323070110753e-05
1.574071757204365e-05,4.8415487981401384e-05,2.38644042838132e-05,-2.3535324089607457e-06,5.6820550526026636e-05
1.2935546692460775e-05,3.4147811675211415e-05,2.3869737560744397e-05,-6.8652220761578064e-06,5.938155300100334e-05
7.308616204682039e-06,-2.095592390105594e-05,2.2858617739984766e-05,-1.3485178897099104e-05,6.115033465903252e-05
1.3860757235306664e-06,-6.043303437763825e-05,2.1948091671220027e-05,-1.7222700989805162e-05,6.032802048139274e-05
-1.0609548553475179e-05,-4.7665369493188336e-05,1.924852949741762e-05,-2.0780273189302534e-05,5.739910193369724e-05
-3.265103805460967e-05,-5.6312874221475795e-06,1.4476946489594411e-05,-2.6669673388823867e-05,5.8834415540331975e-05
-5.5742926633683965e-05,2.3802585928933695e-05,9.88016472547315e-06,-3.134608778054826e-05,6.426062464015558e-05
-6.60578443785198e-05,2.6463476388016716e-05,7.7405084084603e-06,-3.174293669871986e-05,6.818476686021313e-05
-6.493831460829824e-05,2.1430574633996002e-05,1.0893772923736833e-05,-3.113607453997247e-05,6.664277316303924e-05
-6.14813034189865e-05,2.638448313518893e-05,1.8187596651841886e-05,-3.187249239999801e-05,6.0285608924459666e-05
-5.4400810768129304e-05,3.996248415205628e-05,2.3060580133460462e-05,-3.630571154644713e-05,5.511856943485327e-05
-4.084436659468338e-05,4.478695336729288e-05,2.1523073883145116e-05,-4.298968269722536e-05,5.401897942647338e-05
-2.7875310479430482e-05,3.685160481836647e-05,1.5529436495853588e-05,-4.708216147264466e-05,5.4855474445503205e-05
-2.5610333977965638e-05,2.7250134735368192e-05,6.638254944846267e-06,-4.8577592679066584e-05,5.537234392249957e-05
-3.3004824217641726e-05,1.2170105037512258e-05,-1.777172542460903e-06,-4.78616202599369e-05,5.656774737872183e-05
-4.3729174649342895e-05,-7.014285074546933e-06,-4.092504696018295e-06,-4.0328439354198053e-05,5.90621457376983e-05
-5.5186748795676976e-05,-1.3825687346979976e-05,-1.960660711119999e-06,-2.546301402617246e-05,6.201449286891147e-05
-6.206495891092345e-05,-4.313104454922723e-06,3.5345101423445158e-06,-1.1179837201780174e-05,5.8592053392203525e-05
-6.172441499074921e-05,1.617669295228552e-05,1.0698761798266787e-05,-7.955170531204203e-07,5.132443766342476e-05
-5.51364864804782e-05,3.4961547498824075e-05,1.3883376595913433e-05,4.980421635991661e-06,4.777894719154574e-05
-5.179124491405673e-05,4.805178105016239e-05,1.353846619167598e-05,4.303105924918782e-06,4.655154043575749e-05
-5.85138113819994e-05,5.391707964008674e-05,9.918850992107764e-06,6.979301815590588e-06,4.74565131298732e-05
-6.196375034051016e-05,5.688872988685034e-05,1.3293442862050142e-06,1.642980714677833e-05,5.217707439442165e-05
-5.12896258442197e-05,7.30210158508271e-05,-4.3555492084124126e-06,2.6705367417889647e-05,5.707070158678107e-05
-3.3871638152049854e-05,9.881135338218883e-05,-2.2797127030571573e-07,3.176090103806928e-05,5.862591933691874e-05
-2.2005564460414462e-05,0.00011468087905086577,9.812459211389069e-06,2.683286220417358e-05,6.009447679389268e-05
-1.9042467101826333e-05,0.0001141754473792389,1.3501774446922354e-05,1.584309575264342e-05,6.243200914468616e-05
-2.576438600954134e-05,0.000105490573332645,8.159660865203477e-06,2.1530297544813948e-06,6.174688314786181e-05
-3.344932338222861e-05,9.675366163719445e-05,5.360465820558602e-06,-8.648920811538119e-06,5.8444446040084586e-05
-3.283040496171452e-05,8.018415974220261e-05,9.327030056738295e-06,-1.570323911437299e-05,5.7359517086297274e-05
-2.4586746803834103e-05,4.987577995052561e-05,1.473843713029055e-05,-1.9243263523094356e-05,5.596487972070463e-05
-1.6843090634210967e-05,1.8980623281095177e-05,1.706766488496214e-05,-2.1367097360780463e-05,5.353885353542864e-05
-1.3622972801385913e-05,4.067469490109943e-06,1.54122753883712e-05,-2.430528729746584e-05,5.50872937310487e-05
-1.4308856407296844e-05,3.3578910461073974e-06,1.041760333464481e-05,-2.8972885047551244e-05,5.63359099032823e-05
-1.5395180525956675e-05,1.97493000086979e-06,6.3267425502999686e-06,-3.576528615667485e-05,5.3054616728331894e-05
-1.3307074368640315e-05,-6.020746695867274e-06,6.134755039965967e-06,-4.614000135916285e-05,5.096256791148335e-05
-9.702277566248085e-06,-1.5403027646243572e-05,7.28657369108987e-06,-6.055047924746759e-05,5.3818690503248945e-05
-9.150901860266458e-06,-1.985463131859433e-05,5.075137778476346e-06,-7.191394979599863e-05,5.571792280534282e-05
-1.3239420695754234e-05,-9.016845069709234e-06,3.071013452426996e-07,-7.210069452412426e-05,5.101804345031269e-05
-1.5582052583340555e-05,1.815221730794292e-05,1.5573583311834227e-07,-6.115790165495127e-05,4.69725055154413e-05
-1.4573908629245125e-05,4.05798782594502e-05,5.4932443163124844e-06,-4.5497148676076904e-05,5.066060111857951e-05
-1.417747262166813e-05,4.5408407459035516e-05,8.178401003533509e-06,-2.691572990443092e-05,5.605288970400579e-05
-1.6844365745782852e-05,3.963357085012831e-05,1.23206891657901e-05,-1.1842784260807093e-05,5.825471816933714e-05
-2.0796833268832415e-05,4.12648769270163e-05,2.350912291149143e-05,3.93864593206672e-06,6.112680421210825e-05
-1.8963581169373356e-05,4.781011011800729e-05,2.977927761094179e-05,2.1576248400378972e-05,6.169498374219984e-05
-6.0976062741247006e-06,5.0950173317687586e-05,2.39172422880074e-05,2.3354279619525187e-05,6.0147023759782314e-05
1.107134266931098e-05,7.139804074540734e-05,1.2124364729970694e-05,1.337732101092115e-05,6.013853271724656e-05
2.042807318503037e-05,0.00010848437523236498,2.754802608251339e-06,1.4354800441651605e-06,5.809427239000797e-05
2.064908403554e-05,0.0001270342036150396,2.6759123556985287e-06,-8.951742529461626e-06,5.417097781901248e-05
1.5150061699387152e-05,0.00010638283129082993,1.3812583574690507e-06,-1.5174911823123693e-05,5.24373899679631e-05
4.4488774619821925e-06,3.344026117702015e-05,-1.1745168194465805e-05,-1.8075177649734542e-05,5.734841397497803e-05
-1.1445090422057547e-05,-5.284876897349022e-05,-2.6995077860192396e-05,-1.690873432380613e-05,6.750172178726643e-05
-3.3599477319512516e-05,-7.992560131242499e-05,-3.360507616889663e-05,-1.769378468452487e-05,7.512717274948955e-05
-5.09742385474965e-05,-4.3830033973790705e-05,-2.8302227292442694e-05,-2.4605034923297353e-05,7.55765286157839e-05
-5.3589836170431226e-05,1.9061693024013948e-07,-2.0676285203080624e-05,-3.7968813558109105e-05,7.327236380660906e-05
-4.507847552304156e-05,1.735297882987652e-05,-1.4125572306511458e-05,-5.0428199756424874e-05,7.445695518981665e-05
-3.882385135511868e-05,2.0908148144371808e-05,-4.8214405978797e-06,-5.594066169578582e-05,7.920797361293808e-05
-3.696659405250102e-05,2.8164884497527964e-05,6.272109203564469e-06,-5.198794315219857e-05,8.255583816207945e-05
-3.429873686400242e-05,4.304452886572108e-05,1.4540026313625276e-05,-3.8117370422696695e-05,8.018156950129196e-05
-2.9085393180139363e-05,6.298639345914125e-05,1.5682171579101123e-05,-1.6721571228117682e-05,7.377254223683849e-05
-2.6483035981073044e-05,7.542961975559592e-05,1.2419010090525262e-05,3.280662667748402e-06,6.76844865665771e-05
-3.085660864599049e-05,7.411398837575689e-05,1.0660983207344543e-05,2.0412720914464444e-05,6.504126940853894e-05
-4.128133150516078e-05,6.403449515346438e-05,1.359976340609137e-05,3.92392321373336e-05,6.639439379796386e-05
-5.2359588153194636e-05,4.121485471841879e-05,2.1451820430229418e-05,6.098589437897317e-05,6.96713977959007e-05
-5.7099452533293515e-05,6.840304195065983e-06,2.9329648896236904e-05,8.083247666945681e-05,7.037615432636812e-05
-5.6264689192175865e-05,-3.082654075114988e-05,3.4184689866378903e-05,9.003563900478184e-05,6.501679308712482e-05
-5.096618042443879e-05,-7.751672092126682e-05,3.906244091922417e-05,8.930744661483914e-05,5.296217568684369e-05
-3.8994512578938156e-05,-0.0001177870508399792,3.946578726754524e-05,7.968919817358255e-05,4.236389941070229e-05
-2.127153129549697e-05,-9.41399484872818e-05,3.284616468590684e-05,6.30108843324706e-05,3.977121741627343e-05
-1.01349405667861e-05,-9.987557859858498e-06,2.2653573978459463e-05,4.603855995810591e-05,4.1351249819854274e-05
-1.6566742488066666e-05,6.470166408689693e-05,1.450452964490978e-05,2.8009993911837228e-05,4.645122680813074e-05
-2.913030948548112e-05,9.112319821724668e-05,4.077863195561804e-06,9.70066957961535e-06,5.437798972707242e-05
-2.2910506231710315e-05,9.578807657817379e-05,-1.3572594980360009e-05,-5.971981863694964e-06,6.205373938428238e-05
-3.3600995266169775e-06,9.415291424375027e-05,-2.0575298549374565e-05,-1.8760532839223742e-05,6.140406912891194e-05
1.5174001418927219e-05,7.829151581972837e-05,-1.5064352737681475e-05,-2.456611764500849e-05,5.181987944524735e-05
2.5637365979491733e-05,6.085621498641558e-05,-1.1766896932385862e-05,-2.8005364583805203e-05,4.72397732664831e-05
3.339181421324611e-05,5.437342406366952e-05,-1.2111699106753804e-05,-3.475933408481069e-05,5.436755600385368e-05
4.335518678999506e-05,6.151611887617037e-05,-1.6965017493930645e-05,-4.448926119948737e-05,6.86556231812574e-05
4.43654389528092e-05,5.410788071458228e-05,-2.0960036636097357e-05,-4.7150337195489556e-05,8.212680404540151e-05
2.8379725335980766e-05,2.9038172215223312e-05,-1.964801958820317e-05,-4.426436498761177e-05,8.48505660542287e-05
3.2559344163018977e-06,4.0350196286453865e-06,-1.4632553757110145e-05,-3.841196303255856e-05,7.59595786803402e-05
-1.4823394849372562e-05,-5.647530088026542e-06,-8.068055649346206e-06,-3.053860564250499e-05,6.49496287223883e-05
-2.3267013602890074e-05,-5.920575858908705e-06,-3.9240865135070635e-07,-2.6976660592481494e-05,5.8124940551351756e-05
-2.9540153263951652e-05,-3.86640408578387e-07,7.681389433855657e-06,-2.9039216315140948e-05,5.459792009787634e-05
-3.725831629708409e-05,1.8338732843403704e-05,1.387901465932373e-05,-2.69762531388551e-05,4.897176768281497e-05
-4.140552846365608e-05,3.471700620139018e-05,1.5578527381876484e-05,-2.3960243197507225e-05,4.2379753722343594e-05
-3.927363650291227e-05,2.5314793674624525e-05,9.811995369091164e-06,-3.44730397046078e-05,4.2728053813334554e-05
-3.581549390219152e-05,-2.3468460312869865e-06,2.3337283892033156e-06,-5.146908006281592e-05,5.220522143645212e-05
-3.678874054457992e-05,-1.9404535123612732e-05,1.554096087375001e-07,-5.81300919293426e-05,6.283851689659059e-05
-3.691299571073614e-05,-4.077847188455053e-05,1.7859745184978237e-06,-5.4071522754384205e-05,6.447630585171282e-05
-3.2964333513518795e-05,-7.498131162719801e-05,-9.608935442884103e-07,-4.918733247905038e-05,5.809627691633068e-05
-2.7803611374110915e-05,-8.131515642162412e-05,-9.133388630289119e-06,-3.803137951763347e-05,5.30000361322891e-05
-1.6908743418753147e-05,-3.818990444415249e-05,-1.753185824782122e-05,-1.704573332972359e-05,5.135351239005104e-05
-3.2660971100995084e-06,1.879896444734186e-05,-1.9309321942273527e-05,1.0593889783194754e-05,4.76559616799932e-05
-3.1716871262688073e-07,6.443693564506248e-05,-7.885098057158757e-06,3.7211804738035426e-05,4.218219328322448e-05
-1.1085675396316219e-05,9.288177534472197e-05,1.002859335130779e-05,5.268175300443545e-05,4.120683661312796e-05
-1.6986470654956065e-05,0.0001099274741136469,2.5082326828851365e-05,5.9267451433697715e-05,4.261266440153122e-05
-6.815773303969763e-06,0.00012475845869630575,3.085085336351767e-05,5.2995685109635815e-05,4.580833774525672e-05
-1.1596971489780117e-06,0.00011578851990634575,2.8366561309667304e-05,3.698136060847901e-05,5.450868047773838e-05
-1.4689459021610674e-05,6.228284473763779e-05,2.6269626687280834e-05,2.5129927962552756e-05,6.306075374595821e-05
-4.039381383336149e-05,3.193897646269761e-05,2.4655579181853682e-05,1.8078539142152295e-05,6.287087308010086e-05
-5.855329072801396e-05,6.076699719415046e-05,2.4024491722229868e-05,1.3871873306925409e-05,5.409389268606901e-05
-6.038595529389568e-05,7.736944826319814e-05,2.191411840613e-05,5.632982720271684e-06,4.5811972086085007e-05
-5.551031790673733e-05,5.008342850487679e-05,1.651375350775197e-05,-2.960437313959119e-06,4.182660995866172e-05
-5.372790474211797e-05,1.0755213224911131e-05,4.381621693028137e-06,-9.844176929618698e-06,3.811774149653502e-05
-5.665705612045713e-05,1.4113213637756417e-06,-9.29463203647174e-06,-1.74934248207137e-05,3.460044172243215e-05
-5.732961290050298e-05,4.108374923816882e-05,-1.494556272518821e-05,-2.452238550176844e-05,3.683675822685473e-05
-5.359858914744109e-05,0.00010096761980094016,-1.184849770652363e-05,-2.2851823814562522e-05,4.596606231643818e-05
-5.2813989896094427e-05,0.0001292829983867705,-4.9381710596207995e-06,-1.4559575902239885e-05,5.3538376960204914e-05
-6.010137076373212e-05,0.00010691364877857268,-2.752921545834397e-06,-1.1974792869295925e-05,5.485730434884317e-05
-6.559566827490926e-05,4.037973121739924e-05,-4.911847554467386e-06,-2.3649085051147267e-05,5.546481042983942e-05
-6.343412678688765e-05,-3.8805552321719006e-05,-5.716814030165551e-06,-4.069582064403221e-05,5.737899846280925e-05
-5.561766374739818e-05,-8.92539246706292e-05,-1.9193139451090246e-06,-4.9917780415853485e-05,6.110152025939897e-05
-3.907093559973873e-05,-8.747351967031136e-05,5.496399353432935e-07,-5.278618846205063e-05,6.948390364414081e-05
-1.4524161088047549e-05,-3.813667353824712e-05,-4.072003321198281e-07,-5.49653013877105e-05,7.897549221524969e-05
2.734134341153549e-06,2.7431462513050064e-05,-1.513236043138022e-06,-6.110413232818246e-05,8.166507905116305e-05
-3.441309218032984e-06,8.625718328403309e-05,1.0149300351258717e-06,-6.606597889913246e-05,7.735502731520683e-05
-2.2972515580477193e-05,0.000142401855555363,9.000580575957429e-06,-6.0484591813292354e-05,7.293621456483379e-05
-3.4837907151086256e-05,0.00018397040548734367,1.778172008926049e-05,-4.533685205387883e-05,7.590246241306886e-05
-4.2513449443504214e-05,0.00018167697999160737,1.7728894817992114e-05,-3.1628122087568045e-05,9.253257303498685e-05
-5.2858224080409855e-05,0.0001223770814249292,1.1507698218338192e-05,-1.7466942153987475e-05,0.00010906947863986716
-4.979687219019979e-05,1.961670750461053e-05,7.43800319469301e-06,2.404450469839503e-07,0.00010522873344598338
-2.8425112759578042e-05,-9.097342262975872e-05,9.25463973544538e-06,1.3519534149963874e-05,8.47928604343906e-05
-1.2722449355351273e-05,-0.00016361945017706603,1.7637208657106385e-05,1.5844714653212577e-05,6.16678298683837e-05
-7.567828106402885e-06,-0.0001362125331070274,2.835063060047105e-05,1.342292580375215e-05,4.840156907448545e-05
-1.0820447187143145e-06,-4.715618706541136e-05,3.159619518555701e-05,1.0048865078715608e-05,5.486003283294849e-05
-4.730526597995777e-06,-5.413869985204656e-06,2.6042203899123706e-05,4.270326826372184e-06,6.623433728236705e-05
-1.907094701891765e-05,-1.7820932043832727e-05,1.901430186990183e-05,-5.195506673771888e-06,6.741646939190105e-05
-3.0528481147484854e-05,-4.002087007393129e-05,1.1118268048448954e-05,-1.5104405974852853e-05,6.135563307907432e-05
-4.2168201616732404e-05,-2.894592580560129e-05,3.0376559152500704e-06,-2.235844476672355e-05,5.536774915526621e-05
-5.609805157291703e-05,2.9196960895205848e-05,-3.969767874423269e-07,-2.9063638066872954e-05,5.516733290278353e-05
-6.63691753288731e-05,7.912178261904046e-05,7.793617555762467e-07,-3.812109571299516e-05,5.3849100368097425e-05
-6.70512454234995e-05,8.243989577749744e-05,1.6750157101341756e-06,-4.391577749629505e-05,5.095383676234633e-05
-5.639338996843435e-05,6.149132241262123e-05,6.342342658172129e-06,-4.550278026727028e-05,4.7667072067270055e-05
-4.285161412553862e-05,4.29863175668288e-05,1.5673060261178762e-05,-4.387988883536309e-05,4.630697367247194e-05
-3.312336775707081e-05,1.7018408470903523e-05,2.610139017633628e-05,-3.690206722239964e-05,4.633786738850176e-05
-2.6430516300024465e-05,-2.6574383809929714e-05,2.9898790671722963e-05,-2.8513581128208898e-05,4.8073477955767885e-05
-1.9208593585062772e-05,-7.270806963788345e-05,2.3092759874998592e-05,-2.4076522095128894e-05,5.286870873533189e-05
-9.516068530501798e-06,-0.00011001756502082571,1.0154986739507876e-05,-2.403349026280921e-05,5.896682705497369e-05
2.0037678041262552e-06,-0.00013155309716239572,1.5337460013142845e-07,-2.509702244424261e-05,6.553588173119351e-05
1.467006586608477e-05,-0.00011994688247796148,-6.534131443913793e-06,-2.4908398700063117e-05,6.89523876644671e-05
2.0294863134040497e-05,-6.237356865312904e-05,-1.5379369870061055e-05,-2.401797246420756e-05,6.037130515323952e-05
1.5249756870616693e-05,2.176623820560053e-05,-2.397769276285544e-05,-2.1889747586101294e-05,4.1083141695708036e-05
1.4122812899586279e-05,8.152111695380881e-05,-2.5479714167886414e-05,-1.8813561837305315e-05,2.9547238227678463e-05
3.109097451670095e-05,8.474194328300655e-05,-2.0306539227021858e-05,-3.149789336021058e-05,3.433406527619809e-05
5.558650445891544e-05,4.790658567799255e-05,-2.0420522560016252e-05,-6.902363384142518e-05,4.674245064961724e-05
6.46468615741469e-05,2.0693158148787916e-05,-2.7074493118561804e-05,-0.00010971218580380082,5.33860620635096e-05
4.815195643459447e-05,3.207333793397993e-05,-2.84268862742465e-05,-0.00012795868678949773,5.0855993322329596e-05
1.053866890288191e-05,5.8978330343961716e-05,-1.842054734879639e-05,-0.00011727218952728435,4.136919596930966e-05
-3.0875627999193966e-05,7.846036896808073e-05,-2.63945480583061e-06,-8.836618508212268e-05,3.495836426736787e-05
-5.896475340705365e-05,7.364701014012098e-05,6.946487246750621e-06,-5.890358443139121e-05,3.331102925585583e-05
-6.453860260080546e-05,6.168519757920876e-05,4.264573817636119e-06,-2.3589034753968008e-05,3.431912773521617e-05
-6.232162559172139e-05,7.814692071406171e-05,-1.7669600538283703e-06,1.7902162653626874e-05,4.060047649545595e-05
-7.488030678359792e-05,9.89093241514638e-05,-2.095611989716417e-06,5.194949699216522e-05,4.675862510339357e-05
-8.358634659089148e-05,0.00010161263344343752,3.476673100522021e-06,8.022605470614508e-05,5.7105258747469634e-05
-7.445461233146489e-05,0.00011097377864643931,1.506307853560429e-05,0.0001085113690351136,8.101924322545528e-05
-5.959988266113214e-05,0.00012095740385120735,2.7511308871908113e-05,0.0001267238985747099,0.00010241267591482028
-4.941496445098892e-05,0.00010150147863896564,3.1023748306324705e-05,0.0001258975244127214,0.00010316678526578471
-3.883652971126139e-05,6.131612462922931e-05,3.3922999136848375e-05,0.00011625103797996417,8.983460429590195e-05
-1.8229462511953898e-05,4.101532613276504e-05,3.870369619107805e-05,0.000101271434687078,7.882773934397846e-05
-3.0367741601367015e-06,6.016186307533644e-05,3.6410827306099236e-05,7.118457142496482e-05,7.349981751758605e-05
-7.719284440099727e-06,9.616406168788671e-05,2.5613067919039167e-05,2.963599399663508e-05,7.01589960954152e-05
-2.5448911401326768e-05,0.000131157212308608,1.4857178030069917e-05,-5.422573849500623e-06,6.809213664382696e-05
-4.454010195331648e-05,0.00016419825260527432,1.1769782759074587e-05,-2.4361310352105647e-05,6.926379137439653e-05
-6.398821278708056e-05,0.00017830626165959984,9.101025170821231e-06,-3.1734896765556186e-05,6.786737503716722e-05
-8.437197539024055e-05,0.00014720899343956262,-1.3050130576175434e-07,-4.0934337448561564e-05,5.584041718975641e-05
-0.00010325092443963513,6.857179687358439e-05,-1.0917366125795525e-05,-6.509515515062958e-05,3.97000512748491e-05
-0.00010845960059668869,-1.2504166988946963e-05,-1.7495294741820544e-05,-0.00010232843487756327,3.355282751726918e-05
-8.601261652074754e-05,-1.6911215425352566e-05,-1.7457308786106296e-05,-0.00012749301095027477,4.321944652474485e-05
-4.3734879000112414e-05,6.476906855823472e-05,-9.700323062133975e-06,-0.00012550856627058238,6.269145524129272e-05
-1.2138478268752806e-05,0.00013182977272663265,-1.1354876505720313e-06,-0.00010804510384332389,7.619562529725954e-05
-1.473085012548836e-05,9.133893036050722e-05,1.4287345493357861e-06,-8.316761523019522e-05,7.148258009692654e-05
-3.803294384852052e-05,-3.903940523741767e-05,1.5416560472658603e-06,-4.3663778342306614e-05,5.81512285862118e-05
-4.21539371018298e-05,-0.00015844489098526537,7.19895479051047e-06,1.253712525794981e-05,5.235887147136964e-05
-1.2187427273602225e-05,-0.00017707196820992976,1.5685967809986323e-05,7.125850243028253e-05,5.8814377553062513e-05
2.1974889023113064e-05,-0.00010174557974096388,2.1993249902152456e-05,0.00011248563532717526,6.781610136386007e-05
2.57481551670935e-05,-1.9795583284576423e-05,2.2395057385438122e-05,0.00013604306150227785,6.744765414623544e-05
-1.825269691835274e-06,1.3562579624704085e-05,1.915504617500119e-05,0.0001496027980465442,5.408807555795647e-05
-2.98269915219862e-05,-2.962183998533874e-06,2.140368269465398e-05,0.00014815306349191815,4.262590664438903e-05
-3.4349304769420996e-05,-5.986407632008195e-05,2.1630581613862887e-05,0.00013675181253347546,4.4227246689843014e-05
-1.9262763089500368e-05,-0.00010767778439912945,1.3847134141542483e-05,0.00011374968744348735,5.3768791985930875e-05
-1.2808791325369384e-06,-9.435674292035401e-05,-9.053213716470054e-07,7.56902591092512e-05,6.366021261783317e-05
1.2316741958784405e-05,-3.817266406258568e-05,-1.3523288544092793e-05,3.8276910345302895e-05,6.734668568242341e-05
1.5081292076501995e-05,7.746283699816559e-06,-1.2872431398136541e-05,1.602749944140669e-05,6.167748506413773e-05
5.305028025759384e-06,2.1904910681769252e-05,-7.006067789916415e-06,3.913941782229813e-06,5.451309334603138e-05
-7.643078788532875e-06,2.2978194465395063e-05,-3.1450956612388836e-06,-6.132430826255586e-06,5.116297325002961e-05
-2.3913959012134e-05,3.179972554789856e-05,-3.4128387937926163e-07,-1.3182431757741142e-05,5.047429658588953e-05
-4.002237619715743e-05,5.057921589468606e-05,2.1153464331291616e-06,-1.733620410959702e-05,5.1541250286391005e-05
-4.945901673636399e-05,6.605983799090609e-05,-1.898348273243755e-06,-1.8937351342174225e-05,5.18254455528222e-05
-5.116096144774929e-05,7.217763777589425e-05,-1.2493528629420325e-05,-2.09347163036e-05,5.1542876462917775e-05
-4.279505810700357e-05,7.866831583669409e-05,-1.9007924493052997e-05,-2.0653733372455463e-05,5.4214939154917374e-05
-3.243030369048938e-05,8.665001951158047e-05,-1.3446995581034571e-05,-1.8747046851785854e-05,5.967606193735264e-05
-2.9919025109848008e-05,8.351037104148418e-05,-9.420080004929332e-07,-1.986941060749814e-05,6.141266931081191e-05
-3.371603452251293e-05,6.836842658231035e-05,8.825537406664807e-06,-2.4901104552554898e-05,5.941163544775918e-05
-3.2807907700771466e-05,5.1558337872847915e-05,1.1030002497136593e-05,-2.9534792702179402e-05,5.758603219874203e-05
-2.672523260116577e-05,3.623319571488537e-05,7.89101432019379e-06,-3.137548628728837e-05,5.7436194765614346e-05
-2.259985740238335e-05,2.8346996259642765e-05,5.424641585705103e-06,-2.9777811505482532e-05,5.994098319206387e-05
-2.1644535081577487e-05,3.830924106296152e-05,7.253546300489688e-06,-2.538108492444735e-05,6.46700500510633e-05
-2.105909698002506e-05,4.9214675527764484e-05,1.2163917745056096e-05,-2.346340443182271e-05,6.85869890730828e-05
-2.1042535081505775e-05,2.915870754804928e-05,1.6203637642320246e-05,-2.5159271899610758e-05,6.81201636325568e-05
-2.432153996778652e-05,-1.638417597860098e-05,1.9045941371587105e-05,-2.8773372832802124e-05,6.371838389895856e-05
-3.032282074855175e-05,-4.131756941205822e-05,2.115483039233368e-05,-3.180488420184702e-05,5.9968842833768576e-05
-3.437674240558408e-05,-1.48441904457286e-05,2.2063235519453883e-05,-3.426798139116727e-05,5.799936116090976e-05
-3.3082582376664504e-05,4.005002847407013e-05,2.134345777449198e-05,-3.6565754271578044e-05,5.939237234997563e-05
-2.8068043320672587e-05,7.353642286034301e-05,2.2235124561120756e-05,-3.786791785387322e-05,6.3185507315211e-05
-2.2754717065254226e-05,5.178457286092453e-05,2.5001967514981516e-05,-3.712188481586054e-05,5.849949229741469e-05
-1.9230259567848407e-05,2.63709512182686e-06,2.1737394490628503e-05,-3.23442327498924e-05,4.9844402383314446e-05
-1.0589216799417045e-05,-9.033808964886703e-06,1.300889107369585e-05,-3.373653453309089e-05,4.7615209041396156e-05
1.830337126307313e-08,2.8755583116435446e-05,6.75160163154942e-06,-4.536200503935106e-05,5.2868719649268314e-05
4.812187626157538e-07,7.233213545987383e-05,6.2199569583754055e-06,-5.115959356771782e-05,6.450985529227182e-05
-7.054443358356366e-06,8.871226600604132e-05,1.1193744285264984e-05,-4.5946697355248034e-05,7.083804666763172e-05
-1.195321419800166e-05,7.618059316882864e-05,1.498535493738018e-05,-3.7807520129717886e-05,6.600472988793626e-05
-1.1214895494049415e-05,4.8167607019422576e-05,1.4505677427223418e-05,-3.5894594475394115e-05,5.600525764748454e-05
-7.693943189224228e-06,1.7866372218122706e-05,1.1433101462898776e-05,-4.144350896240212e-05,5.135038009029813e-05
-5.355555913411081e-06,-2.193592990806792e-06,6.1691093833360355e-06,-4.642463682102971e-05,4.9973896238952875e-05
-7.983656360011082e-06,1.9744473320315592e-05,-5.992343403704581e-07,-4.559754961519502e-05,4.906429967377335e-05
-1.457556845707586e-05,8.053354395087808e-05,-4.241536771587562e-06,-4.1771803807932884e-05,4.893463847110979e-05
-2.4401697373832576e-05,0.000137090144562535,-3.7204267755441833e-06,-3.537731754477136e-05,4.874013757216744e-05
-3.4033178962999955e-05,0.00016220606630668044,-2.2541744328918867e-06,-2.840938395820558e-05,4.984936094842851e-05
-3.676804044516757e-05,0.0001588744344189763,-1.666620846663136e-06,-2.2798350983066484e-05,5.335757305147126e-05
-3.0239174520829692e-05,0.00014513595669995993,-1.1823892691609217e-06,-1.870185042207595e-05,6.0705962823703885e-05
-1.6470519767608494e-05,0.00012970066745765507,1.8684318092709873e-06,-1.636537490412593e-05,6.626828690059483e-05
-4.990066372556612e-06,9.928391955327243e-05,8.059714673436247e-06,-1.5120939679036383e-05,6.676126940874383e-05
-3.9286705941776745e-06,3.129364995402284e-05,1.3342187230591662e-05,-1.4873736290610395e-05,6.502134056063369e-05
-9.538562153466046e-06,-7.003742939559743e-05,1.2599964975379407e-05,-1.6498473996762186e-05,6.458285497501493e-05
-1.3896607924834825e-05,-0.00016793239046819508,5.420959041657625e-06,-1.925624383147806e-05,6.638417835347354e-05
-1.6993877579807304e-05,-0.0002015738864429295,-2.7343664896761766e-06,-1.995563434320502e-05,6.951454997761175e-05
-2.7333238904247992e-05,-0.00013018313620705158,-6.051036052667769e-06,-1.900974712043535e-05,6.56702759442851e-05
-4.7340112359961495e-05,-1.306006743106991e-05,-6.301223947957624e-06,-1.7456786736147478e-05,5.782549851574004e-05
-6.674171891063452e-05,6.08058508078102e-05,-5.80103096581297e-06,-1.4988688235462178e-05,5.4277370509225875e-05
-7.627234299434349e-05,8.475631329929456e-05,-5.97372400079621e-06,-1.395419894834049e-05,6.029445648891851e-05
-6.460418808273971e-05,7.823333726264536e-05,-6.411074082279811e-06,-1.4536019079969265e-05,6.926436617504805e-05
-3.504493724904023e-05,3.0051836802158505e-05,-6.9270399762899615e-06,-1.3775148545391858e-05,7.141131209209561e-05
-1.7731697880662978e-05,-4.9782982387114316e-05,-5.768499704572605e-06,-1.5135316971282009e-05,6.964056956348941e-05
-1.8488261048332788e-05,-8.039639942580834e-05,-1.1119047940155724e-06,-1.8034283129964024e-05,6.69736837153323e-05
-2.9414486562018283e-05,-3.358275716891512e-05,1.9996584796899697e-06,-2.0392068108776584e-05,6.32497831247747e-05
-5.889623935217969e-05,3.83959777536802e-05,8.806289315543836e-07,-2.0178762497380376e-05,5.7748206018004566e-05
-9.269358997698873e-05,9.287478314945474e-05,2.980523504447774e-06,-1.729884388623759e-05,5.524382504518144e-05
-0.00010010960249928758,0.00011760844063246623,1.0597464097372722e-05,-1.1431476195866708e-05,5.733660873374902e-05
-7.663958967896178e-05,0.00011509933392517269,1.648228135309182e-05,-4.006496965303086e-06,6.393250077962875e-05
-4.887099930783734e-05,9.629964915802702e-05,1.620084913156461e-05,8.246326501648582e-07,6.765851867385209e-05
-3.725996793946251e-05,7.611152977915481e-05,1.263984086108394e-05,2.6476589027879527e-06,6.537509034387767e-05
-3.9427039155270904e-05,5.096879613120109e-05,1.0930955795629416e-05,-4.621892060185928e-07,6.157134339446202e-05
-4.324923429521732e-05,1.2206234714540187e-05,7.620399628649466e-06,-6.500471045001177e-06,5.784221866633743e-05
-4.10363390983548e-05,-3.777820893446915e-05,5.384134169617028e-07,-1.0718768862716388e-05,5.235835487837903e-05
-3.678515349747613e-05,-8.107699977699667e-05,-1.0321354238840286e-05,-1.1739537512767129e-05,4.7757836000528187e-05
-3.743132037925534e-05,-9.454131941311061e-05,-2.2283345970208757e-05,-1.0924850357696414e-05,4.698049451690167e-05
-4.209624239592813e-05,-7.180273678386584e-05,-2.7854899599333294e-05,-9.00109444046393e-06,4.880995038547553e-05
-4.2247069359291345e-05,-3.8347359804902226e-05,-2.2952008293941617e-05,-7.508275302825496e-06,5.2013750973856077e-05
