-4.807980440091342e-05,3.4243505069753155e-05,1.547071235563635e-07,7.575626113975886e-06,5.473838245961815e-05
-4.641788109438494e-05,3.057617141166702e-05,-2.0071449853276135e-06,-1.4893323168507777e-05,4.8551020881859586e-05
-3.122258567600511e-05,3.003974234161433e-05,-5.000927558285184e-06,-3.479798760963604e-05,3.9989019569475204e-05
-1.573916415509302e-05,3.086890865233727e-05,-5.161393346497789e-06,-4.584207636071369e-05,3.605406527640298e-05
-7.1693093559588306e-06,3.058126458199695e-05,-4.7630464905523695e-06,-5.418333603302017e-05,3.9767845009919256e-05
-6.483232027676422e-06,3.360865594004281e-05,-5.828181201650295e-06,-6.999626202741638e-05,4.847818854614161e-05
-1.2868203157267999e-05,3.78984295821283e-05,-9.917656825564336e-06,-9.00425438885577e-05,5.859186057932675e-05
-2.172859967686236e-05,3.744875721167773e-05,-1.3460263289744034e-05,-9.644839155953377e-05,6.779685645597056e-05
-2.749133636825718e-05,3.4650533052627e-05,-1.531594170955941e-05,-7.971125160111114e-05,8.343768422491848e-05
-3.057817230001092e-05,3.220011785742827e-05,-1.2502173376560677e-05,-4.676861863117665e-05,0.00010533109889365733
-3.272799222031608e-05,3.008251587743871e-05,-7.924642886791844e-06,-1.6790621884865686e-05,0.00012252027227077633
-3.5554810892790556e-05,2.7839409085572697e-05,-3.5161478990630712e-06,3.003944584634155e-06,0.00012368752504698932
-4.21944132540375e-05,2.473439963068813e-05,1.4946961073292186e-06,1.3647339983435813e-05,0.0001064052848960273
-5.390189471654594e-05,1.301026077271672e-05,5.4302927310345694e-06,1.352057824988151e-05,7.437780732288957e-05
-7.038185867713764e-05,-1.1226655260543339e-05,7.868171451264061e-06,1.4073212923904066e-06,3.0970833904575557e-05
-7.825482316548005e-05,-3.023277167812921e-05,7.924688361526933e-06,-1.4883337826177012e-05,-1.1444039046182297e-05
-6.376445526257157e-05,-2.6807747417478822e-05,8.078520295384806e-06,-2.504707117623184e-05,-3.458122591837309e-05
-3.029204708582256e-05,-6.265219781198539e-06,9.753769518283661e-06,-2.8000999009236693e-05,-2.8849828595411964e-05
6.343519544316223e-06,1.3601761565951165e-05,1.0526512596698012e-05,-2.728541221586056e-05,-3.3305384476989275e-06
2.973484697577078e-05,2.2547355911228806e-05,5.22355276189046e-06,-2.284592846990563e-05,2.2617625290877186e-05
3.3310570870526135e-05,1.9365519619896077e-05,-2.7000162390322657e-06,-1.207139666803414e-05,4.0425456973025575e-05
2.5193927285727113e-05,1.2633816368179396e-05,-6.402633061952656e-06,3.3808321404649178e-06,5.8280176745029166e-05
1.4117103091848549e-05,1.2676758160523605e-05,-3.136076884402428e-06,2.053487696684897e-05,7.713002560194582e-05
1.4200891200744081e-06,1.7451598978368565e-05,2.14110787055688e-06,3.4563898225314915e-05,8.4747101936955e-05
-6.880401542730397e-06,2.2306538085103966e-05,7.805213499523234e-06,4.698956763604656e-05,7.964487303979695e-05
-7.569920853711665e-06,2.6304885977879167e-05,1.564564081490971e-05,6.139616016298532e-05,7.00107921147719e-05
-7.844618266972248e-06,2.7641528504318558e-05,2.3373791918857023e-05,7.269378693308681e-05,6.406114698620513e-05
-1.3698481780011207e-05,1.967682510439772e-05,2.997306910401676e-05,7.503324741264805e-05,6.329591997200623e-05
-1.920153954415582e-05,8.864894880389329e-06,3.2139490940608084e-05,6.58687058603391e-05,6.490068335551769e-05
-2.0321638658060692e-05,2.6924967642116826e-06,2.7385955036152154e-05,5.186197449802421e-05,6.716691132169217e-05
-2.3333728677243926e-05,4.8686624722904526e-06,2.0555835362756625e-05,3.978578024543822e-05,7.28798404452391e-05
-2.7172032787348144e-05,1.1040272511309013e-05,1.4349412595038302e-05,2.5527622710797004e-05,7.88495090091601e-05
-3.0005852750036865e-05,1.1113519576610997e-05,1.2435087228368502e-05,9.575204785505775e-06,7.822721090633422e-05
-3.4429413062753156e-05,1.4277142327046022e-05,8.967828762251884e-06,-3.254656121498556e-06,8.216185233322904e-05
-3.585646118153818e-05,2.2840151359559968e-05,1.921812327054795e-06,-9.714533916849177e-06,8.908198651624843e-05
-3.504154665279202e-05,3.595105590648018e-05,4.6090988803371147e-07,-1.377022999804467e-05,8.65528782014735e-05
-3.8247777411015704e-05,4.699512282968499e-05,4.707583229901502e-06,-1.7464222764829174e-05,7.133064355002716e-05
-4.5268669055076316e-05,5.37378218723461e-05,8.454406270175241e-06,-2.0110082914470695e-05,5.738316031056456e-05
-5.198977669351734e-05,5.9324604080757126e-05,7.94204697740497e-06,-2.1998177544446662e-05,5.390352089307271e-05
-5.7284698414150625e-05,6.402247527148575e-05,8.384205102629494e-06,-2.2867652660352178e-05,5.457157385535538e-05
-6.471029337262735e-05,7.248535985127091e-05,9.694884283817373e-06,-2.293143370479811e-05,5.124897143105045e-05
-7.029713742667809e-05,8.533475920557976e-05,6.453597507061204e-06,-2.348291309317574e-05,4.806791912415065e-05
-6.332737393677235e-05,9.580823825672269e-05,-1.1597057891776785e-06,-2.2379870642907917e-05,5.431256067822687e-05
-4.1458151827100664e-05,9.280619269702584e-05,-5.928117843723157e-06,-2.0749677787534893e-05,6.67675121803768e-05
-1.1032881957362406e-05,7.812150579411536e-05,-5.502723070094362e-06,-2.1318119252100587e-05,7.461612403858453e-05
1.7058955563697964e-05,6.018035128363408e-05,-4.132934463996207e-06,-2.0474433767958544e-05,7.439930050168186e-05
3.2911044399952516e-05,5.096181121189147e-05,-5.186848738958361e-06,-1.7229258446604945e-05,6.915147241670638e-05
3.0190420147846453e-05,5.305024023982696e-05,-7.6012911449652165e-06,-1.7211494196089916e-05,5.776988837169483e-05
1.0705696695367806e-05,5.537947072298266e-05,-7.238048510771478e-06,-2.0859532014583237e-05,4.793620610143989e-05
-1.676406645856332e-05,5.1036109653068706e-05,-1.7942985550689627e-06,-2.222361581516452e-05,4.84989614051301e-05
-3.5897646739613265e-05,4.386095315567218e-05,6.9950983743183315e-06,-2.4778053557383828e-05,5.6459768529748544e-05
-3.732468030648306e-05,3.919169830624014e-05,1.394077389704762e-05,-3.184601155226119e-05,6.19710044702515e-05
-2.8685273719020188e-05,4.025415546493605e-05,1.4868204743834212e-05,-4.575340062729083e-05,6.395280070137233e-05
-2.2485992303700186e-05,3.969125100411475e-05,1.4370862118084915e-05,-5.803394742542878e-05,6.114124698797241e-05
-2.449926978442818e-05,3.001729419338517e-05,1.4780941455683205e-05,-5.73094112041872e-05,5.4120646382216364e-05
-2.7627162126009353e-05,3.0174790026649134e-06,1.697030893410556e-05,-5.485299334395677e-05,4.721580262412317e-05
-2.7681970095727593e-05,-3.903237302438356e-05,1.9102000806014985e-05,-6.193728040670976e-05,4.111488669877872e-05
-2.8701904739136808e-05,-6.384676089510322e-05,1.648701618250925e-05,-6.768100138287991e-05,3.843837839667685e-05
-3.4822885936591774e-05,-5.4180240113055333e-05,8.697622433828656e-06,-6.0204652982065454e-05,4.5730652345810086e-05
-4.379655001685023e-05,-2.7741150915971957e-05,4.8575357141089626e-06,-4.0927981899585575e-05,6.260348163777962e-05
-4.5785593101754785e-05,-7.289084351214115e-06,1.167914888355881e-05,-2.2332931621349417e-05,8.141632133629173e-05
-3.142175410175696e-05,2.6457473722985014e-07,1.726012305880431e-05,-9.29074940358987e-06,9.483497706241906e-05
-1.164883087767521e-05,2.926113609191816e-07,1.682605579844676e-05,8.303244612761773e-06,0.00010745781037257984
8.289945867545612e-07,-5.921398496866459e-06,1.4344980627356563e-05,3.1978011975297704e-05,0.00011277324665570632
5.418739419837948e-06,-1.308421906287549e-05,1.6312837033183314e-05,5.240810423856601e-05,0.00010187290172325447
4.221255949232727e-06,-1.0198336894973181e-06,2.4213260985561647e-05,6.632229633396491e-05,8.206431084545329e-05
1.8113968280886183e-06,2.799779031192884e-05,3.082276452914812e-05,7.288667984539643e-05,6.656516779912636e-05
-1.8130972421204206e-06,4.6945679059717804e-05,2.839658009179402e-05,6.691851740470156e-05,6.332097109407187e-05
-6.082285835873336e-06,4.5774682803312317e-05,1.8235801690025255e-05,5.0161757826572284e-05,6.768563616788015e-05
-1.1658174116746522e-05,3.821429345407523e-05,1.0464051229064353e-05,3.119443135801703e-05,7.362395990639925e-05
-2.3277742002392188e-05,3.8024652894819155e-05,9.799144208955113e-06,1.5941350284265354e-05,7.605656719533727e-05
-4.304794856579974e-05,4.665235974243842e-05,1.0554140317253768e-05,3.4869831324613187e-06,6.95987037033774e-05
-5.8031724620377645e-05,5.9092424635309726e-05,7.037489922367968e-06,-7.815016033418942e-06,5.233095362200402e-05
-5.1752638682955876e-05,6.817398389102891e-05,7.258105370056001e-07,-1.4953444406273775e-05,2.7907764888368547e-05
-2.5798914066399448e-05,6.855116953374818e-05,-5.808071819046745e-06,-1.7831822333391756e-05,4.83838948639459e-06
1.6327409184668795e-06,6.379161641234532e-05,-1.0758135431387927e-05,-2.1845255105290562e-05,-7.127850039978512e-06
1.7413369278074242e-05,5.782798689324409e-05,-1.6754500393290073e-05,-3.0051871362957172e-05,-1.8176010598836e-06
1.9841385437757708e-05,4.458599869394675e-05,-2.461390249663964e-05,-4.064735912834294e-05,2.3341081032413058e-05
1.0921677130681928e-05,2.292417411808856e-05,-2.9257906135171652e-05,-5.273864735499956e-05,5.695292566088028e-05
-5.14235671289498e-06,4.4788444597543275e-07,-3.0330256777233444e-05,-6.545890937559307e-05,8.282432099804282e-05
-2.116349969583098e-05,-8.796869224170223e-06,-2.8863460102002136e-05,-8.075103687588125e-05,8.92409443622455e-05
-3.2762589398771524e-05,3.139889940939611e-06,-2.481023511791136e-05,-9.672144369687885e-05,8.125049498630688e-05
-4.338267171988264e-05,2.262203997815959e-05,-2.009778836509213e-05,-0.00010045345698017627,7.577974611194804e-05
-5.116353713674471e-05,4.007394454674795e-05,-1.3275930541567504e-05,-8.736808376852423e-05,7.529096910730004e-05
-4.9680020310916007e-05,5.294902075547725e-05,-8.807322956272401e-06,-6.321774708339944e-05,7.356624701060355e-05
-4.354710836196318e-05,5.9382247854955494e-05,-7.957599336805288e-06,-3.7064361094962806e-05,7.16482027200982e-05
-4.287528645363636e-05,5.842135215061717e-05,-7.854455361666624e-06,-1.827633059292566e-05,6.657973426626995e-05
-4.549524237518199e-05,5.285058432491496e-05,-8.834157597448211e-06,-6.774295798095409e-06,5.978090121061541e-05
-4.742876626551151e-05,4.854737926507369e-05,-1.11668205136084e-05,8.960652849054895e-06,5.583817983279005e-05
-5.250733011052944e-05,4.3613854359136894e-05,-1.5041113329061773e-05,3.392799771972932e-05,5.570418943534605e-05
-5.757611143053509e-05,3.7272300687618554e-05,-1.8378981621935964e-05,5.6930504797492176e-05,5.777822298114188e-05
-5.5019794672261924e-05,2.8360380383674055e-05,-1.628477366466541e-05,6.620992644457147e-05,6.172971916384995e-05
-4.5498309191316366e-05,1.5639372577425092e-05,-5.715327915822854e-06,6.141930498415604e-05,6.294128252193332e-05
-3.5493842005962506e-05,5.984366907796357e-06,9.312614565715194e-06,4.884741792920977e-05,6.159760232549161e-05
-3.116606967523694e-05,8.537190296920016e-06,2.298163963132538e-05,2.8393324100761674e-05,6.0818281781394035e-05
-3.106546137132682e-05,2.4617249437142164e-05,3.0795621569268405e-05,5.499867370417633e-07,5.8752695622388273e-05
-3.1637966458220035e-05,4.2892272176686674e-05,3.52357019437477e-05,-2.434740963508375e-05,5.5839758715592325e-05
-3.171198477502912e-05,4.747978528030217e-05,3.7712616176577285e-05,-3.7615845940308645e-05,5.491983029060066e-05
-3.195397584931925e-05,3.3037722459994256e-05,3.920848394045606e-05,-4.082453961018473e-05,5.5508957302663475e-05
-3.0365063139470294e-05,1.4379224012373015e-05,3.8199017581064254e-05,-3.908867438440211e-05,5.588217391050421e-05
-2.818848406604957e-05,7.733538041065913e-06,3.2933225156739354e-05,-3.49917754647322e-05,5.7591594668338075e-05
-2.6173658625339158e-05,9.699466318124905e-06,2.3946899091242813e-05,-2.7773505280492827e-05,6.367867172230035e-05
-2.161655356758274e-05,1.1539898878254462e-05,1.5732070096419193e-05,-1.6078551198006608e-05,7.540225487900898e-05
-1.7975473383557983e-05,1.6815420167404227e-05,1.293730838369811e-05,-2.4782840668535755e-08,8.467900624964386e-05
-1.827627966122236e-05,2.6004581741290167e-05,1.376098589389585e-05,1.5215679013635963e-05,8.794588939053938e-05
-2.1319636289263144e-05,3.095789725193754e-05,1.723647437756881e-05,2.1239204215817153e-05,8.361668733414263e-05
-2.9995067961863242e-05,3.310871761641465e-05,2.1013678633607924e-05,1.6531865185243078e-05,6.805312295909971e-05
-3.850512075587176e-05,3.770875628106296e-05,2.282931200170424e-05,7.648658538528252e-06,4.2032650526380166e-05
-3.984400973422453e-05,3.7022982724010944e-05,1.8227718101115897e-05,-2.651921022334136e-06,1.8643666408024728e-05
-3.920200833817944e-05,3.201526851626113e-05,6.576420219062129e-06,-1.8950808225781657e-05,1.1957734386669472e-05
-4.381459439173341e-05,3.353076317580417e-05,-8.318520485772751e-06,-3.6203891795594245e-05,1.9886028894688934e-05
-5.479416358866729e-05,3.6893987271469086e-05,-1.9292714569019154e-05,-4.114681723876856e-05,2.9762863050564192e-05
-6.545131327584386e-05,3.655503678601235e-05,-2.124652746715583e-05,-3.197951446054503e-05,3.6899429687764496e-05
-7.295187242561951e-05,3.2365325751015916e-05,-2.0308876628405415e-05,-1.7810825738706626e-05,3.981617555837147e-05
-7.638198439963162e-05,2.9757391530438326e-05,-2.152997512894217e-05,-6.249797479540575e-06,4.212538988213055e-05
-8.287748642032966e-05,2.8344773454591632e-05,-2.074961412290577e-05,2.979035343741998e-06,4.519671347225085e-05
-8.788363629719242e-05,2.8190554075990804e-05,-1.3352771020436194e-05,1.7053025658242404e-05,4.967265704181045e-05
-8.12113648862578e-05,2.902332016674336e-05,-1.636344677535817e-06,3.064054544665851e-05,5.411855090642348e-05
-5.746128226746805e-05,2.3884798793005757e-05,7.494502824556548e-06,3.418119013076648e-05,5.6671931815799326e-05
-2.205354940088e-05,1.5574352801195346e-05,1.1775911843869835e-05,2.7563732146518305e-05,5.519026308320463e-05
1.9742083168239333e-05,1.305409568885807e-05,1.503294515714515e-05,1.4546142665494699e-05,5.330533531378023e-05
6.619918713113293e-05,1.7384390957886353e-05,1.711809636617545e-05,3.1056154625730414e-07,5.688297824235633e-05
0.00010476737224962562,2.238852539448999e-05,1.7121006749221124e-05,-1.0244968507322483e-05,6.289385055424646e-05
0.00012062188034178689,2.5141793230432086e-05,1.7121688870247453e-05,-1.461369356547948e-05,6.675706390524283e-05
0.00010424849460832775,2.9054872356937267e-05,1.6650756151648238e-05,-1.7849295545602217e-05,6.847749318694696e-05
5.9137604694115e-05,3.504633059492335e-05,1.5083860489539802e-05,-3.1117167964112014e-05,6.925791967660189e-05
-6.872677431601915e-07,3.940257374779321e-05,1.3108805433148518e-05,-5.862794569111429e-05,6.757687515346333e-05
-4.895907113677822e-05,3.590942287701182e-05,1.2020020221825689e-05,-8.560818969272077e-05,6.431936344597489e-05
-6.76031195325777e-05,2.5412933609914035e-05,1.220114245370496e-05,-9.190778655465692e-05,5.905148645979352e-05
-5.8963621995644644e-05,2.1118714357726276e-05,1.3287951333040837e-05,-7.325713522732258e-05,5.3089053835719824e-05
-3.427308183745481e-05,2.151719672838226e-05,1.1936806004086975e-05,-4.350316885393113e-05,4.222477582516149e-05
-4.839803750655847e-06,1.9856850485666655e-05,9.63294951361604e-06,-1.941083974088542e-05,2.5548177291057073e-05
6.416579253709642e-06,2.0816809410462156e-05,1.0817839211085811e-05,5.593997229880188e-07,1.713258279778529e-05
-1.4092696801526472e-05,2.1139234377187677e-05,1.0609942364681046e-05,2.6635416361386888e-05,3.372806895640679e-05
-4.996698771719821e-05,1.678918306424748e-05,9.610534107196145e-06,4.887831164523959e-05,6.181003845995292e-05
-8.346701361006126e-05,1.0418267265777104e-05,1.443311612092657e-05,6.190091517055407e-05,7.178376836236566e-05
-0.00010379679588368163,4.454730060388101e-06,2.1762387405033223e-05,6.600956112379208e-05,5.737915125791915e-05
-0.00010600087989587337,1.2135504903199035e-06,2.2575042748940177e-05,5.992553633404896e-05,3.63866965926718e-05
-8.351670112460852e-05,1.4832852457402623e-06,1.67229136422975e-05,4.677642209571786e-05,2.6803711079992354e-05
-4.753706161864102e-05,1.0861149348784238e-06,1.386951407766901e-05,3.115395884378813e-05,3.816707612713799e-05
-2.3931957912282087e-05,-2.7647811862152594e-07,1.4388461750058923e-05,2.1298361389199272e-05,6.051999662304297e-05
-1.1546623682079371e-05,-1.059733449437772e-06,1.3905779269407503e-05,1.4442834981309716e-05,8.080449333647266e-05
-6.44529018245521e-06,-8.708547625246865e-07,1.1875046766363084e-05,6.011286586726783e-06,9.249248978449032e-05
-4.908238679490751e-06,8.40802658785833e-06,8.541331226297189e-06,-2.8776025828847196e-06,9.113099804380909e-05
-5.87522981732036e-06,1.9847970179398544e-05,6.430525900213979e-06,-1.2486233572417405e-05,8.397723286179826e-05
-6.032845703884959e-06,2.429609958198853e-05,6.014058726577787e-06,-2.569436765043065e-05,8.753170550335199e-05
-4.964255822414998e-06,2.235683859908022e-05,5.073788997833617e-06,-3.850677967420779e-05,0.0001120499218814075
-2.6743180114863208e-06,2.3415299438056536e-05,2.816535925376229e-06,-4.638739846996032e-05,0.00014637302956543863
4.638462542061461e-06,2.6014551622211002e-05,3.405867801120621e-06,-4.872769204666838e-05,0.00016327884804923087
1.379950663249474e-05,2.5868155717034824e-05,5.53392737856484e-06,-4.431776687852107e-05,0.00014594696403946728
1.4498795280815102e-05,2.545267852838151e-05,6.01391684540431e-06,-3.507764631649479e-05,0.00010872433631448075
4.886664441983157e-07,2.592622331576422e-05,4.921000709146028e-06,-3.2591677154414356e-05,7.39279348636046e-05
-2.0234556359355338e-05,2.8266826120670885e-05,2.7775151920650387e-06,-4.754696419695392e-05,5.0623777497094125e-05
-3.6176585126668215e-05,3.0522336601279676e-05,-2.510435706426506e-06,-7.128743891371414e-05,4.120799349038862e-05
-4.10661959904246e-05,3.457453931332566e-05,-1.0134686817764305e-05,-8.395317854592577e-05,4.2705974919954315e-05
-3.838494376395829e-05,4.2783081880770624e-05,-1.4086655028222594e-05,-7.621385884704068e-05,4.495144457905553e-05
-3.3989996154559776e-05,5.3777872381033376e-05,-1.4991296666266862e-05,-5.601519296760671e-05,4.671556598623283e-05
-3.523849954945035e-05,6.0827787820016965e-05,-1.4665143680758774e-05,-3.3610300306463614e-05,5.0761314923875034e-05
-3.664630639832467e-05,6.34559546597302e-05,-1.1404647011659108e-05,-1.26564927995787e-05,5.4717536841053516e-05
-3.680605368572287e-05,6.561398913618177e-05,-7.067144451866625e-06,9.242677151632961e-06,5.660878377966583e-05
-3.916659625247121e-05,7.01094904798083e-05,-4.36245773016708e-06,3.1907045922707766e-05,6.142830534372479e-05
-4.186926889815368e-05,7.363225449807942e-05,-3.11038229483529e-06,4.6222994569689035e-05,6.673302414128557e-05
-4.318844366935082e-05,7.548058783868328e-05,4.93116885991185e-07,4.9335925723426044e-05,6.543478957610205e-05
-5.114691884955391e-05,6.727967411279678e-05,3.6610774714063155e-06,4.54851433460135e-05,6.402872531907633e-05
-6.644062523264438e-05,5.25944669789169e-05,4.682463895733235e-06,3.720108725246973e-05,6.184090307215229e-05
-7.552683382527903e-05,4.2493284126976505e-05,7.023149464657763e-06,3.6489036574494094e-05,5.1755177992163226e-05
-7.287960761459544e-05,3.427718547754921e-05,1.1593193448788952e-05,4.559869194054045e-05,3.85716266464442e-05
-6.171805580379441e-05,2.4328855943167582e-05,1.4925495634088293e-05,4.846731462748721e-05,2.7817335649160668e-05
-5.075491571915336e-05,1.2964816050953232e-05,1.3557571037381422e-05,3.7791422073496506e-05,2.2616959540755488e-05
-5.0652048230404034e-05,4.609114967024652e-06,9.30385613173712e-06,1.752010575728491e-05,2.4008848413359374e-05
-5.048215825809166e-05,-4.454719601199031e-06,6.299993401626125e-06,-3.0716144010511925e-06,3.258102515246719e-05
-3.1004659831523895e-05,-1.4998372535046656e-05,6.434087026718771e-06,-1.8906614059233107e-05,4.896999234915711e-05
-2.6367767986812396e-06,-2.3208307538880035e-05,3.852099780488061e-06,-3.23607018799521e-05,6.606814713450149e-05
7.319964879570762e-06,-2.6078691007569432e-05,2.0724692149087787e-06,-4.189701940049417e-05,7.176130748121068e-05
8.474790433865564e-07,-2.0201825464027934e-05,1.3167341421649326e-06,-5.1134946261299774e-05,5.982348375255242e-05
2.9057466690574074e-06,-6.66845608066069e-06,-7.663370524824131e-07,-6.55624462524429e-05,3.9166636270238087e-05
1.0581022252154071e-05,1.076070657290984e-05,-3.2641160032653715e-06,-8.409361180383712e-05,2.4676130124134943e-05
3.2042455586633878e-06,2.9646180337294936e-05,-3.3498899938422255e-06,-9.816695819608867e-05,2.5789206119952723e-05
-1.6684649381204508e-05,4.343198816059157e-05,-3.124751174254925e-06,-0.00010070718417409807,3.965384530602023e-05
-2.9279504815349355e-05,4.61045783595182e-05,-5.406497621152084e-06,-9.448868513572961e-05,5.655320273945108e-05
-3.0164459531079046e-05,4.4636515667662024e-05,-8.753151632845402e-06,-8.704070933163166e-05,7.128189463401213e-05
-2.540143032092601e-05,4.74193730042316e-05,-1.0664558431017213e-05,-8.125184831442311e-05,7.916030153864995e-05
-2.144212521670852e-05,5.337830589269288e-05,-1.0646656846802216e-05,-7.135107443900779e-05,7.77352397562936e-05
-2.3113423594622873e-05,5.8502137108007446e-05,-9.261642844649032e-06,-5.191910167923197e-05,6.890489748911932e-05
-2.9190900022513233e-05,6.015793769620359e-05,-6.311664947133977e-06,-2.0796884200535715e-05,5.769071140093729e-05
-3.046185156563297e-05,5.322408469510265e-05,-6.699126970488578e-06,1.3990635125082918e-05,5.345262252376415e-05
-2.7451289497548714e-05,4.087335764779709e-05,-5.131092166266171e-06,3.753786950255744e-05,5.534555748454295e-05
-2.9187049221945927e-05,3.004343670909293e-05,2.909481054302887e-06,4.365938002592884e-05,5.833137402078137e-05
-3.32801828335505e-05,2.1317646314855665e-05,9.047508683579508e-06,3.770366674871184e-05,5.8475892728893086e-05
-3.1802672310732305e-05,1.2627172509382945e-05,9.362076525576413e-06,3.597485920181498e-05,5.372061423258856e-05
-2.686075822566636e-05,9.902533747663256e-06,1.4410466064873617e-05,4.2642564949346706e-05,5.141845758771524e-05
-2.400145967840217e-05,1.3531515833165031e-05,2.460016003169585e-05,4.6550067054340616e-05,5.378468267736025e-05
-2.0241042875568382e-05,1.6790994777693413e-05,3.2614709198242053e-05,3.561724952305667e-05,5.696104562957771e-05
-1.1179348803125322e-05,1.964879993465729e-05,3.365889278938994e-05,8.14787836134201e-06,5.990038698655553e-05
6.603821020689793e-06,2.1534569896175526e-05,2.9232867746031843e-05,-1.4928771634004079e-05,6.21606595814228e-05
2.8393556931405328e-05,2.546900577726774e-05,2.5004055714816786e-05,-2.172468157368712e-05,6.304794078459963e-05
4.4028925913153216e-05,3.271454625064507e-05,2.0968203898519278e-05,-1.6228830645559356e-05,6.567999662365764e-05
4.528077261056751e-05,4.6832195948809385e-05,1.669431003392674e-05,-5.114389750815462e-06,6.609584670513868e-05
3.45796397596132e-05,5.741607674281113e-05,1.2746128959406633e-05,1.3965662219561636e-05,6.435248360503465e-05
1.4923772141628433e-05,5.8017452829517424e-05,5.75265084989951e-06,4.1148374293698e-05,6.223418313311413e-05
-1.1683003322104923e-05,5.810350558022037e-05,-2.7317205422150437e-06,6.761248369002715e-05,5.585335020441562e-05
-3.803855724981986e-05,6.408135959645733e-05,-3.4806566873157863e-06,8.745441300561652e-05,4.5136963308323175e-05
-5.439291999209672e-05,6.915616540936753e-05,4.72657848149538e-06,9.87035091384314e-05,3.747118898900226e-05
-5.5090044043026865e-05,6.224630487849936e-05,1.5297891877708025e-05,9.646977559896186e-05,4.231407729093917e-05
-4.942225132253952e-05,4.2037754610646516e-05,2.5332277800771408e-05,7.944545359350741e-05,5.9787362260976806e-05
-4.5004053390584886e-05,1.879995033959858e-05,3.265357008785941e-05,5.3899286285741255e-05,7.953211024869233e-05
-4.087994966539554e-05,4.798502232006285e-06,3.186473622918129e-05,2.5797035050345585e-05,8.374232129426673e-05
-3.4818131098290905e-05,-3.579652059215732e-07,2.304591180291027e-05,-3.5506296569565166e-08,6.770083564333618e-05
-3.0466046155197546e-05,-3.5550583561416715e-06,1.4824843674432486e-05,-1.53710316226352e-05,3.708997246576473e-05
-3.151866258122027e-05,-9.92279910860816e-06,1.4905886928318068e-05,-1.0014750841946807e-05,1.3709787936022622e-06
-3.3823038393165916e-05,-1.4350602214108221e-05,2.047351335932035e-05,1.7485652278992347e-05,-2.3200929717859253e-05
-3.2409883715445176e-05,-9.128355486609507e-06,2.4237386242020875e-05,5.238924131845124e-05,-2.291963573952671e-05
-2.774811946437694e-05,5.974822670395952e-06,2.1072930394439027e-05,6.435800605686381e-05,1.7570395129951066e-06
-2.348044654354453e-05,2.0325704099377617e-05,1.0024305083788931e-05,2.7749110813601874e-05,3.4102904464816675e-05
-2.5129993446171284e-05,2.6856816475628875e-05,-2.9652342163899448e-06,-3.8845781091367826e-05,4.986860221833922e-05
-2.553704325691797e-05,2.810315345413983e-05,-1.3670965017809067e-05,-8.23744703666307e-05,4.546684067463502e-05
-1.912207153509371e-05,2.5981576982303523e-05,-2.3702163161942735e-05,-8.553391671739519e-05,3.476619167486206e-05
-9.892260095512029e-06,1.7653397662797943e-05,-2.8504824513220228e-05,-7.765694317640737e-05,2.4874980226741172e-05
-3.5699451927939663e-06,1.0970060429826844e-05,-2.3898453946458176e-05,-8.379768405575305e-05,1.428347695764387e-05
-9.359886462334543e-06,1.8285472833667882e-05,-1.3909731933381408e-05,-9.285365376854315e-05,8.35916944197379e-06
-2.0784558728337288e-05,3.476900019450113e-05,-7.718292181380093e-06,-9.457384294364601e-05,2.0507177396211773e-05
-3.095237480010837e-05,4.2529685742920265e-05,-4.5901210796728265e-06,-8.99289661902003e-05,4.500256181927398e-05
-3.6658519093180075e-05,3.996868690592237e-05,2.8054141694155987e-06,-8.06230164016597e-05,6.662739906460047e-05
-3.598770490498282e-05,4.082917803316377e-05,1.2228870218677912e-05,-7.103136158548295e-05,8.043212437769398e-05
-4.0303482819581404e-05,4.885001908405684e-05,2.115031202265527e-05,-6.276037311181426e-05,8.650689414935187e-05
-5.7378329074708745e-05,5.828212306369096e-05,3.0212348065106198e-05,-4.0791521314531565e-05,8.642519969725981e-05
-7.85119118518196e-05,6.060277155484073e-05,3.8618720282102004e-05,-2.718974485560466e-07,8.358264312846586e-05
-8.730619447305799e-05,5.39814900548663e-05,3.837050826405175e-05,3.362109782756306e-05,7.946840923978016e-05
-8.26477917144075e-05,5.237344521447085e-05,2.9583394280052744e-05,4.0058730519376695e-05,7.767305942252278e-05
-7.184892456280068e-05,6.022824891260825e-05,1.9960294594056904e-05,2.4832261260598898e-05,8.716814772924408e-05
-6.310507887974381e-05,6.791369378333911e-05,1.3925328858022112e-05,5.761909505963558e-06,0.00011066436854889616
-5.822524326504208e-05,7.168201409513131e-05,1.1304925465083215e-05,-6.8976287366240285e-06,0.0001384257193421945
-4.74059816042427e-05,7.200049003586173e-05,8.970206181402318e-06,-1.1251196156081278e-05,0.00015854995581321418
-2.5029747121152468e-05,6.636526813963428e-05,4.326660928199999e-06,-1.4133698641671799e-05,0.00016569039144087583
7.867706131037266e-07,4.9938895244849846e-05,-2.3320189939113334e-06,-1.877612703538034e-05,0.00016644342395011336
2.199192385887727e-05,2.9868800993426703e-05,-8.014553714019712e-06,-2.3076152501744218e-05,0.00016628582670819014
3.2961419492494315e-05,1.6216663425439037e-05,-1.2088136827514973e-05,-2.6511588657740504e-05,0.0001610215986147523
2.8797940103686415e-05,1.192920080939075e-05,-1.3954359928902704e-05,-3.0281837098300457e-05,0.00014730883412994444
1.7098425814765505e-05,1.564314698043745e-05,-1.4838775314274244e-05,-3.23179156112019e-05,0.00012885914475191385
2.135622480636812e-06,2.1316873244359158e-05,-1.4189829016686417e-05,-3.1562147341901436e-05,0.00010974687029374763
-7.371072570094839e-06,2.413156471448019e-05,-1.593494562257547e-05,-2.8325790481176227e-05,9.512308315606788e-05
-5.27409792994149e-06,2.50488465098897e-05,-2.0911922547384165e-05,-3.047513382625766e-05,8.762950892560184e-05
5.782208518212428e-06,2.341603976674378e-05,-2.2603748220717534e-05,-4.496253313845955e-05,8.542853902326897e-05
1.874398185464088e-05,1.8928285498986952e-05,-1.8660892237676308e-05,-6.274730549193919e-05,8.574619278078899e-05
1.9545410395949148e-05,1.6963031157501973e-05,-1.3807338291371707e-05,-6.467167258961126e-05,8.548832556698471e-05
3.0319813504320337e-06,1.5438614354934543e-05,-9.816836609388702e-06,-5.2126335503999144e-05,8.197044371627271e-05
-2.0414634491316974e-05,1.1576168617466465e-05,-6.708996352244867e-06,-3.418285632506013e-05,7.67807214288041e-05
-3.299881427665241e-05,9.829707778408192e-06,-6.142157417343697e-06,-1.7042975741787814e-05,7.474976882804185e-05
-3.2144405849976465e-05,1.1397338312235661e-05,-7.1839531301520765e-06,-1.4606780496251304e-06,6.88781074131839e-05
-2.6586931198835373e-05,1.5624418665538542e-05,-9.201028660754673e-06,1.3222834240878001e-05,6.16974793956615e-05
-2.5072235075640492e-05,2.001209941226989e-05,-6.98686426403583e-06,1.8348760931985453e-05,5.8821391576202586e-05
-3.2218809792539105e-05,2.365969521633815e-05,-1.8853166920962394e-06,1.6355612387997098e-05,6.0215235862415284e-05
-3.993158316006884e-05,2.1771929823444225e-05,5.90851527704217e-07,1.0565722732280847e-05,6.36938275420107e-05
-4.468929910217412e-05,1.4615459804190323e-05,3.0764627467760874e-07,5.6724061323620845e-06,6.420474528567865e-05
-4.8234982386929914e-05,7.245331744343275e-06,1.6516497680640896e-06,3.97302665078314e-06,5.9518246416701004e-05
-5.402163878898136e-05,2.7502660486788955e-06,6.98520216246834e-06,4.088300102011999e-06,5.083730866317637e-05
-6.0373171436367556e-05,-7.608473993059306e-07,1.2432482435542624e-05,3.52187726093689e-06,4.3624761019600555e-05
-6.313994526863098e-05,-4.9649224820313975e-06,1.5680752767366357e-05,1.3176081665733363e-05,4.023676592623815e-05
-6.457915878854692e-05,-8.0078789324034e-06,1.551958303025458e-05,4.902806904283352e-05,4.060902210767381e-05
-6.55983603792265e-05,-7.74636100686621e-06,1.4539146832248662e-05,9.937146387528628e-05,4.155673013883643e-05
-6.405756721505895e-05,-3.9334131543000694e-06,1.659241388551891e-05,0.00013021704216953367,3.761885454878211e-05
-5.908211096539162e-05,1.4801789802731946e-06,2.0001447410322726e-05,0.00013318314449861646,2.9384176741586998e-05
-5.4025178542360663e-05,7.966734301589895e-06,2.0181860236334614e-05,0.0001273265661438927,2.210330421803519e-05
-5.056718873674981e-05,1.7385740648023784e-05,2.0610772480722517e-05,0.00012378848623484373,2.232136102975346e-05
-4.44582910859026e-05,3.4337084798607975e-05,2.4502955056959763e-05,0.00011689391976688057,3.5375531297177076e-05
-3.574631045921706e-05,5.480027903104201e-05,2.8003159968648106e-05,9.898080315906554e-05,5.005025377613492e-05
-2.9076243663439527e-05,6.839636625954881e-05,2.6215870093437843e-05,7.0137444708962e-05,5.0150487368227914e-05
-2.4239931008196436e-05,7.213572098407894e-05,2.1104349798406474e-05,3.239467696403153e-05,3.643890522653237e-05
-1.776937824615743e-05,6.745689461240545e-05,1.7992411812883802e-05,-1.562666966492543e-06,1.8839456970454194e-05
-1.0646897862898186e-05,5.5642642109887674e-05,1.4187459782988299e-05,-2.7978643629467115e-05,8.168986823875457e-06
-4.450052529136883e-06,4.273051308700815e-05,9.384948498336598e-06,-5.187849092180841e-05,1.921298917295644e-06
5.511495146492962e-06,3.709833254106343e-05,5.470400992635405e-06,-7.600974640809e-05,-8.626463454675104e-07
1.2416257050062995e-05,3.4094246075255796e-05,2.689021357582533e-06,-0.0001069970749085769,6.727631784997357e-07
1.2167627573944628e-05,2.6095764042111114e-05,-1.826970560614427e-06,-0.00012585596414282918,-3.037847136511118e-06
1.0574317457212601e-05,2.195414162997622e-05,-1.7264301277464256e-06,-0.00011186440679011866,-7.499478215322597e-06
5.77096443521441e-06,2.5942672436940484e-05,2.6766190330818063e-06,-8.482157136313617e-05,-1.3215038052294403e-05
-4.4155131035950035e-06,3.5268629289930686e-05,3.4305796816624934e-06,-7.3290488217026e-05,-1.9697386960615404e-05
-1.3766853044216987e-05,3.935251515940763e-05,2.124887259924435e-06,-8.787251863395795e-05,-2.8846352506661788e-05
-2.184822915296536e-05,3.6878016544505954e-05,-1.8601191413836204e-06,-0.00011745328811230138,-3.2976891816360876e-05
-3.09609567921143e-05,3.16911464324221e-05,-6.6156944740214385e-06,-0.0001511571608716622,-1.6495687304995954e-05
-4.699848432210274e-05,2.5308348995167762e-05,-8.149051609507296e-06,-0.00017539366672281176,1.5442137737409212e-05
-7.565124542452395e-05,1.4241438293538522e-05,-3.4767333545460133e-06,-0.0001831395347835496,4.216336310491897e-05
-0.00010674655641196296,-7.612410968249606e-07,-2.046146647671776e-07,-0.00018136296421289444,5.223409607424401e-05
-0.0001184827706310898,-1.254747712664539e-05,-2.5253020794480108e-06,-0.00017911501345224679,5.585703911492601e-05
-9.998807217925787e-05,-1.551642344566062e-05,-6.210164883668767e-06,-0.00016993847384583205,6.262358510866761e-05
-6.141416815808043e-05,-8.495044312439859e-06,-8.624088877695613e-06,-0.00014214625116437674,7.726207695668563e-05
-2.1673729861504398e-05,5.0935304898303e-06,-1.2671477634285111e-05,-0.00010398778977105394,9.912869427353144e-05
2.7313044483889826e-06,2.3586786483065225e-05,-1.747337773849722e-05,-7.257759716594592e-05,0.00012024160969303921
6.14049713476561e-06,4.035299571114592e-05,-2.200381459260825e-05,-5.7537217799108475e-05,0.00013648223830386996
-9.287665307056159e-06,4.813390478375368e-05,-2.662313636392355e-05,-5.583347592619248e-05,0.0001484259555581957
-4.073969103046693e-05,4.4504184188554063e-05,-2.5717012249515392e-05,-6.222174124559388e-05,0.00015197944594547153
-7.622539123985916e-05,3.443239620537497e-05,-1.7568048860994168e-05,-6.360786937875673e-05,0.00014971444034017622
-9.49530367506668e-05,2.285492155351676e-05,-6.680758360744221e-06,-4.491358413361013e-05,0.00014706721412949264
-9.100680472329259e-05,1.8439988707541488e-05,1.753610604282585e-06,-3.8679218050674535e-06,0.00014214037219062448
-6.979788304306567e-05,2.245863106509205e-05,6.813898380642058e-06,3.8858503103256226e-05,0.00013397533621173352
-3.972491322201677e-05,2.7582542315940373e-05,1.0909773664025124e-05,6.47666456643492e-05,0.00013278888945933431
-8.330902346642688e-06,2.623160253278911e-05,1.2467769920476712e-05,7.228789036162198e-05,0.00013524960377253592
1.6870528270374052e-05,2.4374641725444235e-05,5.159135525900638e-06,7.438374450430274e-05,0.00012957165017724037
2.8111398933106102e-05,3.014621506736148e-05,-1.5684747722843895e-06,8.106385212158784e-05,0.00012054218677803874
3.065964483539574e-05,3.826438478427008e-05,1.032831733027706e-06,8.53033852763474e-05,0.00010094933531945571
2.8934831789229065e-05,4.0825096220942214e-05,8.417006029048935e-06,8.226300997193903e-05,6.457824201788753e-05
1.902244912344031e-05,3.5740184102905914e-05,1.3678883078682702e-05,7.033939618850127e-05,3.650507642305456e-05
9.37652566790348e-06,2.8712485800497234e-05,1.8225517123937607e-05,5.9839901950908825e-05,3.107069278485142e-05
1.6803652442831662e-06,2.8018293960485607e-05,1.900070310512092e-05,5.594616231974214e-05,4.092488961759955e-05
-9.698666872282047e-06,2.9748258384643123e-05,1.6310330465785228e-05,4.549062578007579e-05,4.969912697561085e-05
-2.1766471036244184e-05,2.774239874270279e-05,1.3062199286650866e-05,2.7582549591897987e-05,4.885628732154146e-05
-2.9802071367157623e-05,2.1845688024768606e-05,8.900062312022783e-06,1.5123633602343034e-05,3.5879158531315625e-05
-3.4113174478989094e-05,1.2320993846515194e-05,5.988180419080891e-06,1.563271325721871e-05,1.4569660379493143e-05
-3.9325965190073475e-05,9.518876140646171e-07,5.4437987273558974e-06,2.581352600827813e-05,-2.9684499622817384e-06
-4.930511204292998e-05,-5.870661880180705e-06,8.405216249229852e-06,4.744467878481373e-05,-6.232120085769566e-06
-6.151880370453e-05,-3.4323772979405476e-06,1.1966668353124987e-05,7.764805923216045e-05,2.565639533713693e-06
-6.818190740887076e-05,6.165687864267966e-06,1.3726899851462804e-05,0.00010140521771972999,1.0208053936366923e-05
-6.21022772975266e-05,2.194705666624941e-05,9.503118235443253e-06,0.00010806338104885072,1.2124917702749372e-05
-5.0372120313113555e-05,4.622175401891582e-05,1.4887780253047822e-06,0.00010695586388465017,1.4388202544068918e-05
-4.4955821067560464e-05,7.483411900466308e-05,-2.255356548630516e-06,0.00010872558050323278,2.167792627005838e-05
-4.193647691863589e-05,9.224700625054538e-05,1.4359667375174467e-06,0.00010768359788926318,2.912197305704467e-05
-2.6667752536013722e-05,8.68785718921572e-05,6.57855480312719e-06,9.321243851445615e-05,2.8906990337418392e-05
1.6036881334002828e-06,6.596603634534404e-05,1.0191034562012646e-05,6.490371015388519e-05,1.8618336980580352e-05
2.2592996174353175e-05,5.0671787903411314e-05,1.2851997780671809e-05,2.7777494324254803e-05,6.699431196466321e-06
2.8437261789804325e-05,4.544086186797358e-05,1.5154510037973523e-05,-1.4097173334448598e-05,-1.5037314824439818e-06
2.4164202841348015e-05,3.7100937333889306e-05,1.7230424418812618e-05,-5.204394255997613e-05,-4.4812245505454484e-06
1.5383049685624428e-05,2.845422386599239e-05,2.2352105588652194e-05,-7.876178278820589e-05,4.505192237047595e-07
5.7372881201445125e-06,2.614311597426422e-05,2.758577284112107e-05,-9.78477910393849e-05,1.5385765436803922e-05
-3.666157908810419e-06,1.9359629732207395e-05,2.49836975854123e-05,-0.00011251883552176878,2.8278356694499962e-05
-2.956820708277519e-06,1.0234095498162787e-05,1.7493832274340093e-05,-0.0001021695788949728,2.736298665695358e-05
4.041755801154068e-06,1.373473151033977e-05,1.2866466931882314e-05,-6.0284673963906243e-05,2.2493046344607137e-05
3.344050810483168e-06,2.377774399064947e-05,1.2539463568828069e-05,-1.540609446237795e-05,2.5018909582286142e-05
-6.091271643526852e-06,2.5296181775047444e-05,1.2606738891918212e-05,7.459539574483642e-06,3.210476279491559e-05
-2.213702828157693e-05,2.356181721552275e-05,1.4795927199884318e-05,1.5372306734207086e-05,4.329861985752359e-05
-3.491547249723226e-05,2.2896754671819508e-05,1.6772697563283145e-05,2.0555708033498377e-05,5.4470121540362015e-05
-3.781792474910617e-05,2.6616989998728968e-05,1.79946164280409e-05,3.58148681698367e-05,6.224717071745545e-05
-3.525249849190004e-05,3.337686212034896e-05,2.0271962057449855e-05,6.275231135077775e-05,6.828489858889952e-05
-3.447542621870525e-05,3.341406045365147e-05,1.6751639122958295e-05,8.220437302952632e-05,7.414812716888264e-05
-3.607399412430823e-05,2.7674503144226037e-05,4.60364026366733e-06,8.431760943494737e-05,7.916045433375984e-05
-4.029094270663336e-05,2.4219329134211875e-05,-8.777062248555012e-06,7.275998359546065e-05,8.366699330508709e-05
-4.1614064684836194e-05,2.5246519726351835e-05,-1.5900361177045852e-05,5.325954407453537e-05,8.29387572593987e-05
-3.7728914321633056e-05,2.9378656108747236e-05,-1.4208250831870828e-05,2.4787810616544448e-05,7.402990013360977e-05
-3.233027018723078e-05,3.4688477171584964e-05,-7.359054961852962e-06,-8.088709364528768e-06,6.190168642206118e-05
-3.2072079193312675e-05,3.4292075724806637e-05,5.785981898043246e-07,-4.195436849840917e-05,4.558175351121463e-05
-3.698270666063763e-05,2.5156434276141226e-05,6.063106866349699e-06,-8.03839138825424e-05,2.6303316190023907e-05
-3.9386995922541246e-05,1.688240809016861e-05,7.859313882363494e-06,-0.00011985664605163038,1.3462837159750052e-05
-3.704877963173203e-05,2.0330371626187116e-05,9.424986274098046e-06,-0.00014176388503983617,9.528138434689026e-06
-3.008572275575716e-05,2.839613807736896e-05,1.2154817341070157e-05,-0.00013705009769182652,5.759412488259841e-06
-1.82094572664937e-05,3.023545468749944e-05,1.57996346388245e-05,-0.00011811903823399916,-2.9456243737513432e-06
-3.353809006512165e-06,2.8480599212343805e-05,1.88949143193895e-05,-9.552735718898475e-05,-1.5999165043467656e-05
6.112247319833841e-06,3.078346708207391e-05,2.0079185560462065e-05,-7.304441533051431e-05,-2.757998663582839e-05
6.435336672439007e-06,3.389218545635231e-05,1.6916632375796326e-05,-6.059790757717565e-05,-3.264959741500206e-05
9.087269745577942e-07,3.0693798180436715e-05,1.156201778940158e-05,-6.0237525758566335e-05,-3.218989513698034e-05
-4.323818757256959e-06,2.386151572864037e-05,8.21755838842364e-06,-6.037503044353798e-05,-2.90876687358832e-05
-7.965291842992883e-06,2.256152765767183e-05,5.15465808348381e-06,-6.108343222877011e-05,-1.5092635294422507e-05
-1.2188572327431757e-05,2.336410034331493e-05,2.7467142444947967e-06,-6.0790309362346306e-05,6.7128753471479286e-06
-1.6398527804994956e-05,2.3283040718524717e-05,2.9234111025289167e-06,-4.806225479114801e-05,3.0496374165522866e-05
-1.6771737136878073e-05,2.9483824619092047e-05,7.5255866249790415e-06,-2.245295218017418e-05,5.422684989753179e-05
-1.704631904431153e-05,3.146264498354867e-05,1.3185885109123774e-05,2.889650886572781e-06,7.552526221843436e-05
-2.0225634216330945e-05,1.863106808741577e-05,1.1819775863841642e-05,1.563750993227586e-05,0.00010002192721003667
-2.5396353521500714e-05,1.961867610589252e-06,6.09671860729577e-06,1.7684962585917674e-05,0.00012849063205067068
-2.996716466441285e-05,-3.6555059068632545e-06,3.0483847694995347e-06,1.7315640434389934e-05,0.00015907174383755773
-3.498462319839746e-05,1.1076622286054771e-06,1.6289086488541216e-06,1.975964732991997e-05,0.0001875150774139911
-4.2095485696336254e-05,1.2315766980464105e-05,-1.4862109765090281e-06,2.0159608538961038e-05,0.00020580945420078933
-5.173081444809213e-05,3.20363869832363e-05,-3.363450105098309e-06,1.2325782336120028e-05,0.00020761833002325147
-6.036902414052747e-05,4.760724914376624e-05,-1.758047687872022e-06,1.665752478174909e-07,0.0001972425088752061
-6.204899545991793e-05,4.983844337402843e-05,1.7441217323721503e-06,-1.3789512195216957e-05,0.0001850089174695313
-5.7265147916041315e-05,4.708743290393613e-05,3.543342472767108e-06,-2.7381953259464353e-05,0.00017401055083610117
-5.370243889046833e-05,4.842418275075033e-05,1.018798734264692e-08,-4.663088475354016e-05,0.00015829414769541472
-5.370226426748559e-05,5.158836938790046e-05,-7.465513590432238e-06,-8.065863221418113e-05,0.00013205743744038045
-5.401017551776022e-05,4.936472396366298e-05,-1.3774751096207183e-05,-0.00012615963350981474,9.965292701963335e-05
-5.268428139970638e-05,4.09741114708595e-05,-1.7250746168429032e-05,-0.0001611051702639088,6.827680044807494e-05
-4.993986294721253e-05,3.4228138247272e-05,-1.5799256289028563e-05,-0.0001649401237955317,4.307162089389749e-05
-4.6787601604592055e-05,3.212178125977516e-05,-1.1531756172189489e-05,-0.0001402623747708276,2.9164224542910233e-05
-3.786784873227589e-05,2.7769645384978503e-05,-1.1863696272484958e-05,-0.00010374400153523311,3.2885891414480284e-05
-2.4568797016399913e-05,1.9474640794214793e-05,-1.3537515769712627e-05,-6.567308446392417e-05,4.810904647456482e-05
-1.6737463738536462e-05,8.638919098302722e-06,-9.335499271401204e-06,-2.4081744413706474e-05,6.1021379224257544e-05
-1.746471389196813e-05,-5.099134341435274e-06,-1.1229570873183548e-06,2.3612774384673685e-05,6.855741230538115e-05
-1.950232035596855e-05,-1.7957347154151648e-05,6.299984306679107e-06,6.940875755390152e-05,7.457409810740501e-05
-1.880085255834274e-05,-2.1863286747247912e-05,1.514248924650019e-05,9.728383156470954e-05,7.940047362353653e-05
-1.9215136489947326e-05,-1.4266957805375569e-05,2.5891280529322103e-05,0.00010364583431510255,8.165196777554229e-05
-1.952325510501396e-05,-9.445673185837222e-07,3.48856374330353e-05,9.141255577560514e-05,8.393069583689794e-05
-1.2876043911091983e-05,1.297237668040907e-05,3.554634895408526e-05,6.003428643452935e-05,8.610016811871901e-05
5.52960273125791e-06,2.6545452783466317e-05,1.9168704966432415e-05,2.6358744435128756e-05,8.29792843433097e-05
2.3403146769851446e-05,3.96984614781104e-05,-7.854754585423507e-06,1.1309891306154896e-05,7.664773147553205e-05
2.0587147446349263e-05,5.330481144483201e-05,-3.0321280064526945e-05,8.031295692489948e-06,7.072594598866999e-05
2.7172413865628187e-06,6.939754530321807e-05,-4.2511910578468814e-05,9.184747796098236e-06,6.332538760034367e-05
-8.145572792273015e-06,8.240819443017244e-05,-4.461173011804931e-05,1.658516157476697e-05,5.8937413996318355e-05
-5.920524017710704e-06,8.169117063516751e-05,-3.892050517606549e-05,2.916962512244936e-05,5.8413887018105015e-05
-3.6631699913414195e-06,6.706189742544666e-05,-2.809716170304455e-05,3.9503720472566783e-05,5.844905535923317e-05
-8.047491064644419e-06,5.154299651621841e-05,-1.3664562175108586e-05,4.2900654079858214e-05,5.387898636399768e-05
-1.7611908333492465e-05,4.527023702394217e-05,2.7393414256948745e-06,4.087908018846065e-05,4.8849047743715346e-05
-2.810771002259571e-05,4.081488441443071e-05,1.8040100258076563e-05,3.335962173878215e-05,4.5810222218278795e-05
-3.861732329824008e-05,3.343437492731027e-05,3.013243076566141e-05,1.889026680146344e-05,4.14666355936788e-05
-4.3128180550411344e-05,2.6874155082623474e-05,3.946676952182315e-05,-1.448789021196717e-06,3.652462692116387e-05
-3.9969891076907516e-05,2.311288881173823e-05,4.474972593015991e-05,-2.1272860976750962e-05,3.3875065128086135e-05
-3.294418638688512e-05,1.8744472981779836e-05,4.676910975831561e-05,-3.401974026928656e-05,3.4509048418840393e-05
-2.8658534574788064e-05,1.5813975551282056e-05,4.651022027246654e-05,-3.401793583179824e-05,3.676880805869587e-05
-2.9311568141565658e-05,1.780122511263471e-05,4.265861207386479e-05,-2.2596612325287424e-05,4.091307710041292e-05
-3.361672497703694e-05,2.288487485202495e-05,3.6687466490548104e-05,-5.30582610736019e-06,4.5879798562964424e-05
-3.850835855701007e-05,2.518127985240426e-05,3.3046380849555135e-05,1.7444504919694737e-05,4.974985131411813e-05
-3.950498648919165e-05,2.1953213945380412e-05,3.238561112084426e-05,4.356708450359292e-05,5.263197090243921e-05
-3.917864160030149e-05,2.0792713257833384e-05,3.2082134566735476e-05,6.296657375060022e-05,5.437645813799463e-05
-4.099561192560941e-05,2.4333130568265915e-05,3.153718716930598e-05,7.317946437979117e-05,5.331404827302322e-05
-4.410736437421292e-05,2.869026684493292e-05,2.799938192765694e-05,8.12637954368256e-05,5.3066600230522454e-05
-4.0703431295696646e-05,3.59629157173913e-05,2.5013063350343145e-05,8.793172310106456e-05,5.49875148863066e-05
-3.026261219929438e-05,4.406145308166742e-05,2.461350777593907e-05,8.954793884186074e-05,5.71142190892715e-05
-2.1099640434840694e-05,4.656259261537343e-05,2.4228926122304983e-05,8.84838736965321e-05,5.5665746913291514e-05
-1.8708808056544513e-05,4.6170669520506635e-05,2.2407130018109456e-05,8.933404023991898e-05,4.9873175157699734e-05
-1.980924207600765e-05,4.2714244045782834e-05,1.6957341358647682e-05,8.863650145940483e-05,4.827565135201439e-05
-2.100069832522422e-05,4.36694135714788e-05,7.3963351496786345e-06,8.053014607867226e-05,5.1884821004932746e-05
-2.1208994439803064e-05,5.121160575072281e-05,-5.625891503768798e-07,7.652364729437977e-05,5.4100230045150965e-05
-2.4082119125523604e-05,5.3252220823196694e-05,-5.930328939030005e-07,8.205183985410258e-05,5.080939445178956e-05
-2.6692136088968255e-05,4.0276663639815524e-05,-1.6881758710951544e-06,7.63238494982943e-05,4.576427454594523e-05
-2.731212771323044e-05,2.574506106611807e-05,-5.631280600937316e-06,4.927497502649203e-05,4.5898297685198486e-05
-2.7098612918052822e-05,2.8181828383821994e-05,-6.883462447149213e-06,1.2502793651947286e-05,4.504897879087366e-05
-3.172606011503376e-05,3.674353865790181e-05,-7.741517947579268e-06,-2.183185461035464e-05,4.186038131592795e-05
-4.023910514661111e-05,3.3037322282325476e-05,-8.098193575278856e-06,-5.8396424719830975e-05,3.430137439863756e-05
-4.368062218418345e-05,1.401281315338565e-05,-9.03599811863387e-06,-0.00010320269939256832,1.9768334823311307e-05
-4.103250466869213e-05,-7.928820195957087e-06,-1.0595933417789638e-05,-0.00014609997742809355,2.3370762392005417e-06
-3.939917223760858e-05,-2.8096477763028815e-05,-1.1228691619180609e-05,-0.0001792455732356757,-1.308103310293518e-05
-4.631718184100464e-05,-4.1264924220740795e-05,-1.2293276085983962e-05,-0.0001987433643080294,-2.178421891585458e-05
-6.541620678035542e-05,-3.846496474579908e-05,-1.3414587556326296e-05,-0.0001941826631082222,-1.4731969713466242e-05
-9.42885599215515e-05,-2.5400764570804313e-05,-1.33133253257256e-05,-0.00016623931878712028,1.1605336112552322e-05
-0.00012464853352867067,-1.5488851204281673e-05,-7.792180440446828e-06,-0.00013150955783203244,4.210830229567364e-05
-0.00014334228762891144,-9.94499623629963e-06,2.9773220830975333e-06,-9.906062041409314e-05,6.262324313865975e-05
-0.00013963005039840937,-3.150475151869614e-07,8.592818630859256e-06,-6.519223825307563e-05,7.34760396881029e-05
-0.00011276554869255051,1.2116695870645344e-05,7.0173878157220315e-06,-2.679221324797254e-05,8.106851601041853e-05
-6.636164471274242e-05,2.5051107513718307e-05,5.259594217932317e-06,8.216506103053689e-06,9.055203554453328e-05
-1.2338068700046279e-05,3.885151818394661e-05,4.323164375819033e-06,2.9387518225121312e-05,0.00010062791261589155
3.145511436741799e-05,5.126755786477588e-05,4.372004241304239e-06,3.396167448954657e-05,0.00010640342952683568
5.0374783313600346e-05,5.830203735968098e-05,7.104893938958412e-06,2.7764788683271036e-05,0.00010503051453270018
4.119262666790746e-05,5.797738776891492e-05,8.238317604991607e-06,1.8198339603259228e-05,9.814713848754764e-05
1.552828871353995e-05,5.537143078981899e-05,6.445554390666075e-06,7.246905624924693e-06,8.904634159989655e-05
1.652092691983853e-06,5.5846699979156256e-05,1.8282805740454933e-06,-6.269159257499268e-06,8.278334280475974e-05
1.878385774034541e-05,5.963300645817071e-05,-1.867286414380942e-06,-2.146991391782649e-05,8.623186295153573e-05
5.3119736548978835e-05,6.171766290208325e-05,4.17480698899908e-08,-3.6155095585854724e-05,9.849002526607364e-05
8.00544730736874e-05,4.914333840133622e-05,2.8838769594585756e-06,-4.7107383579714224e-05,0.0001119634325732477
8.342397632077336e-05,2.8368325729388744e-05,1.4789624174227356e-06,-5.865553248440847e-05,0.00011953767534578219
7.37852169550024e-05,1.6336362023139372e-05,-8.091219569905661e-06,-7.740896398900077e-05,0.00012581459304783493
6.200606730999425e-05,1.3592377399618272e-05,-2.0636272893170826e-05,-8.968492329586297e-05,0.00012523768236860633
4.557093416224234e-05,1.6659758330206387e-05,-2.6952668122248724e-05,-8.505399455316365e-05,0.00011632982204901055
2.9044857001281343e-05,2.371860682615079e-05,-2.6023037207778543e-05,-7.152646139729768e-05,0.00010343037865823135
1.3009654139750637e-05,2.7523274184204638e-05,-1.9595534467953257e-05,-5.995252649881877e-05,8.861284732120112e-05
-1.6964593214652268e-06,2.4724948161747307e-05,-1.041544874169631e-05,-4.9044378101825714e-05,7.515137986047193e-05
-1.9385845007491298e-05,2.365821819694247e-05,-2.7452547328721266e-06,-3.118703898508102e-05,6.627241964451969e-05
-3.293449481134303e-05,2.2579064534511417e-05,2.416820279904641e-06,-8.471808428112126e-07,6.089027738198638e-05
-4.066714609507471e-05,1.3351267625694163e-05,9.15933105716249e-06,4.381224425742403e-05,5.5142882047221065e-05
-4.448970139492303e-05,1.945706344486098e-06,1.9687384337885305e-05,9.096439316635951e-05,5.050468826084398e-05
-5.161235822015442e-05,-5.998120400363405e-07,2.9105576686561108e-05,0.00011447801807662472,4.892182187177241e-05
-6.134178693173453e-05,4.8043175411294214e-06,3.0453686122200452e-05,9.712481551105157e-05,5.2403258450794965e-05
-6.861506699351594e-05,1.0215610927843954e-05,2.403967118880246e-05,5.752104698331095e-05,5.732565841753967e-05
-7.218583050416782e-05,1.353392599412473e-05,1.6403653717134148e-05,2.41083307628287e-05,6.0117203247500584e-05
-6.443078018492088e-05,2.066456181637477e-05,1.245548264705576e-05,1.1198007086932193e-05,6.040744119673036e-05
-4.322502718423493e-05,3.726984141394496e-05,1.1212528988835402e-05,1.2604060430021491e-05,5.861986937816255e-05
-2.115789902745746e-05,5.8135850849794224e-05,8.236022040364332e-06,1.3359870536078233e-05,5.648869773722254e-05
-1.5318973964895122e-05,7.351291424129158e-05,1.962772103070165e-06,9.56044823396951e-06,5.451073229778558e-05
-1.9115210307063535e-05,7.901666685938835e-05,-4.893832738162018e-06,5.288626653054962e-06,4.605072899721563e-05
-2.2424052076530643e-05,7.727844058535993e-05,-1.1410923434596043e-05,-4.494165466439881e-07,3.638904672698118e-05
-2.4501587176928297e-05,7.653765351278707e-05,-1.5185235497483518e-05,-9.74414979282301e-06,3.4302236599614844e-05
-2.6573252398520708e-05,7.672584615647793e-05,-1.4752666174899787e-05,-1.9745484678423963e-05,3.8864709495101124e-05
-2.6481311579118483e-05,7.285263563971967e-05,-1.0083429515361786e-05,-2.1633510186802596e-05,4.376808283268474e-05
-2.9865894248359837e-05,6.528058293042704e-05,-1.0758474218164338e-06,-1.0258162546961103e-05,4.373211049824022e-05
-3.518355515552685e-05,5.501163468579762e-05,6.854312232462689e-06,6.005953423482424e-08,3.7945676012896e-05
-3.994873259216547e-05,4.518790592555888e-05,1.2713612704828847e-05,4.600443389790598e-06,3.352514613652602e-05
-4.333159813540988e-05,3.616696267272346e-05,1.286693623114843e-05,9.819243132369593e-06,4.0238908695755526e-05
-4.7238139813998714e-05,3.128468961222097e-05,8.607932613813318e-06,1.6035770386224613e-05,5.128354314365424e-05
-4.7567962610628456e-05,3.0916547984816134e-05,8.676272045704536e-06,1.855914160842076e-05,6.050178126315586e-05
-3.9535454561701044e-05,2.787636185530573e-05,1.3192599908506963e-05,1.677938962529879e-05,6.66763007757254e-05
-3.184926390531473e-05,2.287949428136926e-05,1.774387237674091e-05,9.666490768722724e-06,6.835739623056725e-05
-3.1682149710832164e-05,1.9019136743736453e-05,2.0454364857869223e-05,-1.578218984832347e-06,6.493278488051146e-05
-3.6619716411223635e-05,1.7715829017106444e-05,2.1859892513020895e-05,-9.53026938077528e-06,5.633648106595501e-05
-4.055354656884447e-05,1.6980022337520495e-05,2.3359658371191472e-05,-1.1928931598959025e-05,5.084206713945605e-05
-3.9161946915555745e-05,1.7028047295752913e-05,2.1968742657918483e-05,-9.091112588066608e-06,5.15769534104038e-05
-3.7094796425662935e-05,1.6168754882528447e-05,1.5046312910271809e-05,-8.299868568428792e-06,5.318957119015977e-05
-4.046565663884394e-05,1.64754474099027e-05,5.255461928754812e-06,-1.3507042240235023e-05,4.779714799951762e-05
-4.502589217736386e-05,1.7464619304519147e-05,-2.2140477540233405e-06,-2.2530181013280526e-05,3.9766233385307714e-05
-4.689269553637132e-05,1.5669425920350477e-05,-2.7551559469429776e-06,-3.119086613878608e-05,3.87623040296603e-05
-4.6351826313184574e-05,1.151369906438049e-05,-1.2834968856623163e-06,-4.034495214000344e-05,4.5129283535061404e-05
-4.602858825819567e-05,8.911645636544563e-06,-1.7173908872791799e-06,-4.508985875872895e-05,4.995807830709964e-05
-4.32689739682246e-05,9.125718861469068e-06,-1.020276386043406e-06,-3.9931888750288635e-05,4.958338104188442e-05
-3.5168672184227034e-05,1.0707009096222464e-05,4.057291789649753e-06,-3.0303986932267435e-05,4.623746281140484e-05
-2.6324127247789875e-05,1.4467374057858251e-05,7.691133760090452e-06,-2.0703679183498025e-05,4.4214935769559816e-05
-2.2230209651752375e-05,1.8652555809239857e-05,7.399532023555366e-06,-1.2324869203439448e-05,4.626117879524827e-05
-2.087265056616161e-05,2.1764188204542734e-05,6.1592045312863775e-06,-5.822871571581345e-06,5.071569830761291e-05
-2.0271101675461978e-05,2.3350776245933957e-05,5.764979960076744e-06,-1.4205644447429222e-06,5.4863718105480075e-05
-2.2217533114599064e-05,2.2755799363949336e-05,9.405723176314496e-06,2.454238256177632e-06,5.55102014914155e-05
-2.6136789529118687e-05,2.233853956568055e-05,1.4861321687931195e-05,4.253899533068761e-06,5.504195360117592e-05
-2.956428397737909e-05,2.597467573650647e-05,1.618695205252152e-05,5.512534698937088e-06,5.565522951656021e-05
-3.249688234063797e-05,3.1366558687295765e-05,1.756230994942598e-05,2.1970790839986876e-06,5.5200398492161185e-05
-3.761407424462959e-05,3.3582804462639615e-05,2.0795667296624742e-05,-8.115343007375486e-06,5.555564348469488e-05
-4.312977398512885e-05,3.179681516485289e-05,1.8532300600782037e-05,-2.3947583031258546e-05,5.993392551317811e-05
-4.3461019231472164e-05,3.196125180693343e-05,1.197748861159198e-05,-4.1767285438254476e-05,6.0782091168221086e-05
-3.838168777292594e-05,2.7589785531745292e-05,6.31963848718442e-06,-5.5210832215379924e-05,5.672500628861599e-05
-3.472147000138648e-05,1.7063543054973707e-05,8.130968126351945e-06,-5.943865835433826e-05,5.347001206246205e-05
-3.5229139029979706e-05,8.749745575187262e-06,1.046421402861597e-05,-5.964262891211547e-05,5.6966859119711444e-05
-3.377383836777881e-05,5.661037903337274e-06,7.1221029429580085e-06,-5.9889876865781844e-05,6.348633178276941e-05
-2.844500522769522e-05,8.077823622443248e-06,3.021609927600366e-06,-5.000109376851469e-05,6.621249485760927e-05
-2.243113522126805e-05,1.093793434847612e-05,3.2067225674836664e-06,-3.669599391287193e-05,6.295659113675356e-05
-2.9092236218275502e-05,9.256570592697244e-06,7.274798008438665e-06,-3.02099888358498e-05,5.9108700952492654e-05
-5.165378388483077e-05,8.043727575568482e-06,1.1174825885973405e-05,-2.9767310479655862e-05,5.615134796244092e-05
-7.401469338219613e-05,1.4562123396899551e-05,1.5615838492522016e-05,-2.939682781288866e-05,5.499448161572218e-05
-7.841912884032354e-05,2.9797296519973315e-05,1.6913465515244752e-05,-2.5490533516858704e-05,5.512228744919412e-05
-5.9503221564227715e-05,4.41921001765877e-05,1.5815498045412824e-05,-2.1472367734531872e-05,5.673592386301607e-05
-2.54812457569642e-05,5.3080333600519225e-05,1.3617387594422325e-05,-1.7166978068416938e-05,6.122025661170483e-05
9.50649700826034e-06,5.328646511770785e-05,1.010216601571301e-05,-1.4800632925471291e-05,6.206156831467524e-05
3.1236526410793886e-05,4.305822585592978e-05,7.271862614288693e-06,-1.6295616660499945e-05,5.884476559003815e-05
3.4711905755102634e-05,2.7325952032697387e-05,6.235563432710478e-06,-1.8800707039190456e-05,5.77473510929849e-05
2.415218659734819e-05,1.3805756680085324e-05,5.1262077249703e-06,-1.913026426336728e-05,5.839090226800181e-05
1.1433427971496712e-05,8.772040018811822e-06,1.9699573385878466e-06,-1.8428645489620976e-05,5.701566260540858e-05
7.303976872208295e-06,1.3093333109281957e-05,-3.505619190491416e-07,-1.9203971532988362e-05,5.6148353905882686e-05
8.392436029680539e-06,2.0548288375721313e-05,2.1594903500954388e-06,-2.2524669475387782e-05,5.642805990646593e-05
5.8701484704215545e-06,2.3838689230615273e-05,7.195324542408343e-06,-2.268762000312563e-05,5.812488598166965e-05
-2.390765985182952e-07,2.535274688852951e-05,7.109159923857078e-06,-1.7261418179259636e-05,5.885942664463073e-05
-7.258880941662937e-06,2.6636280381353572e-05,2.5424035356991226e-06,-1.5249995158228558e-05,5.9481055359356105e-05
-1.5215711755445227e-05,2.3150570996222086e-05,-1.0903098655035137e-06,-1.7575104720890522e-05,6.0148773627588525e-05
-2.4160854081856087e-05,1.5305464330594987e-05,-2.6675982098822715e-06,-1.652190439926926e-05,5.809676804346964e-05
-3.416988693061285e-05,1.3686742022400722e-05,-2.0466789862894075e-07,-9.829738701228052e-06,5.3690837376052514e-05
-4.764010736835189e-05,1.440538926544832e-05,9.40768495638622e-06,-3.2513180485693738e-06,5.540532947634347e-05
-6.284160917857662e-05,1.639303627598565e-05,1.6786665582912974e-05,-3.3686901588225737e-06,5.9934092860203236e-05
-8.072883065324277e-05,1.5704645193181932e-05,1.8490469301468693e-05,-4.482594704313669e-06,6.327110895654187e-05
-9.945211058948189e-05,1.5232287296385039e-05,1.5871002688072622e-05,-1.339734262728598e-05,6.606509850826114e-05
-9.295552445109934e-05,2.1300102162058465e-05,9.151335689239204e-06,-3.433776873862371e-05,6.793536886107177e-05
-4.992578033125028e-05,2.589834366517607e-05,1.4520794593408937e-06,-4.994366827304475e-05,6.798959657317027e-05
2.0496725028351648e-06,2.6703084586188197e-05,-5.94645871387911e-06,-5.123884693603031e-05,6.451072840718552e-05
3.527905573719181e-05,2.8993594241910614e-05,-8.183812497009058e-06,-4.280506254872307e-05,6.409864727174863e-05
3.7754532968392596e-05,3.749517782125622e-05,-7.577242286060937e-06,-3.200911305611953e-05,6.467446655733511e-05
2.331001996935811e-05,4.551380334305577e-05,-6.242744802875677e-06,-1.6049023543018848e-05,6.653217860730365e-05
7.354369245149428e-06,4.475375681067817e-05,-5.142806003277656e-06,4.3697564251488075e-06,7.13139888830483e-05
-1.655708501857589e-06,3.450208168942481e-05,-3.5138575640303316e-06,2.4084842152660713e-05,7.548820576630533e-05
-6.210154879227048e-06,2.3777676688041538e-05,5.684897246283072e-07,3.576642120606266e-05,7.248469773912802e-05
-9.859759302344173e-06,2.2818789148004726e-05,5.900373707845574e-06,3.838702468783595e-05,6.594380101887509e-05
-9.582166057953145e-06,2.962906910397578e-05,9.006991604110226e-06,3.687187563627958e-05,6.158804899314418e-05
-7.638447641511448e-06,3.392581129446626e-05,7.975458174769301e-06,3.636300971265882e-05,6.011987352394499e-05
-9.472154488321394e-06,3.071563696721569e-05,5.12547421749332e-06,3.5327160730957985e-05,5.9594523918349296e-05
-1.899659400805831e-05,2.4565924832131714e-05,3.7603999771818053e-06,3.129615288344212e-05,5.591441004071385e-05
-3.1584400858264416e-05,2.5663499400252476e-05,3.956140972150024e-06,2.502015559002757e-05,5.2711617172462866e-05
-3.989108154200949e-05,3.597696922952309e-05,4.026726855954621e-06,1.7469270460424013e-05,5.328807674231939e-05
-4.0464747144142166e-05,4.344600165495649e-05,5.1803285714413505e-06,1.4064519746170845e-05,5.543948645936325e-05
-3.894633846357465e-05,4.21338809246663e-05,6.4765695242385846e-06,1.3414551176538225e-05,5.880240132682957e-05
-3.859103162540123e-05,4.315667683840729e-05,8.3659460869967e-06,8.379604878427926e-06,6.453642708947882e-05
-4.294426253181882e-05,4.3461706809466705e-05,8.565329153498169e-06,-8.339894520759117e-06,6.476463022409007e-05
-4.721084769698791e-05,3.6826266295975074e-05,1.7365889561915537e-06,-4.780886592925526e-05,5.769618655904196e-05
-4.261780122760683e-05,3.4712080378085375e-05,-1.0913719052041415e-05,-0.00011239838931942359,4.8284666263498366e-05
-3.39200887538027e-05,3.8523423427250236e-05,-1.90111059055198e-05,-0.00018486016779206693,4.2155304981861264e-05
-2.4937706257333048e-05,3.9001308323349804e-05,-2.240414687548764e-05,-0.00023722344485577196,3.863532401737757e-05
-1.046486522682244e-05,3.330283288960345e-05,-3.2029285648604855e-05,-0.0002384723338764161,3.823942824965343e-05
4.700108547694981e-06,3.480394298094325e-05,-4.538789653452113e-05,-0.0001970111479749903,4.315105979912914e-05
2.0634532120311633e-05,4.3772040953626856e-05,-4.89933299832046e-05,-0.0001326928031630814,4.964877007296309e-05
3.376299355295487e-05,4.021271161036566e-05,-4.23951969423797e-05,-5.04814088344574e-05,5.0922768423333764e-05
3.419513814151287e-05,2.329004928469658e-05,-3.1867530196905136e-05,3.535631549311802e-05,4.343017644714564e-05
2.4390046746702865e-05,1.1572356015676633e-05,-1.9001854525413364e-05,0.0001165973735623993,3.6330206057755277e-05
1.0431899681861978e-05,1.288657404074911e-05,-3.480598024907522e-06,0.00018280615040566772,3.960735921282321e-05
-5.569827408180572e-06,2.1246705728117377e-05,1.9897197489626706e-05,0.0002332562580704689,5.64534857403487e-05
-1.8965072740684263e-05,2.7560561647987925e-05,4.695850657299161e-05,0.00026473941397853196,7.684018783038482e-05
-2.5217426809831522e-05,2.659054553078022e-05,6.511892570415512e-05,0.00026034790789708495,9.055132250068709e-05
-2.5989515052060597e-05,2.2797201381763443e-05,6.434700480895117e-05,0.0002131736109731719,9.695594053482637e-05
-2.839957596734166e-05,2.1557370928348973e-05,4.967326094629243e-05,0.00014283131167758256,0.0001001087439362891
-3.6023098800797015e-05,2.1945290427538566e-05,3.434039535932243e-05,8.214982517529279e-05,0.00010368743096478283
-4.544462717603892e-05,2.25028252316406e-05,2.4726865376578644e-05,4.407545566209592e-05,0.0001017357935779728
-5.30893994437065e-05,2.804353971441742e-05,1.9697547031682916e-05,2.1428781110444106e-05,8.900451211957261e-05
-5.819953730679117e-05,3.674192339531146e-05,1.4694290257466491e-05,4.511166480369866e-06,7.044927042443305e-05
-6.20527716819197e-05,4.3767675379058346e-05,8.70591975399293e-06,-6.862216196168447e-06,4.894561061519198e-05
-6.544272764585912e-05,4.7277706471504644e-05,5.06435162606067e-06,-1.3078418305667583e-05,2.636616954987403e-05
-6.876774568809196e-05,4.977173011866398e-05,5.693332695955178e-06,-1.5646082829334773e-05,1.3681667041964829e-05
-6.982137711020187e-05,5.305273225530982e-05,8.009500561456662e-06,-1.9135792172164656e-05,2.21725113078719e-05
-6.233263411559165e-05,5.652993786497973e-05,9.336763469036669e-06,-2.5381550585734658e-05,4.4418171455617994e-05
-4.554926272248849e-05,5.917764065088704e-05,8.065788279054686e-06,-2.6302444894099608e-05,5.928999598836526e-05
-3.4721222618827596e-05,5.89196861255914e-05,8.389588401769288e-06,-1.7825952454586513e-05,5.989668352412991e-05
-3.9137892599683255e-05,5.841623351443559e-05,8.054407771851402e-06,-1.0698961887101177e-05,5.793432501377538e-05
-4.797225847141817e-05,5.586257975664921e-05,5.016470367991133e-06,-1.1086976883234456e-05,6.121673504821956e-05
-5.0223126891069114e-05,3.970680700149387e-05,3.1759200282976963e-06,-1.5118320334295277e-05,6.692569149890915e-05
-4.471645661396906e-05,1.42653834700468e-05,1.7453814962209435e-06,-2.1467321857926436e-05,7.138329237932339e-05
-3.472070238785818e-05,-2.0647176768306963e-07,-8.712963790458161e-07,-2.8539885533973575e-05,7.76969245634973e-05
-2.717315510381013e-05,-4.126730345888063e-06,-4.551679012365639e-06,-3.483996624709107e-05,8.094916120171547e-05
-2.5334660676890053e-05,-6.4377663875347935e-06,-1.0030108569480944e-05,-4.2202660551993176e-05,7.350106898229569e-05
-3.115371509920806e-05,-1.2850702660216484e-05,-1.4568302503903396e-05,-5.3071587899466977e-05,6.37917109997943e-05
-3.747566370293498e-05,-1.577421608089935e-05,-1.315856661676662e-05,-6.307725561782718e-05,5.9106208937009797e-05
-3.7982485082466155e-05,-6.9661000452470034e-06,-8.705782420292962e-06,-6.36509430478327e-05,5.7352121075382456e-05
-3.275040216976777e-05,-9.232356212862669e-09,-4.073674517712789e-06,-5.5305699788732454e-05,5.272543057799339e-05
-2.5773391826078296e-05,-2.128564347003703e-06,-5.998194865242112e-07,-4.4906308175995946e-05,5.074081491329707e-05
-1.952813909156248e-05,-1.7302594415014028e-06,9.440443591302028e-07,-3.312826083856635e-05,5.344815508578904e-05
-1.9828001313726418e-05,1.1538802937138826e-05,2.4069649953162298e-06,-2.0330171537352726e-05,5.6545453844591975e-05
-2.5989020286942832e-05,3.0143399271764793e-05,5.4855700000189245e-06,-1.2033672646794003e-05,5.605424303212203e-05
-3.294560519861989e-05,4.583861300488934e-05,6.71228099236032e-06,-7.571550668217242e-06,5.305627564666793e-05
-3.5064909752691165e-05,5.511158815352246e-05,5.6359053814958315e-06,-5.015941042074701e-06,5.172257078811526e-05
-3.3440916013205424e-05,5.947172030573711e-05,6.515817403851543e-06,-2.4683795345481485e-06,5.2509571105474606e-05
-3.4515000152168795e-05,5.808140485896729e-05,1.1519417967065237e-05,1.1031274880224373e-06,5.382042581913993e-05
-3.6607609217753634e-05,5.1061302656307817e-05,1.6400121239712462e-05,5.6548228712927084e-06,5.405538831837475e-05
-3.4247721487190574e-05,4.14383175666444e-05,1.544011502119247e-05,6.564331215486163e-06,5.3298041166272014e-05
-2.765067620202899e-05,3.511497561703436e-05,8.657812031742651e-06,-6.98222675055149e-06,5.2188592235324904e-05
-2.5599887521821074e-05,3.66880813089665e-05,2.5231354356947122e-06,-3.743636989383958e-05,5.449454693007283e-05
-2.8683118216576986e-05,4.2295752791687846e-05,1.1195630804650136e-06,-6.979532190598547e-05,6.0100152040831745e-05
-3.550960173015483e-05,4.730763248517178e-05,2.1534153802349465e-06,-8.321704081026837e-05,6.389790360117331e-05
-4.3806630856124684e-05,4.758673094329424e-05,2.6805737434187904e-06,-7.538024510722607e-05,6.502687028842047e-05
-4.853224891121499e-05,4.493482265388593e-05,3.6667618132923963e-06,-5.866419814992696e-05,6.578894681297243e-05
-4.653681389754638e-05,4.252983853803016e-05,7.724163879174739e-06,-4.115143383387476e-05,6.205463432706892e-05
-4.1003775550052524e-05,4.130608431296423e-05,1.0165224011871032e-05,-2.097044671245385e-05,5.593414607574232e-05
-3.2804593502078205e-05,3.9399717934429646e-05,8.427866305282805e-06,1.7760307855496649e-06,5.461988257593475e-05
-2.6278476070729084e-05,3.314770947326906e-05,3.4373285870969994e-06,1.8532642570789903e-05,5.8286168496124446e-05
-2.3826212782296352e-05,1.9000332031282596e-05,-2.3132604383135913e-06,1.9929479094571434e-05,5.7423734688200057e-05
-2.7101033992948942e-05,7.838050805730745e-06,-6.0554107221832965e-06,1.2951069948030636e-05,5.600860822596587e-05
-2.847389259841293e-05,8.051280929066706e-06,-5.390787009673659e-06,7.72616476751864e-06,5.950748527538963e-05
-2.6702702598413453e-05,1.6908918041735888e-05,-1.941295295182499e-06,5.031363343732664e-06,6.144789949757978e-05
-2.8952770662726834e-05,2.6848614652408287e-05,1.2348903055681149e-07,1.3916403531766264e-06,5.800909275421873e-05
-3.004230347869452e-05,3.611967258621007e-05,-1.0634407772158738e-06,-7.420385827572318e-06,5.382167728384957e-05
-2.9954630008433014e-05,4.164499114267528e-05,-9.126837881012761e-07,-1.7609365386306308e-05,5.350754872779362e-05
-2.771176878013648e-05,4.006156450486742e-05,4.259426987118786e-06,-2.232523911516182e-05,5.798620986752212e-05
-1.8287963030161336e-05,3.495019700494595e-05,1.3363779544306453e-05,-2.263506394228898e-05,6.407706678146496e-05
-2.047309862973634e-06,2.9829941922798753e-05,1.9085660824202932e-05,-1.8265838662046008e-05,6.666805711574852e-05
2.028192648140248e-05,2.6785921363625675e-05,1.763303043844644e-05,-1.3163662515580654e-05,6.544653297169134e-05
4.256679676473141e-05,2.198654146923218e-05,1.3283298358146567e-05,-9.812101779971272e-06,6.342906999634579e-05
5.5735647038090974e-05,1.773137046257034e-05,6.463411864388036e-06,-8.060100299189799e-06,6.386523455148563e-05
5.031762702856213e-05,1.5460878785233945e-05,9.62715489549737e-07,-1.0394890523457434e-05,6.354091601679102e-05
2.4671453502378426e-05,1.6414100173278712e-05,1.510798028903082e-06,-1.5092163266672287e-05,6.181134813232347e-05
-1.0737157026596833e-05,1.7192549421451986e-05,7.084403023327468e-06,-1.6956613762886263e-05,6.302407564362511e-05
-4.166442158748396e-05,1.317493115493562e-05,1.1559976883290801e-05,-1.6188510926440358e-05,6.726664287270978e-05
-5.522976425709203e-05,7.777362043270841e-06,9.614608643460087e-06,-1.5764804629725404e-05,7.237518002511933e-05
-5.0499460485298187e-05,4.609537427313626e-06,3.1527974897471722e-06,-1.4954793186916504e-05,7.46371442801319e-05
-3.9788024878362194e-05,8.870013061823556e-07,2.0741081243613735e-06,-1.2818512004741933e-05,7.313073001569137e-05
-3.6936980905011296e-05,-2.1439964257297106e-06,9.102901458390988e-06,-8.379918654100038e-06,7.255516538862139e-05
-4.2092709918506444e-05,-2.0349170881672762e-06,1.4695333447889425e-05,-6.097045115893707e-06,7.52257983549498e-05
-4.755348709295504e-05,2.082654873447609e-06,1.3111946827848442e-05,-7.887538231443614e-06,7.939266652101651e-05
-4.940537110087462e-05,1.2993991731491406e-05,1.0860653674171772e-05,-1.0950527212116867e-05,7.879595796111971e-05
-4.247073957230896e-05,2.4410335754510015e-05,9.043020327226259e-06,-1.1055828508688137e-05,7.34102723072283e-05
-2.8740972993546166e-05,3.207795452908613e-05,5.026195594837191e-06,-9.229269380739424e-06,6.800253322580829e-05
-2.1944124455330893e-05,3.1248637242242694e-05,1.1593260751396883e-07,-6.335986199701438e-06,6.534425483550876e-05
-1.9779938156716526e-05,2.0560491975629702e-05,-7.20279444976768e-07,-6.072393716749502e-06,6.411717913579196e-05
-2.009123818424996e-05,9.828150723478757e-06,1.8490628690415178e-06,-9.54558709054254e-06,6.308437878033146e-05
-2.4814018615870737e-05,1.2051473277097102e-05,4.2838300942094065e-06,-1.2802731362171471e-05,6.262200622586533e-05
-3.567531894077547e-05,3.2225238101091236e-05,9.24717551242793e-06,-1.3339722499949858e-05,6.509585364256054e-05
-4.9376605602446944e-05,5.841840538778342e-05,1.060834892996354e-05,-1.0597337677609175e-05,6.666107947239652e-05
-5.144231909071095e-05,7.843287312425673e-05,4.87050283481949e-06,-7.605590326420497e-06,6.382663559634238e-05
-3.910169471055269e-05,8.865378913469613e-05,2.9304263193807856e-07,-3.863165602524532e-06,6.032291639712639e-05
-2.640056118252687e-05,8.982508006738499e-05,1.4007703441620833e-08,1.6537125020477106e-06,5.982023503747769e-05
-2.2657726731267758e-05,8.461461402475834e-05,-2.9119584610270977e-07,6.269882305787178e-06,6.128188397269696e-05
-2.427540130156558e-05,7.673264190088958e-05,-6.355130608426407e-07,4.841781901632203e-06,6.176201713969931e-05
-3.070724051212892e-05,7.00414675520733e-05,-7.230249252643262e-07,-1.1932819461435429e-06,5.9711372159654275e-05
-3.785691660596058e-05,6.3316423620563e-05,-1.3206157234435523e-07,-5.296486506267684e-06,5.61200940865092e-05
-3.939966336474754e-05,5.0688922783592716e-05,-4.694661583926063e-07,-6.705616669933079e-06,5.377962224883959e-05
-3.396975444047712e-05,3.2718355214456096e-05,-8.563325764043839e-07,-6.468361789302435e-06,5.320469063008204e-05
-2.4610611944808625e-05,1.9062874343944713e-05,-1.6962584368229727e-06,-4.4752323447028175e-06,5.359494753065519e-05
-1.6513460650458e-05,1.3670421139977407e-05,-3.6463500237005064e-06,-2.86798172055569e-06,5.441785469884053e-05
-1.2075396625732537e-05,8.489298124914058e-06,-2.8817996735597262e-06,-4.874952992395265e-06,5.457366933114827e-05
-1.2890307516499888e-05,-1.7131673075709841e-06,1.5519897260674043e-06,-8.577148037147708e-06,5.3629781177733094e-05
-1.9913335563614964e-05,-1.535582123324275e-05,6.734804173902376e-06,-1.0805533747770824e-05,5.273062561172992e-05
-3.034204746654723e-05,-2.4030548956943676e-05,1.1809329407697078e-05,-1.0094243407365866e-05,5.1918221288360655e-05
-3.910347368218936e-05,-1.7606125766178593e-05,1.5185378288151696e-05,-8.044857167988084e-06,4.986736530554481e-05
-4.313516183174215e-05,-1.2547401411211467e-06,1.2057050298608374e-05,-6.946869689272717e-06,4.480839925236069e-05
-4.2158168071182445e-05,1.6868783859536052e-05,4.657988483813824e-06,-8.684854947205167e-06,4.018040999653749e-05
-3.7813762901350856e-05,3.502797699184157e-05,-4.6374825757311555e-08,-9.098918781091925e-06,3.8091275200713426e-05
-3.2935338822426274e-05,4.768087455886416e-05,-6.714569167343143e-07,-5.7789998209045734e-06,4.207520396448672e-05
-3.348991594975814e-05,4.734449248644523e-05,-1.6077196960395668e-06,-1.2717811159745906e-06,5.184375186217949e-05
-4.1150840843329206e-05,3.574778020265512e-05,-4.035635356558487e-06,5.86243595535052e-06,5.9755879192380235e-05
-5.31575788045302e-05,2.307292743353173e-05,-3.535985570124467e-06,9.865834726952016e-06,6.479951844085008e-05
-6.56808988424018e-05,1.7501692127552815e-05,-7.774353321110539e-07,4.521022674452979e-06,6.582393689313903e-05
-6.601955101359636e-05,1.7906631910591386e-05,-3.043138121938682e-06,-5.126843461766839e-06,6.158566247904673e-05
-4.350247036200017e-05,1.9673221686389297e-05,-4.16328430219437e-06,-1.311433152295649e-05,5.763786975876428e-05
-7.027895208011614e-06,2.234799467260018e-05,-1.752944513100374e-06,-1.8358396118856035e-05,5.679849346051924e-05
1.8226819520350546e-05,2.151389344362542e-05,4.048251867061481e-07,-1.6388672520406544e-05,5.968362893327139e-05
1.7797134205466136e-05,1.8065720723825507e-05,2.2909185304342827e-07,-1.276608236366883e-05,6.129658140707761e-05
-1.6476687960675918e-06,2.2027968952897936e-05,5.363547757042397e-07,-1.4187766282702796e-05,5.813412644783966e-05
-2.261920781165827e-05,2.8735366868204437e-05,4.40712892668671e-06,-1.8033857486443594e-05,5.436164065031335e-05
-3.554253271431662e-05,2.7385562134440988e-05,6.924947228981182e-06,-1.8216702301288024e-05,5.486282316269353e-05
-4.149068990955129e-05,2.1006411770940758e-05,6.217513146111742e-06,-1.3979380128148478e-05,5.542148574022576e-05
-4.0428320062346756e-05,1.8575638023321517e-05,6.417173608497251e-06,-8.839648216962814e-06,5.146638068254106e-05
-3.569634645828046e-05,2.1275112885632552e-05,9.602792488294654e-06,-7.988714969542343e-06,4.684927625930868e-05
-3.133446807623841e-05,2.4428007236565463e-05,1.1485379218356684e-05,-1.2431704817572609e-05,4.515559339779429e-05
-3.1959571060724556e-05,2.72487031907076e-05,1.0268265214108396e-05,-1.630853148526512e-05,4.7700021241325885e-05
-3.4272565244464204e-05,3.237411146983504e-05,7.082881438691402e-06,-1.8566230210126378e-05,5.3214007493807e-05
-3.1645959097659215e-05,3.9945647586137056e-05,6.7841820055036806e-06,-2.2015379727235995e-05,5.569312997977249e-05
-2.2423359041567892e-05,4.399102181196213e-05,1.1007092325598933e-05,-2.7855050575453788e-05,5.4532840294996276e-05
-1.3078727533866186e-05,3.969070894527249e-05,1.736559352139011e-05,-3.690315134008415e-05,5.425663403002545e-05
-8.516763045918196e-06,3.1865278288023546e-05,2.003733789024409e-05,-5.265578511171043e-05,5.478459206642583e-05
-5.387882083596196e-06,3.2093175832415e-05,1.526557571196463e-05,-7.089615246513858e-05,5.56707673240453e-05
-1.369918663840508e-06,4.294525570003316e-05,7.680679118493572e-06,-8.442269609076902e-05,5.6646189477760345e-05
3.6358244415168883e-06,4.9928486987482756e-05,3.27313364323345e-06,-8.743428770685568e-05,5.720157423638739e-05
5.337573838914977e-06,4.650931077776477e-05,1.7800384739530273e-06,-7.560537778772414e-05,5.748226249124855e-05
1.0286267979608965e-06,4.11106702813413e-05,1.7215169236806105e-06,-5.3132283937884495e-05,5.907117883907631e-05
-9.936956303135958e-06,3.427438059588894e-05,-5.411289976109401e-07,-2.6759338652482256e-05,5.659588350681588e-05
-1.806991895136889e-05,2.5789853680180386e-05,8.934966899687424e-07,-1.9558517294626654e-07,5.417344800662249e-05
-1.4595435459341388e-05,1.7468864825787023e-05,1.008268282021163e-05,1.876267560874112e-05,5.53860045329202e-05
-7.624635145475622e-06,8.989722118712962e-06,1.557280120323412e-05,2.9217721021268517e-05,5.483080894919112e-05
-5.189795501792105e-06,3.968089004047215e-06,1.5177097338892054e-05,3.400516652618535e-05,5.466782386065461e-05
-8.750676897761878e-06,7.230319624795811e-06,1.4090532204136252e-05,3.534942879923619e-05,5.868027074029669e-05
-1.5837751561775804e-05,1.6930374840740114e-05,1.7473514162702486e-05,4.2422721890034154e-05,6.283030234044418e-05
-2.1153966372366995e-05,2.467771446390543e-05,2.0406656403793022e-05,5.134150342200883e-05,5.956536915618926e-05
-2.4721757654333487e-05,2.8305894375080243e-05,1.666875323280692e-05,4.738073403132148e-05,5.63800786039792e-05
-2.836238309100736e-05,3.493495023576543e-05,1.0953887795039918e-05,3.1174506148090586e-05,5.7034754718188196e-05
-3.534042843966745e-05,4.986478597857058e-05,9.415623026143294e-06,1.4594460481021088e-05,5.693850471288897e-05
-4.0044695197138935e-05,6.044076144462451e-05,8.885732313501649e-06,5.372301984607475e-06,5.642040923703462e-05
-2.9744562198175117e-05,5.000682722311467e-05,5.754599442298058e-06,7.652104159205919e-07,5.668454468832351e-05
-1.2316712854953948e-05,2.280342232552357e-05,3.3931007692444837e-06,-2.622614829306258e-06,5.587551277130842e-05
-5.6190792747656815e-06,-2.917666279245168e-06,4.784029897564324e-06,-5.541895916394424e-06,5.457718361867592e-05
-8.358934792340733e-06,-1.2974030141776893e-05,1.009058269119123e-05,-8.990411515696906e-06,5.681410402758047e-05
-9.269504516851157e-06,-6.963875421206467e-06,1.4826498045295011e-05,-1.4724041648150887e-05,6.01974934397731e-05
-7.337052011280321e-06,2.2350352537614526e-06,1.4445213309954852e-05,-1.9916506062145345e-05,6.261655653361231e-05
-1.0830010978679638e-05,2.5788826860662084e-06,1.2255854926479515e-05,-1.9277094907010905e-05,6.153979484224692e-05
-2.245290124847088e-05,-8.084836053967592e-07,1.4302373529062606e-05,-1.5618383258697577e-05,5.835087358718738e-05
-3.293263944215141e-05,1.0097149925059057e-06,1.7810561985243112e-05,-1.2313065781199839e-05,5.5468066420871764e-05
-3.4597360354382545e-05,9.205816240864806e-06,1.773189978848677e-05,-1.0197629308095202e-05,5.604578473139554e-05
-3.2190288038691506e-05,2.368233799643349e-05,1.4336030289996415e-05,-1.1787888979597483e-05,6.0334681620588526e-05
-3.443527748459019e-05,3.997997919213958e-05,1.078250897990074e-05,-1.696192157396581e-05,6.297934305621311e-05
-4.6277997171273455e-05,4.53220127383247e-05,6.638606464548502e-06,-2.270962249895092e-05,6.400603160727769e-05
-5.830492955283262e-05,3.614621527958661e-05,3.0299745503725717e-06,-2.578227940830402e-05,6.363197462633252e-05
-5.5978409363888204e-05,2.369970388826914e-05,-5.349417051547789e-07,-2.694931572477799e-05,5.8172550780000165e-05
-4.3660373194143176e-05,1.8341119357501157e-05,-4.838255335926078e-06,-2.8017962904414162e-05,5.019017407903448e-05
-3.6014429497299716e-05,1.9423296180320904e-05,-3.485256456770003e-06,-2.45784867729526e-05,4.523709139903076e-05
-3.639096030383371e-05,2.0899180526612327e-05,2.0755860532517545e-06,-1.6628864614176564e-05,4.420926416059956e-05
-4.152230030740611e-05,2.235650026705116e-05,5.38587846676819e-06,-5.722116839024238e-06,4.442808494786732e-05
-4.3897143768845126e-05,2.2259973775362596e-05,8.056640581344254e-06,5.001395948056597e-06,4.599817839334719e-05
-3.769253453356214e-05,2.4299499273183756e-05,1.0918826774286572e-05,1.4652750905952416e-05,5.2592171414289623e-05
-2.6887641070061363e-05,3.1098254112293944e-05,1.5186437849479262e-05,2.1148975065443665e-05,6.061718158889562e-05
-1.3756782209384255e-05,4.0707462176214904e-05,1.647833050810732e-05,2.235240208392497e-05,5.9491627325769514e-05
-8.074001925706398e-06,5.374406828195788e-05,1.28635356304585e-05,1.7605112589080818e-05,4.406228617881425e-05
-1.1176507541676983e-05,6.302572728600353e-05,1.0211856533715036e-05,6.711733021802502e-06,2.778073030640371e-05
-2.0217179553583264e-05,5.987174154142849e-05,7.361767075053649e-06,-1.0504148121981416e-05,2.0052844774909317e-05
-3.005503458552994e-05,4.262508809915744e-05,1.536456238682149e-06,-3.8378220779122785e-05,1.9347211491549388e-05
-3.190564893884584e-05,1.7570457202964462e-05,-1.0404823115095496e-05,-8.546637400286272e-05,2.258417043776717e-05
-3.1444076739717275e-05,3.833355549431872e-06,-2.2905862351763062e-05,-0.00014145823661237955,3.426449984544888e-05
-3.3466632885392755e-05,1.4091825505602174e-05,-2.9921249733888544e-05,-0.00017486237629782408,6.288156873779371e-05
-3.6855748476227745e-05,3.761753032449633e-05,-2.9004982934566215e-05,-0.00017235444101970643,0.00010078449122374877
-4.045355672133155e-05,5.2086455980315804e-05,-2.2092050130595453e-05,-0.00014407816343009472,0.00013206034782342613
-4.6720415411982685e-05,4.794505002791993e-05,-1.1312213246128522e-05,-0.00010595275671221316,0.00014948777970857918
-5.458101077238098e-05,3.749379902728833e-05,2.7921125820284942e-06,-6.461152224801481e-05,0.00015244510723277926
-5.7885943533619866e-05,3.589641346479766e-05,1.804554631235078e-05,-2.36083706113277e-05,0.0001438923500245437
-5.2115388825768605e-05,4.225769589538686e-05,2.9385646485025063e-05,1.2344090464466717e-05,0.00012916144623886794
-4.165701466263272e-05,4.409967368701473e-05,3.389258199604228e-05,4.33654677181039e-05,0.00011475713836262003
-2.9691154850297607e-05,3.374980951775797e-05,3.4100201446563005e-05,7.198815001174808e-05,0.00010304462193744257
-1.4561641364707612e-05,1.6228676031460054e-05,3.1988020054996014e-05,9.678591595729813e-05,8.364572568098083e-05
5.145006070961244e-06,2.9991333576617762e-06,3.2854579330887645e-05,0.00011467660806374624,5.7087556342594326e-05
2.557037805672735e-05,-5.687556040356867e-06,3.172735159751028e-05,0.0001119707667385228,4.199164322926663e-05
3.452806413406506e-05,-1.1681130672513973e-05,2.035567013081163e-05,7.834496500436217e-05,4.047826223541051e-05
2.6509376766625792e-05,-1.7738966562319547e-05,2.1736291273555253e-06,3.4767796023515984e-05,4.667203756980598e-05
5.381344180932501e-06,-1.3906282219977584e-05,-1.4383178495336324e-05,3.5885211673303274e-06,5.7700035540619865e-05
-1.4400625332200434e-05,1.205442185892025e-05,-2.105104249494616e-05,-1.2933603102283087e-05,6.289516750257462e-05
-2.616488200146705e-05,3.89185624953825e-05,-2.1552395992330275e-05,-1.984132541110739e-05,6.178842158988118e-05
-2.9201437428127974e-05,4.857480598730035e-05,-2.3018943466013297e-05,-1.3729517377214506e-05,5.360239447327331e-05
-2.579742249508854e-05,4.776693822350353e-05,-2.509674959583208e-05,8.178401003533509e-06,4.2496587411733344e-05
-2.0502398911048658e-05,4.865746814175509e-05,-2.04725638468517e-05,2.7039111955673434e-05,3.488632501102984e-05
-1.0388892405899242e-05,5.671579856425524e-05,-9.862554179562721e-06,2.975629104184918e-05,2.8103673685109243e-05
-1.6134925999722327e-06,6.525536446133628e-05,-5.314901500241831e-06,2.4708591809030622e-05,2.156768096028827e-05
3.354174964442791e-07,6.82775498717092e-05,-4.061992967763217e-06,3.230298534617759e-05,2.05042670131661e-05
-8.916424121707678e-06,6.734071212122217e-05,-8.270613420791051e-07,5.97718681092374e-05,2.5010765966726467e-05
-2.2895907022757456e-05,6.130692781880498e-05,7.319660653593019e-06,9.43371924222447e-05,2.5499521143501624e-05
-3.023014505743049e-05,5.031623732065782e-05,1.5909125067992136e-05,0.00010937664774246514,2.1115132767590694e-05
-3.0489500204566866e-05,3.9566151826875284e-05,1.792052535165567e-05,8.263837662525475e-05,1.6103238522191532e-05
-3.04840796161443e-05,3.2446325349155813e-05,1.0549797480052803e-05,2.7953214157605544e-05,1.6870597391971387e-05
-3.268272848799825e-05,2.405731902399566e-05,3.122680709566339e-06,-1.8676348190638237e-05,2.2504376829601824e-05
-3.254108378314413e-05,1.2807349776267074e-05,2.9564225769718178e-06,-4.1756884456845e-05,3.360745540703647e-05
-3.2000578357838094e-05,7.072404514474329e-06,5.864660124643706e-06,-4.875649028690532e-05,5.56564045837149e-05
-3.340046896482818e-05,1.207185869134264e-05,7.415354048134759e-06,-4.636068842955865e-05,8.226169302361086e-05
-3.564549479051493e-05,1.7933620256371796e-05,5.009704636904644e-06,-3.622266012826003e-05,9.697654604678974e-05
-3.465405825409107e-05,1.8739470760920085e-05,1.5592857494084456e-07,-2.3404207240673713e-05,9.533415868645534e-05
-3.1130690331337973e-05,2.345821303606499e-05,-3.4362133192189503e-06,-2.3369422706309706e-05,9.0514135081321e-05
-3.15771576424595e-05,3.385384479770437e-05,-5.654419965139823e-06,-3.978090171585791e-05,8.854857878759503e-05
-3.7588415580103174e-05,4.2828549339901656e-05,-7.206493592093466e-06,-5.9252215578453615e-05,8.80922088981606e-05
-4.156959766987711e-05,5.259402314550243e-05,-7.165293482103152e-06,-7.282773731276393e-05,8.970683848019689e-05
-4.2136278352700174e-05,6.408683839254081e-05,-9.293979019275866e-06,-8.022953988984227e-05,8.495446672895923e-05
-4.324299152358435e-05,7.416459266096354e-05,-1.2086725291737821e-05,-7.952022860990837e-05,7.079477654770017e-05
-4.522396557149477e-05,7.887889660196379e-05,-1.239438552147476e-05,-7.429536344716325e-05,5.90177187405061e-05
-4.827785232919268e-05,6.450513319578022e-05,-9.814522854867391e-06,-6.22777733951807e-05,5.4445179557660595e-05
-4.790158709511161e-05,3.330543768242933e-05,-7.175072823883966e-06,-3.403887603781186e-05,5.5438420531572774e-05
-3.654268948594108e-05,8.87169244379038e-06,-5.900055271013116e-07,-9.237498233005681e-08,5.7247434597229585e-05
-2.1499670765479095e-05,5.922790933254873e-06,1.4601104112443863e-06,2.4610140826553106e-05,5.435490675154142e-05
-9.899626093101688e-06,1.6806032363092527e-05,-8.465477549179923e-06,3.9601451135240495e-05,5.274382419884205e-05
-3.4128747756767552e-06,3.076117718592286e-05,-1.9340064682182856e-05,4.285385875846259e-05,5.357205373002216e-05
1.865716171778331e-06,2.9930422897450626e-05,-2.2465057554654777e-05,3.836080213659443e-05,5.270797191769816e-05
7.861322956159711e-06,3.867240138788475e-06,-1.5981768228812143e-05,3.4087341191479936e-05,5.1139424613211304e-05
7.5056441346532665e-06,-3.1849693186813965e-05,-3.915454271918861e-06,3.344019205542281e-05,4.876091770711355e-05
3.755114335035614e-07,-4.456589158507995e-05,6.028027655702317e-06,3.1328745535574853e-05,5.076047091279179e-05
-8.657136277179234e-06,-2.286288872710429e-05,1.0380977983004414e-05,2.172625499952119e-05,5.440330642159097e-05
-1.527054701000452e-05,9.642233635531738e-06,1.378347042191308e-05,7.673468644497916e-06,5.5927022913238034e-05
-2.225506068498362e-05,3.136891973554157e-05,2.1633037249557674e-05,-5.395987955125747e-06,5.2516028517857194e-05
-2.7756965209846385e-05,4.32567139796447e-05,2.926163506344892e-05,-1.250016885023797e-05,4.7499164793407544e-05
-2.7830461476696655e-05,5.397130371420644e-05,3.3251530112465844e-05,-1.3644610589835793e-05,4.5153487008064985e-05
-2.388724715274293e-05,5.9537997003644705e-05,3.5221997677581385e-05,-1.0888299584621564e-05,4.51712439826224e-05
-2.2625607016379945e-05,6.0896323702763766e-05,3.479651059024036e-05,-8.028874617593829e-06,4.68746293336153e-05
-2.1863745132577606e-05,6.85654376866296e-05,3.405266397749074e-05,-7.646463927812874e-06,4.753174653160386e-05
-1.852744389907457e-05,8.16382234916091e-05,3.466306225163862e-05,-8.910367796488572e-06,4.9430731451138854e-05
-2.085262894979678e-05,8.622129098512232e-05,3.605095116654411e-05,-9.56340863922378e-06,5.284587314235978e-05
-3.2604049920337275e-05,8.203314064303413e-05,3.575632581487298e-05,-1.3054343071416952e-05,5.240909376880154e-05
-4.2192594264633954e-05,7.981968519743532e-05,3.147278039250523e-05,-1.906254874484148e-05,4.744824764202349e-05
-3.891499727615155e-05,7.975051266839728e-05,2.3605925889569335e-05,-2.1668767658411525e-05,4.4730131776304916e-05
-2.6451267331140116e-05,6.889193173265085e-05,1.9741646610782482e-05,-2.1201480194577016e-05,4.7850931878201663e-05
-1.7744756405591033e-05,4.875396189163439e-05,2.4059079805738293e-05,-2.3476304704672657e-05,5.290146145853214e-05
-2.64663412963273e-05,3.2895433832891285e-05,3.11264448100701e-05,-2.991311157529708e-05,5.3224375733407214e-05
-4.277045445633121e-05,2.5726729290909134e-05,3.2230429496848956e-05,-3.764392022276297e-05,5.3818188462173566e-05
-4.927711052005179e-05,1.786619941412937e-05,2.557855077611748e-05,-4.5693101128563285e-05,6.228256097529083e-05
-4.165518475929275e-05,-7.219583721962408e-07,1.4533736248267815e-05,-4.9906797357834876e-05,7.328094216063619e-05
-2.9021754016866907e-05,-3.3037747925845906e-05,7.25186964700697e-06,-4.998145959689282e-05,7.803068729117513e-05
-2.5110151909757406e-05,-7.859824108891189e-05,4.421167432155926e-06,-4.724014797830023e-05,7.764842303004116e-05
-2.345895154576283e-05,-0.00011397474008845165,4.813843474948953e-07,-4.204967990517616e-05,7.528404239565134e-05
-2.0701683752122335e-05,-0.00011393104796297848,-4.4241082832741085e-06,-3.683195973280817e-05,7.483655645046383e-05
-2.307603062945418e-05,-8.024542330531403e-05,-9.706384844321292e-06,-2.9824243028997444e-05,7.690158963669091e-05
-3.006084807566367e-05,-2.9719238227698952e-05,-1.0079711501020938e-05,-2.2168867872096598e-05,8.122670988086611e-05
-3.295671194791794e-05,1.9095223251497373e-05,-6.618026873184135e-06,-1.4007964637130499e-05,8.306765812449157e-05
-2.5811192244873382e-05,5.311450513545424e-05,-4.0280865505337715e-06,-7.851397640479263e-06,8.010125020518899e-05
-1.9532240912667476e-05,6.634125020354986e-05,-1.5257513723554439e-06,-5.887121460546041e-06,7.384493801509961e-05
-2.295655940542929e-05,5.442973269964568e-05,2.943518893516739e-06,-7.3733804129005875e-06,6.454488902818412e-05
-2.997430601681117e-05,2.269760261697229e-05,7.985079719219357e-06,-1.1058443305955734e-05,5.702826092601754e-05
-3.523822670103982e-05,-4.14092301070923e-06,1.0380334060755558e-05,-1.4972927601775154e-05,5.628752478514798e-05
-4.2288123950129375e-05,-9.347262675873935e-06,9.331180990557186e-06,-1.7894339180202223e-05,6.0965001466684043e-05
-5.281600897433236e-05,-2.248513283120701e-06,6.9652023739763536e-06,-1.715126563794911e-05,6.351400952553377e-05
-6.476525595644489e-05,3.6701815133710625e-06,7.159575943660457e-06,-1.4990415365900844e-05,5.9386286011431366e-05
-7.268781337188557e-05,5.442838300950825e-06,1.081992104445817e-05,-1.4889249541738536e-05,4.998095755581744e-05
-7.203393033705652e-05,7.888274012657348e-06,1.1451148566266056e-05,-1.6006768419174477e-05,4.1317223804071546e-05
-6.4184503571596e-05,1.7479216694482602e-05,3.2728707992646378e-06,-1.648806210141629e-05,3.472177195362747e-05
-5.822738239658065e-05,2.6559229809208773e-05,-5.646134013659321e-06,-2.3173912268248387e-05,3.062910764128901e-05
-5.556067480938509e-05,2.1054240278317593e-05,-7.003473911026958e-06,-4.582278779707849e-05,2.9185996027081273e-05
-5.239576785243116e-05,8.393215466639958e-06,-5.9608933042909484e-06,-7.822830229997635e-05,3.3493652153993025e-05
-4.93583211209625e-05,1.1910726243513636e-05,-7.3715741564228665e-06,-0.00010154895426239818,4.191313200863078e-05
-4.574588456307538e-05,4.2217710870318115e-05,-6.176732767926296e-06,-0.00010694693628465757,4.71107050543651e-05
-4.084192914888263e-05,6.853527156636119e-05,-4.180007181275869e-06,-9.414624946657568e-05,4.7434881707886234e-05
-3.7933812564006075e-05,7.281463331310079e-05,-2.6474824608158087e-06,-7.047183316899464e-05,4.600437750923447e-05
-3.7072259146953e-05,7.630907202837989e-05,-1.5255195648933295e-06,-3.290995300631039e-05,4.5399490772979334e-05
-2.9338241802179255e-05,8.870076999301091e-05,-9.742407200974412e-07,1.2440767022781074e-05,4.885092857875861e-05
-1.9235911167925224e-05,9.416101966053247e-05,2.7330481771059567e-06,4.4410302507458255e-05,5.101979695609771e-05
-1.4066479707253166e-05,6.929508526809514e-05,7.680453563807532e-06,6.554104038514197e-05,5.137014522915706e-05
-8.914687896321993e-06,3.559236211003736e-05,1.1709845239238348e-05,8.244707714766264e-05,5.3410247346619144e-05
2.3130382942326833e-07,2.8336085961200297e-05,1.2254415196366608e-05,9.167581447400153e-05,5.316903116181493e-05
1.0886097697948571e-05,4.684484883910045e-05,1.2220736607559957e-05,8.66292612045072e-05,5.710388722945936e-05
1.5199439076241106e-05,6.279822991928086e-05,1.3371823115448933e-05,7.392567931674421e-05,6.216751353349537e-05
1.573908593854867e-05,5.5390930356225e-05,1.5767549484735355e-05,6.37780103716068e-05,6.383875734172761e-05
1.2567413250508253e-05,3.3797608921304345e-05,1.498625260865083e-05,5.7021134125534445e-05,6.394604861270636e-05
2.420480768705602e-06,1.6547017366974615e-05,9.385296834807377e-06,4.450405322131701e-05,6.630378629779443e-05
-1.0616144209052436e-05,1.4760155863768887e-05,5.087054432806326e-06,2.3493104890803806e-05,6.960806786082685e-05
-2.2003441699780524e-05,2.063037027255632e-05,3.2511470635654405e-06,5.6418693930027075e-06,6.933378608664498e-05
-3.02694952551974e-05,2.316412610525731e-05,4.18447598349303e-06,-4.349834057393309e-07,6.86126877553761e-05
-3.646093318820931e-05,2.0015175323351286e-05,6.0684401432808954e-06,-3.3868590776364726e-07,7.07974613760598e-05
-4.117434218642302e-05,1.9820239685941488e-05,8.753373549552634e-06,-3.7586116832244443e-06,7.299900607904419e-05
-4.605831054504961e-05,2.9025046387687325e-05,1.0336996638216078e-05,-1.0251473213429563e-05,7.185389404185116e-05
-5.1839877414749935e-05,4.4632848585024476e-05,9.181238056044094e-06,-1.9879387764376588e-05,6.934900738997385e-05
-5.5993907153606415e-05,5.550371133722365e-05,1.5512370055148494e-06,-3.210782233509235e-05,6.874882819829509e-05
-5.180021980777383e-05,5.182074528420344e-05,-1.586004509590566e-05,-3.962449045502581e-05,6.934719567652792e-05
-3.833218215731904e-05,3.7846348277525976e-05,-3.456994818407111e-05,-3.8426867831731215e-05,6.694197509204969e-05
-2.6801522835739888e-05,2.7905831302632578e-05,-4.117245043744333e-05,-3.230794027331285e-05,6.261189264478162e-05
-2.6607352992868982e-05,2.907670750573743e-05,-3.304802885395475e-05,-2.640879938553553e-05,5.774432793259621e-05
-2.972414222313091e-05,3.1273342756321654e-05,-1.602956763235852e-05,-2.184287404816132e-05,5.6121334637282416e-05
-2.4829192625475116e-05,3.008063322340604e-05,1.1101595873697079e-06,-1.7420530639356002e-05,5.724075890611857e-05
-1.1772681318689138e-05,2.868074079742655e-05,1.4182302038534544e-05,-8.02965496404795e-06,5.92800133745186e-05
-4.869719305133913e-06,1.999708911171183e-05,2.3389602574752644e-05,6.250170827115653e-06,6.0781432694057e-05
-1.206538399856072e-05,-8.92621699222218e-07,2.6219260689686053e-05,1.1767114301619586e-05,6.247050623642281e-05
-2.36417145060841e-05,4.028496732644271e-06,1.9800956579274498e-05,1.061490456777392e-05,7.298522541532293e-05
-2.835713530657813e-05,4.180185715085827e-05,9.101790055865422e-06,7.102571089490084e-06,8.132652146741748e-05
-3.0455426895059645e-05,6.243070674827322e-05,1.4660690794698894e-06,1.9627461824711645e-06,7.619612733833492e-05
-2.9613403967232443e-05,4.771516614709981e-05,-2.8368135644996073e-06,-5.314851932780584e-06,6.760965334251523e-05
-1.9597950085881166e-05,6.11130781180691e-06,-4.011907549283933e-06,-1.1194289982086048e-05,6.222189404070377e-05
-1.3087857041682582e-05,-2.0315659639891237e-05,-2.0149132069491316e-06,-1.1301258382445667e-05,6.327724986476824e-05
-1.858105679275468e-05,-6.598239906452363e-06,1.984495611395687e-06,-1.1541530511749443e-05,6.680463411612436e-05
-2.8047039450029843e-05,2.4476586986565962e-05,3.7707764022343326e-06,-1.1748057659133337e-05,6.581164780072868e-05
-2.914954166044481e-05,4.386780710774474e-05,5.225711902312469e-06,-9.266855158784892e-06,6.0245245549594983e-05
-2.2305366655928083e-05,4.8731490096542984e-05,9.300097190134693e-06,-5.603180397883989e-06,5.4634976550005376e-05
-1.685382449068129e-05,4.547063872450963e-05,1.564709236845374e-05,-4.764676305057947e-06,5.262156264507212e-05
-1.8040265786112286e-05,2.5326227842015214e-05,1.8426411770633422e-05,-5.311856057232944e-06,5.664377022185363e-05
-2.3455717382603325e-05,-4.976167815584631e-07,1.6096902982098982e-05,-6.043643679731758e-06,6.304791168076918e-05
-3.032546919712331e-05,-9.682054951554164e-06,1.0086324436997529e-05,-5.788934231532039e-06,6.565733929164708e-05
-3.93024311051704e-05,-4.235353401327302e-07,5.010557742934907e-06,-4.065827852173243e-06,6.319524982245639e-05
-5.1332561270100996e-05,9.95972368400544e-06,2.6470822831470286e-06,-2.844960818038089e-06,6.210078572621569e-05
-6.525708158733323e-05,1.4903065675753169e-05,-1.985481645760956e-07,-3.937473593396135e-06,6.459106225520372e-05
-7.724086026428267e-05,1.9961753423558548e-05,-2.6555285330687184e-06,-4.720384367828956e-06,6.917842983966693e-05
-7.921508949948475e-05,3.0093908208073117e-05,-3.10224640998058e-06,-5.9556659834925085e-06,7.722307782387361e-05
-6.422367732739076e-05,3.882934834109619e-05,-8.099009960460535e-07,-1.00208517324063e-05,8.52538796607405e-05
-3.443183595663868e-05,4.157700459472835e-05,2.321412239325582e-06,-1.1650212400127202e-05,8.625971531728283e-05
3.5608189818958635e-07,3.8088750443421304e-05,5.798724941996625e-06,-7.905420716269873e-06,8.032935875235125e-05
2.6759204047266394e-05,3.345786899444647e-05,7.4567674346326385e-06,-5.209724804444704e-06,7.72792482166551e-05
3.9055696106515825e-05,3.400322384550236e-05,5.682401479134569e-06,-6.428062533814227e-06,7.880044722696766e-05
3.484974877210334e-05,4.302542220102623e-05,3.0174758194334572e-06,-8.38431606098311e-06,7.529652793891728e-05
1.625603727006819e-05,5.415001214714721e-05,1.47334867506288e-06,-9.96259677776834e-06,6.481859600171447e-05
5.704963768948801e-06,6.467775529017672e-05,3.8085120195319178e-06,-1.0733799172157887e-05,5.5481301387771964e-05
2.1806248696520925e-05,7.200115214800462e-05,9.817362297326326e-06,-1.1030172572645824e-05,5.35197978024371e-05
4.5340584620134905e-05,6.677709461655468e-05,1.2278456779313274e-05,-1.4558632756234147e-05,5.451168181025423e-05
4.814527710550465e-05,5.4114414524519816e-05,7.802247637300752e-06,-1.944682480825577e-05,4.932825322612189e-05
3.3944677852559835e-05,4.9115755246020854e-05,3.634854238043772e-06,-2.1681393263861537e-05,4.4935979531146586e-05
2.1320853193174116e-05,5.1702318160096183e-05,1.9223596154915867e-06,-2.2496446035802364e-05,4.288383570383303e-05
1.50727792060934e-05,5.161069202586077e-05,1.1695683310719573e-09,-1.9747645637835376e-05,4.108749271836132e-05
8.156184776453301e-06,4.885262023890391e-05,2.085085810676901e-07,-1.5709361832705326e-05,3.950088284909725e-05
-4.65580114905606e-06,3.917497451766394e-05,8.485329772156547e-07,-1.6006573787308298e-05,4.094182440894656e-05
-1.783213156159036e-05,2.6654663088265806e-05,2.0625925571948756e-06,-1.61255375132896e-05,4.397230804897845e-05
-2.819590190483723e-05,9.728129043651279e-06,1.7016139963743626e-06,-7.862227903387975e-06,4.352400719653815e-05
-3.167133763781749e-05,-1.3947723346063867e-05,3.2920124795055017e-06,3.0712521947862115e-06,3.917051071766764e-05
-2.7061672881245613e-05,-3.063128315261565e-05,4.693701612268342e-06,8.52557786856778e-06,3.3682550565572456e-05
-2.3436881747329608e-05,-2.7514462999533862e-05,4.833360890188487e-06,1.014850931824185e-05,2.7300789952278137e-05
-2.364368447160814e-05,-1.0384948836872354e-05,7.278571956703672e-06,1.2166917258582544e-05,2.0398110791575164e-05
-2.1355315766413696e-05,9.737779691931792e-06,1.1550822819117457e-05,1.3994267646921799e-05,1.6956244508037344e-05
-1.3725752978643868e-05,2.4791153919068165e-05,1.2757342119584791e-05,1.1628681932052132e-05,1.636943852645345e-05
-1.2338296073721722e-05,3.090209429501556e-05,7.602646292070858e-06,2.2022193206794327e-06,9.908534593705554e-06
-2.5915380319929682e-05,3.733626363100484e-05,-2.0538964236038737e-06,-1.2401788808347192e-05,-8.485562830173876e-06
-4.6074175770627335e-05,5.135037281434052e-05,-1.034720116876997e-05,-3.047280006285291e-05,-2.849431439244654e-05
-5.687578959623352e-05,6.362851127050817e-05,-9.654558198235463e-06,-5.057736416347325e-05,-2.5580815417924896e-05
-5.559307101066224e-05,6.128630047896877e-05,-3.0500000320898835e-06,-6.578786997124553e-05,1.4485782230622135e-05
-5.249887180980295e-05,4.630261173588224e-05,3.7931074530206388e-06,-7.341608579736203e-05,7.111753075150773e-05
-5.530904309125617e-05,2.5639597879489884e-05,7.981458111316897e-06,-7.721230940660462e-05,0.00011060947144869715
-6.342421693261713e-05,3.5280284009786556e-06,1.0956599908240605e-05,-7.478664338123053e-05,0.00011710485705407336
-6.465219485107809e-05,-1.0523309356358368e-05,9.094383131014183e-06,-6.761052645742893e-05,0.00010581524111330509
-5.4624520998913795e-05,-8.434484698227607e-06,6.86711700836895e-06,-5.643644544761628e-05,9.57063675741665e-05
-3.742080298252404e-05,3.7964191506034695e-06,4.895592610409949e-06,-3.493496114970185e-05,9.243755630450323e-05
-2.7674897864926606e-05,5.8108139455725905e-06,-1.0504775218578288e-06,-1.263584999833256e-05,9.22176186577417e-05
-3.9716509490972385e-05,-6.322528861346655e-06,-4.09152846714278e-07,1.5599811149513698e-06,9.478986612521112e-05
-5.5444259487558156e-05,-7.841169463063125e-06,2.361075075896224e-06,7.193167675723089e-06,0.000102477781183552
-5.5130134569481015e-05,2.8158676741441013e-06,8.905445270102064e-07,6.708339697070187e-06,0.00010845391807379201
-4.2773899622261524e-05,1.4463595107372385e-05,-1.8391705225440091e-06,9.158151215160615e-07,0.00010710093920351937
-3.5750028473557904e-05,2.8121174182160757e-05,-6.471630058513256e-06,-1.0995903721777722e-05,0.00010274377564201131
-3.761598054552451e-05,4.289163553039543e-05,-9.449377103010193e-06,-2.3429358407156542e-05,9.612274880055338e-05
-4.0667429857421666e-05,5.218078877078369e-05,-9.513357326795813e-06,-3.568868123693392e-05,8.739499025978148e-05
-4.29729770985432e-05,5.478570164996199e-05,-7.796982572472189e-06,-4.937491030432284e-05,7.797624130034819e-05
-4.73183135909494e-05,5.305025479174219e-05,-4.759324383485364e-06,-5.868101288797334e-05,6.937013677088544e-05
-4.6844907046761364e-05,5.079550464870408e-05,4.126686235395027e-06,-5.3905041568214074e-05,6.145557563286275e-05
-3.96858922613319e-05,4.909539711661637e-05,1.4409440154850017e-05,-3.2645566534483805e-05,5.354682434699498e-05
-3.19261962431483e-05,4.691357389674522e-05,2.2409818484447896e-05,-4.029622687085066e-06,4.6649212890770286e-05
-2.6364767109043896e-05,4.323357279645279e-05,2.7595102437771857e-05,1.6683181456755847e-05,4.101202648598701e-05
-2.6219226128887385e-05,3.5557277442421764e-05,2.764838791335933e-05,2.0201114239171147e-05,4.120970334042795e-05
-2.9769906177534722e-05,2.8195614504511468e-05,2.3911305106594227e-05,1.2740286365442444e-05,5.2100855100434273e-05
-3.683532850118354e-05,2.6046829589176923e-05,2.0312918422860093e-05,9.072561624634545e-06,5.8515099226497114e-05
-4.767436985275708e-05,2.516066342650447e-05,1.8774882846628316e-05,1.8655375242815353e-05,4.0610739233670756e-05
-5.74188852624502e-05,2.201305869675707e-05,2.0005949409096502e-05,3.902172829839401e-05,4.508744495979045e-06
-5.783577580587007e-05,2.104847226291895e-05,2.4673561711097136e-05,5.963498551864177e-05,-2.4555793061153963e-05
-5.190679439692758e-05,1.9708426407305524e-05,3.104994902969338e-05,7.115329935913906e-05,-3.384979208931327e-05
-4.8260601033689454e-05,1.1264440217928495e-05,3.602859578677453e-05,7.15003625373356e-05,-2.6209028874291107e-05
-4.519667345448397e-05,-1.1570239621505607e-05,3.7406745832413435e-05,6.303015834419057e-05,3.262026211814373e-06
-3.0383316698134877e-05,-3.30786824633833e-05,3.101052425336093e-05,5.37383348273579e-05,6.834477972006425e-05
-1.3292394214658998e-05,-2.2355137843987904e-05,1.8908251149696298e-05,4.752398672280833e-05,0.00015329380403272808
-5.123923074279446e-06,8.887358490028419e-06,1.5584477296215482e-05,4.2808762373169884e-05,0.0001987370487768203
-4.624509074346861e-06,3.075017957598902e-05,1.996408354898449e-05,3.73107468476519e-05,0.0001724156318232417
-1.2019388123007957e-05,3.5072840546490625e-05,2.229339224868454e-05,2.5479741452727467e-05,0.00011241796164540574
-1.955678453668952e-05,3.1673105695517734e-05,2.038938873738516e-05,9.074219633475877e-06,6.596015737159178e-05
-2.0974188373656943e-05,3.5493594623403624e-05,1.4456808457907755e-05,-8.659312698000576e-06,4.3532771087484434e-05
-1.8926928532891907e-05,4.236081076669507e-05,5.534363026526989e-06,-2.3482214601244777e-05,4.6245811972767115e-05
-2.0755376681336202e-05,4.775968045578338e-05,-6.05467604941623e-08,-3.375658343429677e-05,5.743210931541398e-05
-2.6571322450763546e-05,5.27352312928997e-05,-2.6092034204339143e-06,-3.949530946556479e-05,6.456149276345968e-05
-3.3401647669961676e-05,5.990101635688916e-05,-6.843440587545047e-06,-4.2735046008601785e-05,6.0663744079647586e-05
-3.776872836169787e-05,6.79170188959688e-05,-9.174318620353006e-06,-4.4167652959004045e-05,4.982638347428292e-05
-3.776585072046146e-05,7.475366874132305e-05,-6.746327471773839e-06,-4.05611026508268e-05,4.364556662039831e-05
-3.492338510113768e-05,7.842862396501005e-05,-6.525467597384704e-06,-3.604349330998957e-05,4.841804184252396e-05
-2.7687772671924904e-05,7.537478086305782e-05,-5.66137987334514e-06,-3.606535756262019e-05,5.8763675042428076e-05
-2.0058676454937086e-05,6.484747427748516e-05,-3.6909177651978098e-06,-4.408417589729652e-05,6.316530198091641e-05
-1.8788045053952374e-05,5.204014087212272e-05,-3.2138732422026806e-06,-5.692175545846112e-05,6.189751729834825e-05
-2.227989534731023e-05,4.604102286975831e-05,-3.851901510643074e-06,-7.13603149051778e-05,5.873564077774063e-05
-2.5521807401673868e-05,4.5092681830283254e-05,-5.383611551224021e-06,-8.606682968093082e-05,5.658997906721197e-05
-2.957750257337466e-05,4.332481330493465e-05,-6.279951776377857e-06,-9.223297820426524e-05,5.3760937589686364e-05
-3.60756712325383e-05,3.791811104747467e-05,-3.818560799118131e-06,-7.97592947492376e-05,5.0118262151954696e-05
-4.0578943298896775e-05,2.9246290068840608e-05,3.163785095239291e-06,-5.545652311411686e-05,4.611850090441294e-05
-3.8336002035066485e-05,1.347859506495297e-05,7.08849256625399e-06,-3.37135570589453e-05,4.401908881845884e-05
-2.6878869903157465e-05,-7.321909379243152e-06,6.372515144903446e-06,-1.4106081835052464e-05,4.588674346450716e-05
-8.650535164633766e-06,-2.4489832867402583e-05,1.472969643145916e-06,1.5469113350263797e-05,5.0826973165385425e-05
1.3213939382694662e-05,-2.685546496650204e-05,-4.520149104791926e-06,5.527998291654512e-05,5.116977990837768e-05
2.9124730644980446e-05,-7.681789611524437e-06,-2.5056519916688558e-06,8.310064731631428e-05,4.6927991206757724e-05
2.9863062081858516e-05,1.9736322428798303e-05,2.7647463411994977e-06,8.427341526839882e-05,4.4929813157068565e-05
1.8958815417136066e-05,2.9115708457538858e-05,-4.497067493502982e-06,7.001604535616934e-05,5.0226146413479e-05
-1.6075003941296018e-06,1.0564664080447983e-05,-1.7654461771599017e-05,4.84517659060657e-05,5.920768671785481e-05
-2.5569119316060096e-05,-1.991332828765735e-05,-1.8009484847425483e-05,1.9251441699452698e-05,6.284029223024845e-05
-3.437817940721288e-05,-2.3794855223968625e-05,-8.07149444881361e-06,-8.26328141556587e-06,5.6862583733163774e-05
-2.5100442144321278e-05,4.560730303637683e-06,-2.5596127670723945e-06,-2.8400812880136073e-05,4.92179678985849e-05
-1.517976306786295e-05,2.9345248549361713e-05,-1.9238420918554766e-06,-4.0810245991451666e-05,4.5542168663814664e-05
-1.7024653061525896e-05,3.855067552649416e-05,-6.192790351633448e-07,-4.92867075081449e-05,4.6384560846490785e-05
-1.8051872757496312e-05,4.847414675168693e-05,4.434637958183885e-06,-6.236327317310497e-05,4.9528374802321196e-05
-8.99551832844736e-06,6.336616206681356e-05,1.2779478311131243e-05,-7.008206739556044e-05,5.5827713367762044e-05
-3.294719590485329e-06,6.53081588097848e-05,2.2973323211772367e-05,-5.817342025693506e-05,5.624883124255575e-05
-1.1917855772480834e-05,5.392941238824278e-05,3.1421608582604676e-05,-3.624795499490574e-05,3.9720260247122496e-05
-3.577872121240944e-05,4.322965833125636e-05,3.492918403935619e-05,-1.9669172615977004e-05,1.5155352230067365e-05
-6.170244159875438e-05,4.2671701521612704e-05,3.519633901305497e-05,-9.624744052416645e-06,-3.0521894132107263e-06
-8.014982449822128e-05,4.643604552256875e-05,3.681298767332919e-05,-3.0392329790629447e-06,-1.0619242857501376e-05
-9.678172500571236e-05,4.86033022752963e-05,3.829381239484064e-05,-3.7811881270499725e-07,-1.0371032658440527e-05
-0.00010857002052944154,4.969736619386822e-05,3.6006775189889595e-05,-2.9539532988565043e-06,-2.6697209705162095e-06
-9.842032159212977e-05,4.608846575138159e-05,2.87366819975432e-05,-1.3050883353571407e-05,1.0023677532444708e-05
-6.458922871388495e-05,3.534428105922416e-05,1.7800930436351337e-05,-2.920751467172522e-05,2.2210186216398142e-05
-2.241519177914597e-05,2.5662056941655464e-05,8.281584996439051e-06,-4.7303510655183345e-05,2.9385679226834327e-05
8.081263331405353e-06,2.686023617570754e-05,2.2514252577821026e-06,-6.584214861504734e-05,3.0463086659437977e-05
9.12056475499412e-06,3.112032572971657e-05,-2.166769263567403e-06,-8.68516435730271e-05,2.9870167054468766e-05
-1.574601628817618e-05,2.299887091794517e-05,-7.647880920558237e-06,-0.00010649174510035664,4.127858119318262e-05
-4.463015284272842e-05,-1.5924041463222238e-07,-1.510378388047684e-05,-0.00011524806177476421,7.261558494064957e-05
-5.7465880672680214e-05,-3.079211455769837e-05,-2.217250585090369e-05,-0.00010810366075020283,0.00012091942335246131
-4.823907511308789e-05,-5.7252713304478675e-05,-2.397395837760996e-05,-8.452890324406326e-05,0.0001662885188125074
-2.8767315598088317e-05,-7.285267201950774e-05,-1.8093251128448173e-05,-4.5093820517649874e-05,0.0001863095094449818
-1.8843011275748722e-05,-7.850352267269045e-05,-2.2420344976126216e-06,-4.3058872734036413e-07,0.0001780422608135268
-2.2034042558516376e-05,-6.478135765064508e-05,1.0175772331422195e-05,3.498250225675292e-05,0.00015173354768194258
-3.1312567443819717e-05,-3.5474691685521975e-05,1.061086277331924e-05,5.293828508001752e-05,0.00012242187222000211
-3.558287789928727e-05,1.2390085402103068e-08,8.791831533017103e-06,6.093254341976717e-05,0.0001074049505405128
-1.7555505110067315e-05,3.848822962027043e-05,9.507883987680543e-06,6.413124356186017e-05,0.00011566313332878053
1.4914293387846556e-05,8.518621325492859e-05,1.1481600267870817e-05,6.315945211099461e-05,0.000133361536427401
3.474191180430353e-05,0.00012843594595324248,8.005379640962929e-06,5.987110853311606e-05,0.00013088519335724413
3.161200584145263e-05,0.0001467599067837,-3.6125779843132477e-06,4.869878102908842e-05,0.0001029240811476484
2.0862562450929545e-05,0.00013830498210154474,-1.7898541045724414e-05,3.566972372937016e-05,6.982505146879703e-05
2.1075706172268838e-05,0.00011545164306880906,-2.3937358491821215e-05,2.3259241061168723e-05,4.9749847676139325e-05
2.8338372430880554e-05,0.00010601896065054461,-2.1726844352087937e-05,1.4199715224094689e-05,4.5970711653353646e-05
3.262777681811713e-05,0.00010588351869955659,-1.705669637885876e-05,1.0020483387052082e-05,4.9317150114802644e-05
2.320843850611709e-05,9.633089212002233e-05,-1.1798732884926721e-05,8.674095624883194e-06,5.106575190438889e-05
-2.8302529244683683e-06,7.66365192248486e-05,-1.0364822628616821e-05,5.47154786545434e-06,4.957138662575744e-05
-3.889997969963588e-05,5.07048680447042e-05,-7.406331860693172e-06,2.0758034224854782e-06,4.7753146645845845e-05
-7.46576624806039e-05,1.726776645227801e-05,-2.335370709261042e-06,1.2320716678004828e-06,4.8356858314946294e-05
-9.526866779197007e-05,-1.7531820049043745e-05,2.179622242692858e-06,1.5651447711206856e-06,5.2116800361545756e-05
-9.261301602236927e-05,-3.751959229703061e-05,6.081002538849134e-06,2.232052338513313e-06,5.878720185137354e-05
-7.284968887688592e-05,-3.998939064331353e-05,7.966252269397955e-06,2.7698524718289264e-06,6.323063280433416e-05
-5.4539046686841175e-05,-3.607769758673385e-05,3.2541238397243433e-06,3.5166031011613086e-06,6.177686736918986e-05
-4.756265479954891e-05,-3.3502219594083726e-05,-5.488324859470595e-06,1.6003859855118208e-06,5.362028969102539e-05
-4.711858491646126e-05,-3.475034827715717e-05,-1.3574466720456257e-05,-3.4920242342195706e-06,4.231617276673205e-05
-4.923060259898193e-05,-3.508568261167966e-05,-1.9806724594673142e-05,-1.1358385563653428e-05,3.53150098817423e-05
-5.32861340616364e-05,-2.2908649043529294e-05,-1.849675209086854e-05,-1.699072527117096e-05,3.5894157917937264e-05
-5.222564868745394e-05,-6.70486315357266e-06,-8.230553248722572e-06,-1.760378472681623e-05,4.17076371377334e-05
-4.3117823224747553e-05,4.832825197809143e-07,2.6548423193162307e-06,-1.572627115820069e-05,4.4997526856604964e-05
-3.617947004386224e-05,6.2497247199644335e-06,8.475544746033847e-06,-1.564506055728998e-05,4.4241969590075314e-05
-3.890169318765402e-05,1.8808699678629637e-05,1.1710551007126924e-05,-1.6646616131765768e-05,4.6691871830262244e-05
-4.04073616664391e-05,3.170164563925937e-05,1.4913382983650081e-05,-1.726905429677572e-05,5.230357055552304e-05
-3.3626947697484866e-05,3.2051626476459205e-05,1.8081878806697205e-05,-1.762053943821229e-05,5.460486499941908e-05
-2.280426815559622e-05,1.7882171960081905e-05,1.9026274458155967e-05,-1.965635601663962e-05,5.883865014766343e-05
-2.4575861061748583e-06,-3.5736106838157866e-06,1.701607834547758e-05,-2.6021954909083433e-05,7.096790795912966e-05
2.2970125428400934e-05,-2.121201396221295e-05,1.3409562598099e-05,-3.0032088034204207e-05,8.298927423311397e-05
3.5555687645683065e-05,-1.3386316823016386e-05,1.2044228242302779e-05,-2.6755255021271296e-05,8.246329525718465e-05
3.033587199752219e-05,1.9033466742257588e-05,1.0674220902728848e-05,-2.1932351955911145e-05,7.426607771776617e-05
1.4002087482367642e-05,4.610277756000869e-05,8.967038411356043e-06,-2.0568591935443692e-05,6.499941082438454e-05
2.814026345276943e-07,5.558506018132903e-05,8.505433470418211e-06,-2.5961498977267183e-05,5.736489038099535e-05
-5.707550826627994e-06,5.798757774755359e-05,1.2450154827092774e-05,-3.1422972824657336e-05,5.612145832856186e-05
-7.964029464346822e-06,6.24740423518233e-05,1.910388164105825e-05,-3.235436452087015e-05,5.892296394449659e-05
-7.784155059198383e-06,6.864544411655515e-05,2.251965634059161e-05,-2.7569923986447975e-05,6.182086508488283e-05
-8.648534276289865e-06,7.117248605936766e-05,2.023472734435927e-05,-2.2010535758454353e-05,6.627415859838948e-05
-1.1831493793579284e-05,7.288888446055353e-05,1.4825817743258085e-05,-1.7770093108993024e-05,7.279772398760542e-05
-1.521275862614857e-05,7.325922342715785e-05,1.1887903383467346e-05,-1.3459285582939629e-05,7.770137017359957e-05
-1.7229669538210146e-05,7.034969894448295e-05,1.4028069927007891e-05,-1.0261014722345863e-05,7.737986015854403e-05
-1.8205846572527662e-05,6.765808211639524e-05,1.6566196791245602e-05,-8.988328772829846e-06,7.15527858119458e-05
-1.8908576748799533e-05,6.676250632153824e-05,1.4491597539745271e-05,-9.403408512298483e-06,6.529593520099297e-05
-1.9612594769569114e-05,6.497426511486992e-05,9.150297955784481e-06,-1.0563627256487962e-05,6.567128002643585e-05
-2.169468098145444e-05,6.073293843655847e-05,4.673966486734571e-06,-1.3283584848977625e-05,6.862519512651488e-05
-2.6097606678376906e-05,5.893634806852788e-05,2.006766635531676e-06,-1.4289679711509962e-05,6.626749382121488e-05
-3.202466177754104e-05,5.85275593039114e-05,7.259446306306927e-07,-1.1323798389639705e-05,5.7153105444740504e-05
-3.820846541202627e-05,5.4087235184852034e-05,1.464513275095669e-06,-5.20036064699525e-06,4.2728028347482905e-05
-4.2692226998042315e-05,4.486670877668075e-05,2.8541860501718475e-06,-1.2152373756180168e-06,2.704052531043999e-05
-4.520123911788687e-05,3.691550227813423e-05,2.6371872081654146e-06,-3.280651128534373e-07,1.5936837371555157e-05
-5.090952254249714e-05,3.298215597169474e-05,-1.0277231865529757e-07,-4.61995841760654e-06,1.2070318916812539e-05
-5.225071799941361e-05,2.9528628147090785e-05,1.5624344484876929e-07,-1.1708985766745172e-05,1.7692058463580906e-05
-3.4518539905548096e-05,2.105401290464215e-05,3.6851388358627446e-06,-1.6498308468726464e-05,3.166740498272702e-05
-9.98744053504197e-06,1.0944687346636783e-05,7.445253231708193e-06,-1.8900915165431798e-05,4.331060335971415e-05
4.163289759162581e-06,-3.947612015053892e-07,1.0249923434457742e-05,-1.7037067664205097e-05,4.7702684241812676e-05
-1.1989031918346882e-06,-8.843921932566445e-06,1.1372547305654734e-05,-1.2911841622553766e-05,4.570755118038505e-05
-1.598021299287211e-05,-7.930815627332777e-06,9.016890544444323e-06,-1.3284651686262805e-05,4.613769124262035e-05
-2.1315912817954086e-05,1.05129379335267e-06,5.024631718697492e-06,-1.6570947991567664e-05,5.900360338273458e-05
-2.326605681446381e-05,1.4441172424994875e-05,5.711337053071475e-06,-1.7264830603380688e-05,7.902370271040127e-05
-2.4493660021107644e-05,2.2590138542000204e-05,1.132880788645707e-05,-1.4618183740822133e-05,9.32504772208631e-05
-2.7963453248958103e-05,2.6316207367926836e-05,1.3800290616927668e-05,-1.39133699121885e-05,9.260432852897793e-05
-3.371883212821558e-05,2.9158269171603024e-05,1.0610374374664389e-05,-9.898721145873424e-06,7.99083209130913e-05
-3.314706918899901e-05,3.600743366405368e-05,8.957853424362838e-06,-2.9680959414690733e-06,6.847939948784187e-05
-3.142783680232242e-05,4.4866319512948394e-05,9.920579032041132e-06,3.34908440891013e-06,5.927009624429047e-05
-3.271344758104533e-05,5.040431642555632e-05,9.28966619540006e-06,8.94261847861344e-06,5.049900937592611e-05
-3.426781404414214e-05,5.085616066935472e-05,2.587202061477001e-06,1.0686531823012047e-05,4.4921995140612125e-05
-3.488962465780787e-05,4.8371915909228846e-05,-7.786965397826862e-06,7.422478120133746e-06,4.280286157154478e-05
-3.45090011251159e-05,4.567009455058724e-05,-1.2831289495807141e-05,-6.709426259021711e-08,4.396024451125413e-05
-3.219672362320125e-05,4.4541109673446044e-05,-1.107701700675534e-05,-6.705948180751875e-06,4.7735909902257845e-05
-3.114769788226113e-05,4.464665107661858e-05,-7.453248144884128e-06,-7.917348739283625e-06,5.110498022986576e-05
-3.34046853822656e-05,3.9270038541872054e-05,-5.917596809013048e-06,-4.022690063720802e-06,5.1503848226275295e-05
-3.6081153666600585e-05,2.500347363820765e-05,-3.275378503531101e-06,-1.2321314670771244e-06,4.951245500706136e-05
-3.907398058800027e-05,9.632251021685079e-06,3.0416854315262754e-06,-1.2791267636202974e-06,4.9125748773803934e-05
-4.239676127326675e-05,4.790777893504128e-06,1.1365449609002098e-05,-3.6287590319261653e-06,5.4390966397477314e-05
-4.203619755571708e-05,7.978233952599112e-06,1.760827944963239e-05,-5.589973625319544e-06,6.324312562355772e-05
-3.759158425964415e-05,9.988893907575402e-06,1.8425704183755443e-05,-6.256538654270116e-06,6.923609907971695e-05
-3.832452421193011e-05,7.282938440766884e-06,1.530154622741975e-05,-8.670575880387332e-06,6.797018431825563e-05
-4.762329990626313e-05,3.8315897654683795e-06,1.4151538380247075e-05,-1.3850516552338377e-05,6.24439271632582e-05
-5.2765844884561375e-05,6.047923761798302e-07,1.378287015540991e-05,-1.675245766818989e-05,5.8571698900777847e-05
-4.670310590881854e-05,-2.647923338372493e-06,1.139138748840196e-05,-1.698783307801932e-05,5.663647607434541e-05
-4.0394374082097784e-05,-1.7070709873223677e-05,1.0185027349507436e-05,-1.5051332411530893e-05,4.808211815543473e-05
-3.9609814848518e-05,-3.696465864777565e-05,1.0261574061587453e-05,-1.4244666090235114e-05,3.315490539534949e-05
-3.602502329158597e-05,-2.383748687861953e-05,1.2187218089820817e-05,-1.4595339962397702e-05,2.528659751988016e-05
