-5.548335593630327e-06,2.789241261780262e-05,7.847319466236513e-06,-2.2411975805880502e-05,5.712669371860102e-05
-9.22418348636711e-06,2.528481672925409e-05,7.054978141241008e-06,-2.3381389837595634e-05,5.446941213449463e-05
-7.037572686385829e-06,2.3571956262458116e-05,8.670017450640444e-06,-2.489898179192096e-05,5.624942423310131e-05
-5.5270729717449285e-06,2.067348214040976e-05,1.026552217808785e-05,-2.630314338603057e-05,5.927441452513449e-05
-6.911391665198607e-06,1.9038456230191514e-05,9.406639946973883e-06,-2.5097340767388232e-05,6.055747144273482e-05
-9.779912943486124e-06,1.8565799109637737e-05,6.624572961300146e-06,-2.2421318135457113e-05,5.9387311921454966e-05
-1.5230207282002084e-05,2.133530142600648e-05,3.094839257755666e-06,-2.2480113329947926e-05,5.767797483713366e-05
-1.919274654937908e-05,2.972874244733248e-05,-1.2852565305365715e-06,-2.2255342628341168e-05,5.76823040319141e-05
-2.2832096874481067e-05,3.372802893863991e-05,-3.595816224333248e-06,-2.0910070816171356e-05,5.9319052525097504e-05
-2.6334262656746432e-05,3.0091630833339877e-05,-3.3948740565392654e-06,-1.896582944027614e-05,5.904188583372161e-05
-2.9917695428594016e-05,2.640504317241721e-05,-2.703230848055682e-06,-1.7332278730464168e-05,5.626377969747409e-05
-3.142711648251861e-05,2.513152503524907e-05,7.888546065260016e-07,-1.7517835658509284e-05,5.4995212849462405e-05
-2.9895745683461428e-05,2.3611641154275276e-05,3.532503342285054e-06,-1.584912752150558e-05,5.412024256656878e-05
-2.9168195396778174e-05,2.0303623387007974e-05,1.2909914630654384e-06,-1.2125159628340043e-05,5.5612556025153026e-05
-2.996567309310194e-05,1.849588079494424e-05,-2.7278940706310095e-06,-9.963049706129823e-06,5.5670949222985655e-05
-2.8089531042496674e-05,1.844542202888988e-05,-4.634056040231371e-06,-1.02164040072239e-05,5.2984138164902106e-05
-2.367064189456869e-05,1.8703229216043837e-05,-4.296377483115066e-06,-1.2245930520293768e-05,5.209210212342441e-05
-2.279335785715375e-05,1.975300801859703e-05,-1.2178063570900122e-06,-1.5479557987418957e-05,5.1758896006504074e-05
-2.458763810864184e-05,2.211817445640918e-05,3.7073727980896365e-06,-1.826419793360401e-05,5.024151687393896e-05
-2.296485581609886e-05,2.556690014898777e-05,5.679638888977934e-06,-1.8633594663697295e-05,5.057963790022768e-05
-1.7792286598705687e-05,2.882320222852286e-05,5.035622507421067e-06,-1.817263000702951e-05,5.3847146773478016e-05
-1.6746698747738265e-05,3.122068665106781e-05,6.168582331156358e-06,-1.8085038391291164e-05,5.5883640015963465e-05
-1.925199103425257e-05,3.0112427339190617e-05,8.399044418183621e-06,-1.7529533579363488e-05,5.404882904258557e-05
-2.2037242160877213e-05,2.6738753149402328e-05,5.925345249124803e-06,-1.3893103641748894e-05,5.233539923210628e-05
-2.3133814465836622e-05,2.6837418772629462e-05,4.191922016616445e-06,-9.64638456935063e-06,5.216599311097525e-05
-2.164303259633016e-05,3.161319546052255e-05,7.5777356869366486e-06,-7.191611985035706e-06,4.6725817810511217e-05
-1.8221828213427216e-05,3.461823507677764e-05,9.719788977236021e-06,-6.6202524067193735e-06,3.788217145483941e-05
-2.030560608545784e-05,3.225148975616321e-05,1.0893235412368085e-05,-8.225362762459554e-06,3.845077662845142e-05
-3.318989183753729e-05,3.1580184440827e-05,1.0408304660813883e-05,-8.261397852038499e-06,4.772182001033798e-05
-4.571915269480087e-05,3.641119837993756e-05,5.035504727857187e-06,-7.09621326677734e-06,5.8714216720545664e-05
-4.8803714889800176e-05,3.886552804033272e-05,8.103217510324612e-07,-7.084167009452358e-06,6.74783150316216e-05
-4.378420999273658e-05,3.68663968401961e-05,-1.5163521993599716e-07,-5.553491519094678e-06,7.216096855700016e-05
-3.892216773238033e-05,3.308744999230839e-05,-8.586770832152979e-07,-4.4622470340982545e-07,7.719382847426459e-05
-3.6565914342645556e-05,3.123468195553869e-05,-2.3521015464211814e-06,3.920040853699902e-06,7.6896401878912e-05
-3.197937257937156e-05,3.2201583962887526e-05,-1.2276299230506993e-06,5.901998520130292e-06,7.519673818023875e-05
-2.8444403142202646e-05,3.0104049073997885e-05,5.310282631398877e-06,7.080373507051263e-06,7.493246084777638e-05
-2.7568867153604515e-05,2.4746863346081227e-05,9.31004797166679e-06,5.784714176115813e-06,7.478915358660743e-05
-2.384996332693845e-05,2.2433076082961634e-05,8.203341167245526e-06,3.610973408285645e-06,7.547394488938153e-05
-1.7326607121503912e-05,2.444129677314777e-05,5.86932037549559e-06,-1.0511502068766276e-07,7.803419430274516e-05
-1.2459923709684517e-05,2.6145144147449173e-05,4.815643023903249e-06,-6.51093751002918e-06,8.209414954762906e-05
-1.4058568012842443e-05,2.6835674361791462e-05,5.074057753517991e-06,-1.585533573233988e-05,8.265086216852069e-05
-2.218044210167136e-05,2.731500717345625e-05,4.5885590225225314e-06,-2.3692840841249563e-05,7.524940156145021e-05
-2.966502870549448e-05,2.6509793315199204e-05,3.3050309866666794e-06,-2.572556877566967e-05,6.189705163706094e-05
-3.0533159588230774e-05,2.268952266604174e-05,3.937663848319062e-07,-2.459287497913465e-05,5.2601924835471436e-05
-2.519808549550362e-05,1.7457632566220127e-05,-3.278791837146855e-06,-2.4209002731367946e-05,5.019866512157023e-05
-1.7633308743825182e-05,1.7002839740598574e-05,-3.7159079511184245e-06,-2.2797705241828226e-05,5.420841625891626e-05
-1.3686754755326547e-05,2.4329749066964723e-05,9.487865213486657e-07,-1.8310523955733515e-05,6.110673712100834e-05
-1.7092757843784057e-05,3.187778565916233e-05,6.046028829587158e-06,-1.1888206245203037e-05,6.503248732769862e-05
-2.2908650862518698e-05,3.3196465665241703e-05,7.713987542956602e-06,-4.302897195884725e-06,6.351205956889316e-05
-2.9188036933192052e-05,2.98434060823638e-05,5.906446403969312e-06,1.0772983216611465e-07,6.206738180480897e-05
-3.495617056614719e-05,2.6288249500794336e-05,2.3341842734225793e-06,-2.306637497895281e-06,6.562507769558579e-05
-3.486222340143286e-05,2.8435235435608774e-05,4.4117248876318627e-07,-1.0055924576590769e-05,7.173602352850139e-05
-2.8453401682781987e-05,3.420098073547706e-05,1.2366500641292077e-06,-1.7784223018679768e-05,7.173819176387042e-05
-1.9247527234256268e-05,3.552064299583435e-05,1.7477525489084655e-06,-1.7484593627159484e-05,6.475313421105966e-05
-1.0330604709452018e-05,2.9277196517796256e-05,3.340637931614765e-06,-9.014604074764065e-06,5.5825574236223474e-05
-5.633135060634231e-06,2.458313974784687e-05,6.203964858286781e-06,-4.5410197344608605e-06,5.08046468894463e-05
-7.701118192926515e-06,2.7245130695519038e-05,6.16327906755032e-06,-5.958961537544383e-06,5.2345192671054974e-05
-1.3094860150886234e-05,2.763153133855667e-05,-1.182843675451295e-06,-8.880239874997642e-06,5.1589111535577103e-05
-2.0195799152133986e-05,2.2246718799578957e-05,-1.810353023756761e-05,-1.293564673687797e-05,4.6085031499387696e-05
-3.011790249729529e-05,1.678889566392172e-05,-3.32336567225866e-05,-1.8836057279258966e-05,4.226102464599535e-05
-3.708516669576056e-05,1.7744623619364575e-05,-3.640180148067884e-05,-2.2937498215469532e-05,4.432113200891763e-05
-3.6506924516288564e-05,2.3110678739612922e-05,-3.098389061051421e-05,-2.427615072519984e-05,5.1854323828592896e-05
-3.060398012166843e-05,2.4040638891165145e-05,-2.3906901333248243e-05,-2.35229581448948e-05,6.242204835871235e-05
-2.5024626665981486e-05,1.960007648449391e-05,-1.7156640751636587e-05,-1.9281300410511903e-05,6.898162246216089e-05
-2.4588798623881303e-05,1.4455521522904746e-05,-8.738179531064816e-06,-1.2513110050349496e-05,6.896900595165789e-05
-2.7285805117571726e-05,1.3297758414410055e-05,1.9209455786040053e-06,-5.90834360991721e-06,6.648555427091196e-05
-2.8354490495985374e-05,1.4716320038132835e-05,1.3314237548911478e-05,-2.5409967747691553e-06,6.184109224705026e-05
-2.657117511262186e-05,1.8610751794767566e-05,2.280501757923048e-05,-2.3038082872517407e-06,5.684920324711129e-05
-2.3004902686807327e-05,2.5854515115497634e-05,2.495137414371129e-05,-2.5551451017236104e-06,5.2859410061500967e-05
-2.0720366592286155e-05,3.3013755455613136e-05,2.2282751160673797e-05,-3.109980752924457e-06,5.0619586545508355e-05
-2.1281137378537096e-05,3.799112164415419e-05,2.2755906684324145e-05,-4.788444584846729e-06,5.043523196945898e-05
-2.4558565201004967e-05,4.122746759094298e-05,2.708271495066583e-05,-4.629511749953963e-06,5.070588304079138e-05
-2.949363988591358e-05,4.051860742038116e-05,2.9477729185600765e-05,-1.5616461723766406e-06,5.068134123575874e-05
-3.1815179681871086e-05,3.670353180496022e-05,2.6852758310269564e-05,3.725909323293308e-07,5.069421240477823e-05
-2.8180500521557406e-05,3.4354583476670086e-05,2.2577938580070622e-05,-1.9019628325622762e-06,5.084015356260352e-05
-1.9429246094659902e-05,3.326741716591641e-05,1.98533853108529e-05,-5.049095761933131e-06,5.1561914006015286e-05
-9.957068868970964e-06,3.3049182093236595e-05,1.9356639313627966e-05,-7.094704415067099e-06,5.264078208710998e-05
-8.034222446440253e-06,3.1788764317752793e-05,1.9212739061913453e-05,-7.84323947300436e-06,5.292594505590387e-05
-1.5036762306408491e-05,2.8418287911335938e-05,1.8978718799189664e-05,-6.3987663452280685e-06,5.4057876695878804e-05
-2.288468567712698e-05,2.946139284176752e-05,1.818230521166697e-05,-4.928847374685574e-06,5.59159780095797e-05
-2.6831547074834816e-05,3.210010618204251e-05,1.6528667401871644e-05,-7.312875823117793e-06,5.525477172341198e-05
-2.7740106816054322e-05,2.195696288254112e-05,1.0919012311205734e-05,-1.0362763532612007e-05,5.1147966587450355e-05
-2.741167372732889e-05,4.287522642698605e-06,1.0645090924299438e-06,-1.1001167877111584e-05,4.6158111217664555e-05
-2.384314575465396e-05,1.9011068843610701e-06,-1.076541138900211e-06,-1.0317096894141287e-05,4.647124660550617e-05
-1.930465441546403e-05,1.6675890947226435e-05,2.790310873024282e-06,-9.43015947996173e-06,5.21973634022288e-05
-2.0472638425417244e-05,2.9917555366409943e-05,2.656992364791222e-06,-8.708380846655928e-06,5.489521936397068e-05
-2.7039495762437582e-05,3.4796128602465615e-05,1.538876290396729e-06,-9.68235053733224e-06,5.494614379131235e-05
-3.331779589643702e-05,3.581933560781181e-05,1.3576900528278202e-06,-1.242971484316513e-05,5.5589178373338655e-05
-3.8023503293516114e-05,4.149591040913947e-05,6.955918365747493e-07,-1.1795182217611e-05,5.739996413467452e-05
-4.315258047427051e-05,4.6457476855721325e-05,4.88698617573391e-07,-8.352944860234857e-06,5.837110438733362e-05
-4.8187946958933026e-05,4.335277481004596e-05,1.6865172938196338e-06,-5.083698852104135e-06,5.678311936208047e-05
-5.053685890743509e-05,3.619130438892171e-05,2.71759859060694e-06,-5.2783148021262605e-06,5.737329047406092e-05
-5.1090675697196275e-05,2.7674133889377117e-05,4.734906724479515e-06,-7.985837328305934e-06,6.09879607509356e-05
-4.9201778892893344e-05,2.123053855029866e-05,8.008290933503304e-06,-8.892374353308696e-06,6.348906754283234e-05
-4.649627226172015e-05,2.4187318558688276e-05,9.125583346758503e-06,-9.312839210906532e-06,6.133647548267618e-05
-4.665717642637901e-05,3.6576409911504015e-05,6.6150137172371615e-06,-9.811629752221052e-06,5.699162284145132e-05
-5.083425639895722e-05,4.717162300948985e-05,2.1668463432433782e-06,-8.107451321848202e-06,5.608320134342648e-05
-5.4128377087181434e-05,4.978408833267167e-05,-4.551193626411987e-07,-6.8538906816684175e-06,5.987710028421134e-05
-5.300663906382397e-05,4.679677658714354e-05,7.465600901923608e-07,-8.309325494337827e-06,6.149388354970142e-05
-4.8216043069260195e-05,4.410441397340037e-05,2.0414477148733567e-06,-9.298667464463506e-06,5.973208317300305e-05
-3.84081358788535e-05,4.3694599298760295e-05,1.5657425365134259e-06,-7.241251751111122e-06,6.097514778957702e-05
-1.935749241965823e-05,4.307343260734342e-05,6.139864581200527e-07,-2.9067389277770417e-06,6.485750054707751e-05
4.843843271373771e-06,4.1250514186685905e-05,9.102846547648369e-07,2.59525165802188e-07,6.823630246799439e-05
2.2056599846109748e-05,3.929869126295671e-05,1.609235482646909e-06,3.412911155464826e-06,6.940457387827337e-05
3.119540269835852e-05,3.59744590241462e-05,2.505681322872988e-06,6.617583494517021e-06,6.878480780869722e-05
3.3482832805020735e-05,3.016073242179118e-05,5.098365818412276e-06,4.954907581122825e-06,6.823166768299416e-05
2.8732007194776088e-05,2.1207564714131877e-05,6.782497166568646e-06,3.5044101309722464e-07,6.857899279566482e-05
1.494703428761568e-05,1.236240041180281e-05,5.090347258374095e-06,-2.795776254060911e-06,6.683375977445394e-05
-8.24525977805024e-06,1.4102752174949273e-05,4.660152171709342e-06,-5.797244284622138e-06,6.501511234091595e-05
-2.7179121389053762e-05,2.2032385459169745e-05,5.8988666751247365e-06,-8.740165867493488e-06,6.438184209400788e-05
-3.274619302828796e-05,2.1561732864938676e-05,7.125513093342306e-06,-7.898039257270284e-06,6.075016426621005e-05
-3.7383568269433454e-05,1.6290143321384676e-05,8.064833309617825e-06,-2.737459453783231e-06,5.7009765441762283e-05
-4.834666833630763e-05,1.2090455129509792e-05,6.957185178180225e-06,5.515381644727313e-07,5.7270051911473274e-05
-6.327230221359059e-05,1.1835551049443893e-05,4.867762527283048e-06,-4.07134621127625e-07,5.9103222156409174e-05
-7.165801071096212e-05,2.1343896150938235e-05,1.5481348327739397e-06,-4.269438704795903e-06,6.162030331324786e-05
-7.011881098151207e-05,3.42743587680161e-05,2.604434484965168e-06,-9.721461537992582e-06,6.385587766999379e-05
-6.794299406465143e-05,3.977043888880871e-05,3.819190169451758e-06,-1.110393804992782e-05,6.56243646517396e-05
-6.862109148642048e-05,4.258170156390406e-05,-1.566043465572875e-06,-5.239135134615935e-06,6.585263326996937e-05
-6.883706373628229e-05,4.3491767428349704e-05,-1.1939177966269199e-05,2.677321617738926e-07,6.402889266610146e-05
-6.346184090944007e-05,4.171852197032422e-05,-1.667946889938321e-05,-4.036481016100879e-07,6.477619172073901e-05
-5.361053263186477e-05,3.967047086916864e-05,-1.349657577520702e-05,-4.281269866623916e-06,6.649900751654059e-05
-4.334598270361312e-05,3.9341524825431406e-05,-6.453157311625546e-06,-6.83171037962893e-06,6.84637125232257e-05
-3.3018135582096875e-05,3.9307866245508194e-05,2.8277659112063702e-06,-8.890793651517015e-06,6.704356201225892e-05
-2.1393665520008653e-05,3.5557288356358185e-05,1.1467172953416593e-05,-1.2566993973450735e-05,6.14038435742259e-05
-1.0211343578703236e-05,2.734972622420173e-05,1.9008399249287322e-05,-1.3866664630768355e-05,5.6276297982549295e-05
2.6841163958124525e-07,1.575056739966385e-05,2.505836346244905e-05,-1.0444032341183629e-05,5.562489968724549e-05
9.8455120678409e-06,6.390454018401215e-06,2.7984944608760998e-05,-7.391660346911522e-06,5.7720364566193894e-05
1.521803733339766e-05,3.980625024269102e-06,2.6771725970320404e-05,-7.955042747198604e-06,5.9374604461481795e-05
1.5248494491970632e-05,6.606480837945128e-06,2.663949635461904e-05,-8.588871423853561e-06,5.9632413467625156e-05
1.5176444321696181e-05,6.4615055634931196e-06,2.4901133656385355e-05,-1.0294821549905464e-05,5.949119440629147e-05
1.5651607100153342e-05,-1.9514519067342917e-07,2.231617872894276e-05,-1.2460719517548569e-05,6.299177766777575e-05
1.2644234629988205e-05,-1.1778693078667857e-05,2.0471632524277084e-05,-1.3165161362849176e-05,6.645552639383823e-05
6.76069203109364e-06,-1.5091848581505474e-05,1.4843649296381045e-05,-1.583521589054726e-05,6.915253470651805e-05
-2.9849445581930922e-06,-6.276945896388497e-06,6.809695605625166e-06,-1.672482721915003e-05,7.193104102043435e-05
-1.5526873539783992e-05,8.202201229323691e-08,4.766259735333733e-06,-1.2782012163370382e-05,7.457805622834712e-05
-2.8146705517428927e-05,2.805557414831128e-06,9.566158951201942e-06,-9.816201782086864e-06,7.021056808298454e-05
-3.397565524210222e-05,1.1284247193543706e-05,1.409850301570259e-05,-6.347456292132847e-06,6.578112515853718e-05
-3.075626227655448e-05,2.3695318304817192e-05,1.2698092177743092e-05,-3.7178315324126743e-06,6.891490193083882e-05
-2.593105091364123e-05,3.663590541691519e-05,6.380413651640993e-06,-3.559239985406748e-06,6.915652193129063e-05
-2.623018554004375e-05,4.117707067052834e-05,9.998134373745415e-07,-4.451540007721633e-06,6.815219967393205e-05
-3.232822928112e-05,3.9865379221737385e-05,1.061926809597935e-06,-8.083719876594841e-06,6.493202818091959e-05
-3.670494697871618e-05,3.7478195736184716e-05,2.3381298888125457e-06,-1.0950623618555255e-05,6.062573447707109e-05
-3.956237924285233e-05,3.191392534063198e-05,3.0079922908043955e-07,-1.2677352060563862e-05,5.788481212221086e-05
-3.929646481992677e-05,2.979273267555982e-05,-2.5402880510227988e-06,-1.2703310858341865e-05,5.878371302969754e-05
-3.696713611134328e-05,3.262438258389011e-05,-6.076335466786986e-06,-1.2179381883470342e-05,6.300208042375743e-05
-3.412506339373067e-05,3.576667950255796e-05,-9.593748472980224e-06,-1.3750436664849985e-05,6.437981937779114e-05
-3.3480166166555136e-05,3.5357032174943015e-05,-7.868757165852003e-06,-1.6499818229931407e-05,6.211164145497605e-05
-3.7573365261778235e-05,3.2493146136403084e-05,-2.6809861992660444e-06,-1.9404935301281512e-05,5.85607995162718e-05
-4.082688974449411e-05,2.9036746127530932e-05,6.67090382933111e-09,-2.3522508854512125e-05,5.595016045845114e-05
-3.999055115855299e-05,2.557350308052264e-05,2.1541272872127593e-06,-2.871445394703187e-05,5.032402987126261e-05
-3.599612318794243e-05,2.2680009351461194e-05,4.641947271011304e-06,-3.130565892206505e-05,4.408250970300287e-05
-3.1415893317898735e-05,2.2533844457939267e-05,5.545789008465363e-06,-2.948439032479655e-05,4.555143095785752e-05
-2.663386840140447e-05,2.7155023417435586e-05,3.492503992674756e-06,-2.4982407921925187e-05,5.349613638827577e-05
-2.2795795302954502e-05,3.626279067248106e-05,2.299739890077035e-06,-1.8437616745359264e-05,5.96398240304552e-05
-2.1251660655252635e-05,4.123057078686543e-05,3.056648665733519e-06,-1.270844313694397e-05,6.279654189711437e-05
-2.1239175111986697e-05,3.838182601612061e-05,3.372870196471922e-06,-1.184783013741253e-05,6.399481208063662e-05
-1.8942526367027313e-05,3.430275683058426e-05,3.539430281307432e-06,-1.556208917463664e-05,6.320964894257486e-05
-1.6810536180855706e-05,3.383841612958349e-05,4.28147222919506e-06,-2.270337972731795e-05,6.023439345881343e-05
-1.5460418580914848e-05,3.612310683820397e-05,4.0980235098686535e-06,-2.9998287573107518e-05,5.792067167931236e-05
-1.666244315856602e-05,3.8664664316456765e-05,1.7350662346871104e-06,-3.402332367841154e-05,5.894981950405054e-05
-2.1794156054966152e-05,4.092969174962491e-05,1.3957154010313388e-07,-3.300390744698234e-05,6.22443767497316e-05
-2.6834735763259232e-05,4.253787483321503e-05,1.7487951708972105e-06,-3.0936673283576965e-05,6.416925316443667e-05
-2.806830161716789e-05,3.984270733781159e-05,3.3908784189407015e-06,-2.9116850782884285e-05,6.235030014067888e-05
-3.100982939940877e-05,3.6863781133433804e-05,2.2214255750441225e-06,-2.7554771804716438e-05,6.134495924925432e-05
-3.301695687696338e-05,3.838918200926855e-05,-5.0440206678104e-07,-2.7551681341719814e-05,5.940045230090618e-05
-3.239510260755196e-05,4.071470539201982e-05,-2.7436424261395587e-06,-2.5466340957791544e-05,5.380291258916259e-05
-3.718596417456865e-05,4.147604340687394e-05,-3.035725285371882e-06,-2.2405774871003814e-05,5.071868872619234e-05
-3.9352933526970446e-05,3.8569760363316163e-05,-2.005333215038263e-07,-1.8257507690577768e-05,5.273717033560388e-05
-3.8453148590633646e-05,3.654984902823344e-05,4.862089099333389e-06,-1.4453334188146982e-05,5.503126885741949e-05
-3.596530223148875e-05,3.60968588211108e-05,6.058536200725939e-06,-1.4690464922750834e-05,5.5546108342241496e-05
-3.3569456718396395e-05,3.827361433650367e-05,4.3669524529832415e-06,-1.4714839380758349e-05,5.3560255764750764e-05
-2.98722879961133e-05,4.363409607321955e-05,3.3315079690510174e-06,-1.1710499165928923e-05,4.992062531528063e-05
-2.53150883509079e-05,4.3637457565637305e-05,2.617276777527877e-06,-7.81237304181559e-06,4.745319893117994e-05
-2.496534216334112e-05,3.65962041541934e-05,3.7322006392059848e-06,-8.260498361778446e-06,4.6757606469327584e-05
-2.705155566218309e-05,3.215171454939991e-05,7.92444552644156e-06,-1.1873108633153606e-05,4.835751678911038e-05
-3.069869489991106e-05,3.6784011172130704e-05,1.257750773220323e-05,-1.3734024832956493e-05,5.050457548350096e-05
-3.382417344255373e-05,4.269039345672354e-05,1.3438806490739807e-05,-1.3241058695712127e-05,5.203202090342529e-05
-3.485018532956019e-05,4.1354640416102484e-05,1.1254653145442717e-05,-1.0625066352076828e-05,5.204952321946621e-05
-3.382474824320525e-05,3.4367993066553026e-05,9.974876775231678e-06,-4.929911483486649e-06,5.1303017244208604e-05
-3.204195309081115e-05,2.8304768420639448e-05,1.0377983926446177e-05,2.191115299865487e-06,4.981003803550266e-05
-2.9581726266769692e-05,2.52883110078983e-05,9.378209142596461e-06,5.089102614874719e-06,4.866388189839199e-05
-2.6450707082403824e-05,2.3933846023282968e-05,6.048075192666147e-06,3.789418485666829e-07,4.744358011521399e-05
-2.21605077967979e-05,2.449538624205161e-05,4.98193458042806e-06,-9.052071618498303e-06,4.5830111048417166e-05
-1.6449794202344492e-05,2.8028660381096415e-05,1.1161653674207628e-05,-1.3938271877123043e-05,4.8283829528372735e-05
-1.208237426908454e-05,3.327398735564202e-05,1.7459282389609143e-05,-1.3597733413917013e-05,5.344655073713511e-05
-1.535014780529309e-05,3.862898302031681e-05,1.7772852515918203e-05,-1.0086859219882172e-05,5.560580757446587e-05
-2.271131961606443e-05,3.9259193727048114e-05,1.5365099898190238e-05,-8.255358807218727e-06,5.2532664994942024e-05
-2.6256318960804492e-05,3.630927676567808e-05,1.454454286431428e-05,-9.84383950708434e-06,5.331456122803502e-05
-2.331952055101283e-05,3.5273311368655413e-05,1.4645331248175353e-05,-6.221321200428065e-06,5.934593718848191e-05
-1.838537173171062e-05,3.407862095627934e-05,1.1966742931690533e-05,1.631617237762839e-06,6.125857180450112e-05
-1.7081641999538988e-05,3.15469442284666e-05,7.962462404975668e-06,3.503844709484838e-06,6.09548733336851e-05
-1.6920761481742375e-05,2.8115735403844155e-05,5.202522970648715e-06,2.069708898488898e-06,6.148684042273089e-05
-2.103835140587762e-05,2.6534162316238508e-05,4.290850029065041e-06,3.129320475636632e-06,6.340284744510427e-05
-3.140397893730551e-05,2.661676990101114e-05,2.948629798993352e-06,1.4082920642977115e-06,6.491758540505543e-05
-4.0209288272308186e-05,2.5505954909021966e-05,3.1170868624030845e-06,3.5158843729732325e-06,6.318358646240085e-05
-4.207311576465145e-05,2.6704834453994408e-05,4.563481979857897e-06,6.830017809988931e-06,6.011318328091875e-05
-3.8429432606790215e-05,2.9623490263475105e-05,4.418561729835346e-06,7.46259047446074e-06,5.550758942263201e-05
-3.260629091528244e-05,3.055459092138335e-05,2.9558063943113666e-06,8.674753189552575e-06,5.3603511332767084e-05
-2.2947790057514794e-05,3.0928204068914056e-05,1.3628487067762762e-06,9.562523700878955e-06,5.453886478790082e-05
-1.3574906915891916e-05,2.8350519642117433e-05,-7.394508827474056e-08,8.008857548702508e-06,5.615854388452135e-05
-1.0239885341434274e-05,2.213214975199662e-05,-3.5316580238031747e-07,4.8286938181263395e-06,5.537693505175412e-05
-1.2953107216162607e-05,1.9296030586701818e-05,8.333371965818515e-07,4.485625140659977e-06,5.35169274371583e-05
-1.8791804905049503e-05,2.0392659280332737e-05,2.0944421521562617e-06,5.626092843158403e-06,5.502501153387129e-05
-2.476307963661384e-05,1.976387284230441e-05,2.574224026830052e-06,6.994950581429293e-06,5.787983536720276e-05
-3.0098713978077285e-05,1.7340607882943004e-05,1.8164042785429046e-06,4.992952653992688e-06,5.982374568702653e-05
-3.58002980647143e-05,1.77160636667395e-05,1.1831298252218403e-06,2.0428967673069565e-06,6.083845073590055e-05
-4.3344381992938e-05,2.0667846911237575e-05,9.56931557993812e-07,7.096755325619597e-07,5.951122511760332e-05
-4.9831844080472365e-05,2.2732134311809205e-05,5.94270765930105e-08,9.107058076551766e-07,5.73149009142071e-05
-5.159777356311679e-05,2.457008304190822e-05,-8.557951787224738e-07,2.35646120927413e-06,5.5748903832864016e-05
-4.691193316830322e-05,2.5846544303931296e-05,-6.460794566010009e-08,4.254802206560271e-06,5.398939538281411e-05
-3.923999611288309e-05,2.4150889657903463e-05,6.726689321112644e-07,4.775316483573988e-06,5.630407031276263e-05
-3.0384248020709492e-05,2.0356939785415307e-05,-3.128558034859452e-07,3.68420546692505e-06,5.992690785205923e-05
-2.1607915186905302e-05,1.8692215235205367e-05,-7.632234542143124e-07,5.104900537844514e-07,5.963924195384607e-05
-2.0989835320506245e-05,2.265821603941731e-05,3.5298926377436146e-06,-4.350312792666955e-06,5.5948261433513835e-05
-3.323385681142099e-05,2.9006938348175026e-05,7.181709406722803e-06,-8.191732376872096e-06,5.716261875932105e-05
-5.038824019720778e-05,3.186985486536287e-05,8.497540875396226e-06,-7.640446710865945e-06,6.196904723765329e-05
-6.171284621814266e-05,2.99014263873687e-05,8.061320841079578e-06,-8.880281711753923e-06,6.395133095793426e-05
-5.884710481041111e-05,3.0064960810705088e-05,7.159137112466851e-06,-1.2613450053322595e-05,6.646363181062043e-05
-4.8186997446464375e-05,2.9855234970455058e-05,6.786086487409193e-06,-1.5142867596296128e-05,6.806617602705956e-05
-3.545945219229907e-05,1.9062168576056138e-05,5.8592740970198065e-06,-1.941568189067766e-05,6.810991908423603e-05
-1.9432673070696183e-05,1.0250046216242481e-05,7.93661911302479e-06,-2.3700187739450485e-05,6.818386464146897e-05
-5.077799869468436e-06,1.2888096534879878e-05,9.848976333159953e-06,-2.3482023607357405e-05,6.857832340756431e-05
1.0112500604009256e-05,2.235039573861286e-05,9.158344255411066e-06,-1.940746915352065e-05,6.84555052430369e-05
2.2951118808123283e-05,3.438470957917161e-05,4.371349859866314e-06,-1.81184532266343e-05,6.63291648379527e-05
2.782401134027168e-05,4.213519423501566e-05,1.975072564164293e-06,-1.7695760107017122e-05,6.541739276144654e-05
2.3951859475346282e-05,4.204938159091398e-05,5.792798674519872e-06,-1.8630120393936522e-05,6.76020426908508e-05
1.1881671525770798e-05,3.689892400871031e-05,9.2006321210647e-06,-1.8586044461699203e-05,6.979166937526315e-05
-2.584377625680645e-06,3.31565533997491e-05,8.685996363055892e-06,-1.758943653840106e-05,7.027552055660635e-05
-1.3336530173546635e-05,3.259703953517601e-05,9.142127964878455e-06,-1.4905931493558455e-05,6.990837573539466e-05
-1.7077474694815464e-05,3.2240739528788254e-05,1.3008600944885984e-05,-1.1782855835917871e-05,6.806751480326056e-05
-1.715452890493907e-05,3.287881554570049e-05,1.6127098206197843e-05,-1.3063342521490995e-05,6.394792580977082e-05
-1.722262823022902e-05,3.4063774364767596e-05,1.4791387002333067e-05,-1.603703094588127e-05,5.766187314293347e-05
-1.758281905495096e-05,3.208160705980845e-05,8.58040129969595e-06,-1.675484236329794e-05,5.306878301780671e-05
-1.7775826563593e-05,2.5286595700890757e-05,1.972025302166003e-06,-1.6381218301830813e-05,4.980040102964267e-05
-1.828049607865978e-05,1.489133956056321e-05,-1.6145267522915674e-07,-1.58421098603867e-05,4.684503437601961e-05
-2.030851464951411e-05,7.734556675131898e-06,3.139076397928875e-06,-1.4002218449604698e-05,4.763941979035735e-05
-2.4489696443197317e-05,1.3052405847702175e-05,8.484004865749739e-06,-1.4157238183543086e-05,5.334510933607817e-05
-3.1810814107302576e-05,2.6334459107602015e-05,1.494788648415124e-05,-1.7243068214156665e-05,5.765476817032322e-05
-4.261984577169642e-05,3.475331322988495e-05,1.8896767869591713e-05,-2.1064552129246294e-05,5.863267870154232e-05
-5.133214654051699e-05,3.075251152040437e-05,1.7570862837601453e-05,-2.4981569367810152e-05,5.884864731342532e-05
-5.706787487724796e-05,2.133035013685003e-05,1.2557699847093318e-05,-2.836273233697284e-05,5.859433804289438e-05
-5.933846114203334e-05,1.9127732230117545e-05,9.085432793654036e-06,-2.779875649139285e-05,5.823060200782493e-05
-5.512445932254195e-05,2.039262471953407e-05,9.352972483611666e-06,-2.448714258207474e-05,5.794359094579704e-05
-4.7765992349013686e-05,2.1119960365467705e-05,8.581615475122817e-06,-2.3039683583192527e-05,5.847457578056492e-05
-4.137253199587576e-05,2.5049361283890903e-05,7.676148925384041e-06,-2.2712654754286632e-05,5.863637852598913e-05
-3.33704701915849e-05,2.900690378737636e-05,8.58248404256301e-06,-1.967420212167781e-05,5.7231085520470515e-05
-2.382588354521431e-05,2.9137981982785277e-05,1.0819189810717944e-05,-1.407004219800001e-05,5.518674515769817e-05
-2.08756209758576e-05,2.8763186492142268e-05,1.1866319255204871e-05,-1.2350060387689155e-05,5.438689186121337e-05
-2.559819222369697e-05,2.7982645406154916e-05,9.732015314511955e-06,-1.660154521232471e-05,5.438335574581288e-05
-3.153560101054609e-05,2.9435926990117878e-05,5.4137390179676e-06,-2.1460889911395498e-05,5.598706047749147e-05
-2.795372529362794e-05,3.1428451620740816e-05,-1.8955240648210747e-06,-2.5538165573379956e-05,5.787486952613108e-05
-1.9173967302776873e-05,3.0023826184333302e-05,-7.147273663576925e-06,-2.5290770281571895e-05,5.8264929975848645e-05
-1.1429393452999648e-05,2.4961718736449257e-05,-7.977039786055684e-06,-2.327156653336715e-05,5.6647564633749425e-05
-5.924740435148124e-06,1.999934102059342e-05,-5.379501544666709e-06,-2.3231566956383176e-05,5.7551729696569964e-05
-2.989683025589329e-06,1.920539580169134e-05,-2.3924169454403454e-06,-2.6052222892758437e-05,5.878759839106351e-05
-4.5627243707713205e-06,2.0244049665052444e-05,-1.592585817888903e-06,-2.9701515813940205e-05,5.742476787418127e-05
-1.3357235729927197e-05,2.2198655642569065e-05,5.078422304904961e-07,-2.9378912586253136e-05,5.818670251755975e-05
-2.846639290510211e-05,2.57074243563693e-05,3.9895235204312485e-06,-2.6719533707364462e-05,6.23444066150114e-05
-4.270754288882017e-05,3.107111479039304e-05,6.312054665613687e-06,-2.6045225240522996e-05,6.352822674671188e-05
-4.596954022417776e-05,3.473339893389493e-05,7.2705920501903165e-06,-2.4690541977179237e-05,5.892280023545027e-05
-3.785543594858609e-05,3.218936763005331e-05,9.950497769750655e-06,-1.991511817323044e-05,5.405434058047831e-05
-2.7302916350890882e-05,2.5632574761402793e-05,1.3901166312280111e-05,-1.5906201952020638e-05,5.3591189498547465e-05
-2.2151643861434422e-05,1.9984878235845827e-05,1.547394276713021e-05,-1.294524463446578e-05,5.385987969930284e-05
-2.3031358068692498e-05,1.581074138812255e-05,1.3675525224243756e-05,-1.1588056622713339e-05,5.149390926817432e-05
-2.785361539281439e-05,1.6023222997318953e-05,1.0457059943291824e-05,-1.3008042515139095e-05,5.282999700284563e-05
-3.1587780540576205e-05,2.0319625036790967e-05,8.043422894843388e-06,-1.3359741387830582e-05,5.573296584771015e-05
-3.30645743815694e-05,2.2136609914014116e-05,7.715189894952346e-06,-1.006181901175296e-05,5.482472261064686e-05
-3.127907984890044e-05,2.3137698008213192e-05,7.665876182727516e-06,-6.166264029161539e-06,5.335860623745248e-05
-2.740649324550759e-05,2.8672082407865673e-05,6.754431069566635e-06,-4.442007139005e-06,5.1272170821903273e-05
-2.4514138203812763e-05,3.309742169221863e-05,2.0025797766720643e-06,-6.168544132378884e-06,4.863339563598856e-05
-2.4495968318660744e-05,2.9614880986628123e-05,-2.9526688649639254e-06,-5.408473953139037e-06,4.813608029508032e-05
-1.732896635076031e-05,2.7967013011220843e-05,-4.187146714684786e-06,-2.23160191126226e-06,4.789694139617495e-05
-8.932499440561514e-06,3.061126699321903e-05,-2.8680753985099727e-06,2.050314378720941e-06,5.287720705382526e-05
-6.939300874364562e-06,3.138474858133122e-05,-2.572201310613309e-06,5.513104042620398e-06,5.817343480885029e-05
-5.642501946567791e-06,3.093112536589615e-05,-4.055234967381693e-06,8.028455340536311e-06,5.724813308916055e-05
-6.318805390037596e-06,2.8001006285194308e-05,-1.5275446685336647e-06,1.0375152669439558e-05,5.518947364180349e-05
-6.092088824516395e-06,2.4690556529094465e-05,1.4579700291506015e-06,7.072795597196091e-06,5.6250868510687724e-05
-2.6613329282554332e-06,2.349499482079409e-05,2.8561148610606324e-06,3.0194792088877875e-06,5.937230889685452e-05
5.078471986053046e-06,2.4251043214462698e-05,9.784812391444575e-07,2.3975144358701073e-06,6.227386620594189e-05
1.2379025065456517e-05,2.1699586795875803e-05,-1.6211081401706906e-06,2.759086100923014e-06,6.393684452632442e-05
1.4826768165221438e-05,1.798601988411974e-05,-8.477925348415738e-07,7.041077054736888e-08,6.495539128081873e-05
9.257656529371161e-06,1.3795677659800276e-05,6.844218773949251e-07,-2.71666249318514e-06,6.470049993367866e-05
-2.1053810996818356e-06,1.2091731150576379e-05,3.799597436682234e-07,-2.7356397822586587e-06,6.142396887298673e-05
-1.0671151358110365e-05,1.4644228940596804e-05,-6.558810810020077e-07,-1.6845081063365797e-06,6.127652159193531e-05
-1.3741105249209795e-05,1.9359697034815326e-05,8.200379966183391e-07,-3.1797753763385117e-06,6.474807014456019e-05
-1.8872588043450378e-05,2.1995223505655304e-05,4.403482762427302e-06,-6.490540727099869e-06,6.605180533370003e-05
-2.7670388590195216e-05,2.102483995258808e-05,4.874192654824583e-06,-8.913197234505787e-06,6.167635001474991e-05
-3.374196239747107e-05,1.6785110346972942e-05,4.493117273796088e-07,-1.0395916433481034e-05,5.4731248383177444e-05
-3.483421460259706e-05,1.0290737009199802e-05,-3.3198891742358683e-06,-1.1113103028037585e-05,5.2026425692019984e-05
-3.168818511767313e-05,9.23029347177362e-06,-3.367265662745922e-06,-1.0860160728043411e-05,5.36025436304044e-05
-2.824840157700237e-05,1.5585068467771634e-05,-2.1095352167321835e-06,-8.430001798842568e-06,5.534421870834194e-05
-2.560158827691339e-05,2.6989029720425606e-05,-1.7989306115850923e-06,-5.617140232061502e-06,5.528821930056438e-05
-2.784769094432704e-05,3.7853955291211605e-05,9.785209158508223e-07,-4.278037522453815e-06,5.27874544786755e-05
-3.41658596880734e-05,4.492840525927022e-05,5.676257842424093e-06,-4.220552909828257e-06,5.028812665841542e-05
-3.577584357117303e-05,4.6062941692071036e-05,5.5105192586779594e-06,-4.615872967406176e-06,4.8845922719920054e-05
-3.3360181987518445e-05,4.6305052819661796e-05,6.008208970342821e-07,-2.524125420677592e-06,4.685777457780205e-05
-2.783036688924767e-05,4.696028190664947e-05,-1.138149627877283e-06,1.8517864646128146e-06,4.6188433771021664e-05
-2.4058115741354413e-05,4.732360685011372e-05,1.1131130577268777e-06,-4.2869913841059315e-07,4.67247336928267e-05
-2.786204277072102e-05,4.5124554162612185e-05,2.9212255867605563e-06,-4.540937879937701e-06,4.910421193926595e-05
-2.73470941465348e-05,4.222025381750427e-05,1.4499495364361792e-06,-7.093528438417707e-06,5.510716437129304e-05
-2.342104744457174e-05,4.167958104517311e-05,2.6905308914138004e-07,-8.794580935500562e-06,6.049585863365792e-05
-2.3548322133137845e-05,4.137877840548754e-05,1.1979927876382135e-06,-6.364456112351036e-06,6.456333358073607e-05
-3.020425356226042e-05,4.032630386063829e-05,1.7883153304865118e-06,-5.821908871439518e-06,6.68084467179142e-05
-4.270964564057067e-05,3.7866815546294674e-05,1.6327385310432874e-06,-8.181343218893744e-06,6.509615195682272e-05
-5.354567110771313e-05,3.360372284078039e-05,1.8525845746353298e-07,-8.718114258954301e-06,6.268589640967548e-05
-6.205161480465904e-05,3.133099744445644e-05,-1.3601829778053798e-06,-5.868123025720706e-06,6.495008710771799e-05
-6.405847670976073e-05,3.093810300924815e-05,2.2584136161185597e-07,-1.3981176607558155e-06,6.948876398382708e-05
-6.573955033672974e-05,3.116608422715217e-05,4.5424535528582055e-06,2.7467956442706054e-06,7.006032683420926e-05
-7.033059955574572e-05,3.40511069225613e-05,8.21058165456634e-06,6.42402164885425e-06,6.623771332670003e-05
-6.89639855409041e-05,3.6517369153443724e-05,1.0626679795677774e-05,8.589382559875958e-06,5.9874375438084826e-05
-5.7080538681475446e-05,3.774660945055075e-05,1.117480314860586e-05,5.873728241567733e-06,5.564184903050773e-05
-4.172372428001836e-05,3.892560926033184e-05,1.0478926014911849e-05,1.9430648023899266e-07,5.6000473705353215e-05
-3.183553053531796e-05,3.841781654045917e-05,7.807064321241342e-06,-3.2377595289290184e-06,5.904821591684595e-05
-2.779420537990518e-05,3.415435639908537e-05,4.245915533829248e-06,-3.82894813810708e-06,6.143215432530269e-05
-2.7593096092459746e-05,3.107192969764583e-05,9.253196822101017e-07,-4.741561497212388e-06,6.0467780713224784e-05
-3.082569674006663e-05,3.2895910408115014e-05,1.2606114978552796e-06,-7.735589861113112e-06,5.9136757045052946e-05
-3.474837285466492e-05,3.462614040472545e-05,6.704835868731607e-06,-1.332588362856768e-05,6.035088517819531e-05
-3.33210191456601e-05,2.983099693665281e-05,1.2012099432467949e-05,-1.9739545678021386e-05,6.163532816572115e-05
-2.866841350623872e-05,2.279265936522279e-05,1.3841298823535908e-05,-2.046453118964564e-05,6.257406494114548e-05
-2.8246224246686324e-05,2.0447963834158145e-05,1.40517749969149e-05,-1.5930902009131387e-05,6.372836651280522e-05
-3.5691649827640504e-05,2.4077593479887582e-05,1.4146289686323144e-05,-1.1915429240616504e-05,6.530217069666833e-05
-4.2854295315919444e-05,3.077890505664982e-05,1.3830471289111301e-05,-1.1065399121434893e-05,6.540457252413034e-05
-4.220717528369278e-05,3.149696203763597e-05,1.1765287126763724e-05,-1.2764106941176578e-05,6.34379539405927e-05
-3.48926150763873e-05,2.5368974092998542e-05,7.366803401964717e-06,-1.774758675310295e-05,6.158165342640132e-05
-2.8228832888999023e-05,2.3531029000878334e-05,5.059077011537738e-06,-2.5094963348237798e-05,6.188206316437572e-05
-2.8383075914462097e-05,2.6854599127545953e-05,3.3533731311763404e-06,-2.6153809812967665e-05,6.394913361873478e-05
-3.3229211112484336e-05,2.6560646801954135e-05,3.3484598134236876e-06,-2.184987533837557e-05,6.578690226888284e-05
-3.692439349833876e-05,2.466115438437555e-05,6.992985618126113e-06,-1.6820282326079905e-05,6.550865509780124e-05
-3.946799552068114e-05,2.553788544901181e-05,1.1324873412377201e-05,-1.4013337931828573e-05,6.271532765822485e-05
-4.516546323429793e-05,2.9658491257578135e-05,1.4994133380241692e-05,-1.1042161531804595e-05,6.015202961862087e-05
-4.9591719289310277e-05,3.46830056514591e-05,1.38221603265265e-05,-5.347573733160971e-06,5.817932105856016e-05
-3.980790279456414e-05,3.721212488017045e-05,1.1876798453158699e-05,-6.808964826632291e-06,5.900717951590195e-05
-1.982703724934254e-05,3.600389027269557e-05,1.1901557627425063e-05,-1.3505528841051273e-05,5.9269164921715856e-05
-2.002430846914649e-06,3.1871146347839385e-05,1.085545591195114e-05,-1.5390316548291594e-05,5.840596350026317e-05
7.451033980032662e-06,3.114640639978461e-05,8.66030495672021e-06,-1.2339846762188245e-05,5.798629717901349e-05
9.348950698040426e-06,3.514536001603119e-05,4.368812369648367e-06,-9.179336302622687e-06,5.8983023336622864e-05
7.827697118045762e-06,3.944978743675165e-05,1.5698259403507109e-06,-7.41649319024873e-06,6.409964407794178e-05
3.495567625577678e-06,3.969133467762731e-05,2.1689891127607552e-06,-7.156730134738609e-06,6.738112278981134e-05
-3.3639757930359337e-06,3.545860818121582e-05,4.525600616034353e-06,-1.0206597835349385e-05,6.451119406847283e-05
-1.0388423106633127e-05,2.830802259268239e-05,5.6785579545248765e-06,-1.6222114936681464e-05,6.02743421040941e-05
-1.5647541658836417e-05,2.4853086870280094e-05,5.14017165187397e-06,-2.1204870790825225e-05,6.141291669337079e-05
-2.0744473658851348e-05,2.689294888114091e-05,3.5474547530611744e-06,-2.2184161935001612e-05,6.340287654893473e-05
-2.2958218323765323e-05,2.6240124498144723e-05,2.089435611196677e-06,-2.043202766799368e-05,6.290370220085606e-05
-2.1057354388176464e-05,1.9804441762971692e-05,1.8924712321677362e-06,-1.9994968170067295e-05,6.075970668462105e-05
-1.945515577972401e-05,1.4040234418644104e-05,3.334354232720216e-06,-2.2561765945283696e-05,5.785336179542355e-05
-1.8666112737264484e-05,1.2735044947476126e-05,3.5552495774027193e-06,-2.3799548216629773e-05,5.565675382968038e-05
-1.8115966668119654e-05,1.5256392543960828e-05,9.618717058401671e-07,-2.3037313439999707e-05,5.646421777782962e-05
-2.4433893486275338e-05,1.8167364032706246e-05,-3.8941391267144354e-07,-2.227187178505119e-05,5.990366480546072e-05
-3.5301178286317736e-05,1.8970438759424724e-05,-3.4391769077046774e-07,-2.0134168153163046e-05,6.260295049287379e-05
-4.043313310830854e-05,2.3886617782409303e-05,2.1002338144171517e-06,-1.839155265770387e-05,6.552215199917555e-05
-3.70404522982426e-05,2.939796104328707e-05,4.427814928931184e-06,-2.0712215700768866e-05,6.977078010095283e-05
-3.5056553315371275e-05,3.225387990823947e-05,4.317581897339551e-06,-2.4675029635545798e-05,7.107151759555563e-05
-3.983663918916136e-05,3.447806375334039e-05,2.736634542088723e-06,-2.3606213289895095e-05,7.035132875898853e-05
-4.507245830609463e-05,3.113791535724886e-05,5.029070962336846e-06,-1.7528136595501564e-05,6.983409548411146e-05
-4.808146695722826e-05,2.33626487897709e-05,1.0957584891002625e-05,-1.3732769730268046e-05,6.723209662595764e-05
-4.8598118155496195e-05,1.8749755327007733e-05,1.2541990145109594e-05,-1.3741137081524357e-05,6.575434235855937e-05
-4.42012824350968e-05,2.0008881620015018e-05,1.1137417459394783e-05,-1.53773926285794e-05,6.330823089228943e-05
-4.011240889667533e-05,2.591967859189026e-05,8.224708835768979e-06,-1.6075569874374196e-05,5.868158768862486e-05
-3.9312744775088504e-05,3.168935654684901e-05,6.472220320574706e-06,-1.2205598977743648e-05,5.263467755867168e-05
-3.8029043935239315e-05,3.4063574275933206e-05,7.453621492459206e-06,-7.626674687344348e-06,5.054852590546943e-05
-3.644402022473514e-05,3.422930967644788e-05,1.1161620022903662e-05,-6.9472148425120395e-06,5.3148443839745596e-05
-3.7721561966463923e-05,3.4220589441247284e-05,1.2648149095184635e-05,-8.897120096662547e-06,5.4320738854585215e-05
-3.800458580371924e-05,3.6667763197328895e-05,1.060429622157244e-05,-9.54593087953981e-06,5.290414992487058e-05
-3.0096201953710988e-05,3.990168261225335e-05,8.517388778273016e-06,-9.561171282257419e-06,5.0639289838727564e-05
-1.725351467030123e-05,4.217341847834177e-05,7.0061491896922234e-06,-1.0339365871914197e-05,5.157072519068606e-05
-6.4536466197751e-06,4.441295095602982e-05,7.485903552151285e-06,-1.1883572369697504e-05,5.385861368267797e-05
-6.265628940127499e-07,4.4666525354841724e-05,8.035407518036664e-06,-1.2068074283888564e-05,5.5520991736557335e-05
2.0513334675342776e-06,4.0192469896283e-05,5.842110113007948e-06,-8.951450581662357e-06,5.676992441294715e-05
4.4484927457233425e-06,3.411917350604199e-05,-1.4947951285648742e-06,-6.148447937448509e-06,5.829224028275348e-05
5.129801138537005e-06,3.2045758416643366e-05,-1.3274822777020745e-05,-6.615581696678419e-06,6.0932838096050546e-05
-6.733116038049047e-07,3.3872223866637796e-05,-2.4887740437407047e-05,-9.030361070472281e-06,6.135614967206493e-05
-7.3358305598958395e-06,3.396419560885988e-05,-2.618401776999235e-05,-1.1232453289267141e-05,5.828868961543776e-05
-1.1181479749211576e-05,2.9829254344804212e-05,-1.822637022996787e-05,-1.244542818312766e-05,5.614218025584705e-05
-1.3262324500828981e-05,2.28258559218375e-05,-9.175703780783806e-06,-1.271677956538042e-05,5.65289992664475e-05
-1.339447044301778e-05,1.7348251276416704e-05,-4.2950392753482447e-07,-1.4307037417893298e-05,5.914918438065797e-05
-1.1734276085917372e-05,1.5877934856689535e-05,3.9591991480847355e-06,-1.491110015194863e-05,5.9811729443026707e-05
-8.547295692551415e-06,1.2884960597148165e-05,2.4507614853064297e-06,-1.4850267689325847e-05,6.070360177545808e-05
-8.565426469431259e-06,9.836015124164987e-06,1.945760232047178e-06,-1.3450091500999406e-05,6.143088103272021e-05
-9.15936743695056e-06,1.0227028724330012e-05,4.6624732021882664e-06,-8.772564797254745e-06,6.110489630373195e-05
-1.1190461009391584e-05,1.1384371646272484e-05,1.0875466614379548e-05,-8.064864232437685e-06,5.893896741326898e-05
-1.7976515664486215e-05,1.0343656867917161e-05,1.9696248273248784e-05,-9.203485205944162e-06,5.322420474840328e-05
-2.3657565179746598e-05,1.0954147910524625e-05,2.5513223590678535e-05,-5.324402536643902e-06,5.4174444812815636e-05
-2.8061471311957575e-05,1.3126328667567577e-05,2.889945790229831e-05,-1.375034912598494e-06,6.157699681352824e-05
-3.1821837183088064e-05,1.666201205807738e-05,3.319425377412699e-05,-1.3194343182476587e-06,6.828405457781628e-05
-3.3026266464730725e-05,2.1856512830709107e-05,3.4340013371547684e-05,-1.1263381338721956e-06,6.81422752677463e-05
-3.3683088986435905e-05,2.571707227616571e-05,3.3933756640180945e-05,-2.985067624194926e-07,6.606039096368477e-05
-3.796738019445911e-05,2.7401536499382928e-05,3.155326339765452e-05,-8.522015377820935e-07,6.467899220297113e-05
-4.586551585816778e-05,2.3957976736710407e-05,2.503804353182204e-05,-9.476463560531556e-07,6.095952267060056e-05
-5.484522262122482e-05,1.9788139979937114e-05,1.8508992070565e-05,-1.4636275125212705e-07,5.5951324611669406e-05
-6.0439058870542794e-05,1.9274462829343975e-05,1.2952607903571334e-05,2.951783699245425e-06,5.398760185926221e-05
-5.715980660170317e-05,2.372937888139859e-05,7.5533876042754855e-06,7.279723831743468e-06,5.5736258218530566e-05
-4.892190554528497e-05,2.9854829335818067e-05,2.830280436683097e-06,8.099101250991225e-06,5.7002096582436934e-05
-4.158897354500368e-05,3.444946923991665e-05,-5.909960236749612e-07,4.000104127044324e-06,5.6031247368082404e-05
-3.6612760595744476e-05,3.802791252383031e-05,-5.053679615230067e-06,1.3045529385635746e-06,5.3974654292687774e-05
-3.217123230569996e-05,4.165657446719706e-05,-9.898599273583386e-06,3.0376043014257448e-06,5.413359758676961e-05
-3.0001070626894943e-05,4.3755830120062456e-05,-1.2612797036126722e-05,5.592017259914428e-06,5.590157161350362e-05
-2.971312824229244e-05,4.33132445323281e-05,-1.090050136554055e-05,5.336017693480244e-06,5.694834180758335e-05
-2.7956491976510733e-05,4.0185357647715136e-05,-7.295087470993167e-06,3.681196176330559e-06,5.588090425590053e-05
-2.520088128221687e-05,3.924915654351935e-05,-3.1017823403090006e-06,2.4886305709515e-06,5.643007898470387e-05
-2.322858927072957e-05,4.191677726339549e-05,1.2567174962896388e-06,1.032618911267491e-06,5.7795918110059574e-05
-2.64536192844389e-05,4.032441574963741e-05,7.3171459007426165e-06,-5.137579819347593e-07,5.717993917642161e-05
-3.427985211601481e-05,3.5485474654706195e-05,1.2099150808353443e-05,-2.3254419829754625e-06,5.6623459386173636e-05
-4.052017902722582e-05,3.223481689929031e-05,1.2349536518740933e-05,-2.639915010149707e-06,5.6826054787961766e-05
-4.296181941754185e-05,3.150916381855495e-05,1.1957537026319187e-05,-2.1008579551562434e-06,5.648543083225377e-05
-4.704056846094318e-05,3.065852069994435e-05,1.344685188087169e-05,-2.2492317839351017e-06,5.44457470823545e-05
-5.5946959037100896e-05,3.1604704417986795e-05,1.5751371392980218e-05,-6.4574642237857915e-06,5.0842536438722163e-05
-6.542892515426502e-05,3.213250602129847e-05,1.1105437806691043e-05,-1.0867635864997283e-05,5.0554288463899866e-05
-7.256946992129087e-05,3.1691106414655223e-05,7.80459595262073e-06,-7.392320185317658e-06,5.240731843514368e-05
-7.86626260378398e-05,3.179978739353828e-05,9.946746104105841e-06,-2.7971143481408944e-06,5.127160329720937e-05
-8.439054363407195e-05,2.87027723970823e-05,1.2651458746404387e-05,-2.1224391844043566e-07,4.969368455931544e-05
-7.831428956706077e-05,2.979121018142905e-05,1.6026759112719446e-05,1.441854692529887e-06,5.168377174413763e-05
-5.6930693972390145e-05,3.5727247450267896e-05,1.5880212231422774e-05,-1.091507556338911e-06,5.313771907822229e-05
-3.3439137041568756e-05,4.089291542186402e-05,1.5825393347768113e-05,-2.7021767436963273e-06,5.462217450258322e-05
-1.3806679817207623e-05,4.140252713114023e-05,1.5751575119793415e-05,-6.009915409777022e-07,5.694722494808957e-05
9.121109201259969e-07,3.562483107089065e-05,1.5977177099557593e-05,1.560429041091993e-06,5.713927384931594e-05
8.741954843571875e-06,2.6370167688583024e-05,1.4866805940982886e-05,-6.013604547661089e-07,5.709188917535357e-05
7.96046333562117e-06,1.8537841242505237e-05,1.0445716725371312e-05,-4.7457956497964915e-06,5.8604800869943574e-05
3.7784520827699453e-06,1.7366832253173925e-05,3.3938138130906736e-06,-1.0122843377757818e-05,5.9149493608856574e-05
4.8037527449196205e-06,1.7445201592636295e-05,-1.6459994185424875e-06,-1.2982664884475525e-05,5.7924698921851814e-05
1.338162473984994e-05,1.7135042071458884e-05,-3.607705423291918e-07,-9.237099220626988e-06,5.814136966364458e-05
2.1411831767181866e-05,2.1092349925311282e-05,2.8583992843778105e-06,-3.686755462695146e-06,6.09261442150455e-05
2.268005846417509e-05,3.271743844379671e-05,4.456123406271217e-06,-2.0974439394194633e-06,6.428747292375192e-05
1.973988037207164e-05,4.504815660766326e-05,4.71366138299345e-06,-3.874753474519821e-06,6.503162148874253e-05
1.8003007426159456e-05,4.8273257561959326e-05,4.207330221106531e-06,-7.105302756826859e-06,6.521675095427781e-05
1.909540151245892e-05,4.3959364120382816e-05,3.041318905161461e-06,-1.1581149919948075e-05,6.469993968494236e-05
1.937130218720995e-05,3.616526009864174e-05,2.024301238634507e-06,-1.4030859347258229e-05,6.469180516432971e-05
1.1382741831766907e-05,2.275495535286609e-05,1.266556921564188e-07,-1.567619437992107e-05,6.585204391740263e-05
-3.899598141288152e-06,1.1727905075531453e-05,-8.774999287197716e-07,-1.918606176332105e-05,6.242930248845369e-05
-1.7407333871233277e-05,1.0239119546895381e-05,-6.416975111278589e-07,-2.42213427554816e-05,5.7741814089240506e-05
-2.5278279281337745e-05,1.1318848009977955e-05,8.959797526131297e-08,-2.516138738428708e-05,5.951636194367893e-05
-2.844057780748699e-05,9.350931577500887e-06,-1.9573972167563625e-06,-2.237036096630618e-05,6.318639498203993e-05
-3.0173712730174884e-05,1.037983201968018e-05,-5.493613571161404e-06,-1.9156679627485573e-05,6.30431022727862e-05
-2.7662781576509587e-05,2.2005175196682103e-05,-7.036732768028742e-06,-1.936447551997844e-05,6.054237383068539e-05
-2.2921003619558178e-05,2.9403998269117437e-05,-8.444601007795427e-06,-2.5147737687802874e-05,6.004481838317588e-05
-2.3361202693195082e-05,2.7033926016883925e-05,-9.170697012450546e-06,-3.0221150154829957e-05,5.855013296240941e-05
-3.0773568141739815e-05,2.324076740478631e-05,-7.931869731692132e-06,-2.774974564090371e-05,5.501044142874889e-05
-3.7032074033049867e-05,2.3036029233480804e-05,-7.195894340839004e-06,-2.083377694361843e-05,5.548333137994632e-05
-3.8615253288298845e-05,2.678107557585463e-05,-9.135230357060209e-06,-1.72296458913479e-05,5.6301079894183204e-05
-3.5901637602364644e-05,3.0440114642260596e-05,-1.0079381354444195e-05,-1.8589440514915623e-05,5.541900827665813e-05
-3.323779674246907e-05,2.8918477255501784e-05,-8.676433935761452e-06,-2.1571175238932483e-05,5.507953028427437e-05
-3.4691842301981524e-05,2.6452738893567584e-05,-6.86887142364867e-06,-2.307572322024498e-05,5.378776404540986e-05
-3.437461782596074e-05,2.7912232326343656e-05,-4.567243195197079e-06,-2.5880704924929887e-05,5.5133274145191535e-05
-3.249330256949179e-05,2.5877250664052553e-05,-2.3032782792142825e-06,-2.5945653760572895e-05,5.774579040007666e-05
-2.977873919007834e-05,2.2116475520306267e-05,6.530352720801602e-07,-2.1350217139115557e-05,5.855357085238211e-05
-2.615853190945927e-05,2.4603163183201104e-05,-7.763312623865204e-07,-1.5572371921734884e-05,6.098873927840032e-05
-1.722491106193047e-05,3.192500662407838e-05,-5.425480594567489e-06,-1.0935337741102558e-05,6.719672092003748e-05
-5.894002697459655e-06,3.436610859353095e-05,-6.7826163103745785e-06,-7.826887667761184e-06,7.06479768268764e-05
-1.380136836814927e-06,3.329763421788812e-05,-3.850343546218937e-06,-4.55921508546453e-06,6.77507123327814e-05
-3.872698925988516e-06,3.447938070166856e-05,-1.2024041780023254e-06,-6.690113991680846e-07,6.464286707341671e-05
-5.288208740239497e-06,3.511590330163017e-05,4.452150506040198e-07,1.0681782214305713e-06,6.512409163406119e-05
1.3822789242112776e-06,2.951496935565956e-05,3.4495215004426427e-06,-2.2852996153233107e-06,6.747308361809701e-05
1.016785972751677e-05,2.2296360839391127e-05,6.523725915030809e-06,-7.378402642643778e-06,6.702055543428287e-05
1.075164254871197e-05,1.9573368263081647e-05,8.332691322721075e-06,-9.091865649679676e-06,6.44044266664423e-05
2.877486394936568e-06,2.0758147002197802e-05,1.0508509149076417e-05,-9.800878615351394e-06,6.273184408200905e-05
-1.0461672900419217e-05,2.3349361072178e-05,1.3947882507636677e-05,-1.3044533261563629e-05,5.95945275563281e-05
-2.9684690161957406e-05,2.4523789761587977e-05,1.534599141450599e-05,-1.504117335571209e-05,5.458572195493616e-05
-4.7426576202269644e-05,2.5472629204159603e-05,1.5561208783765323e-05,-1.589686144143343e-05,5.258536839392036e-05
-5.765622336184606e-05,2.522068825783208e-05,1.5554929632344283e-05,-1.6201247490243986e-05,5.661336035700515e-05
-5.874412090633996e-05,2.5142720915027894e-05,1.44102523336187e-05,-1.4783849110244773e-05,6.431685324059799e-05
-5.669664824381471e-05,2.2907770471647382e-05,1.3260889318189584e-05,-6.680177193629788e-06,6.921697058714926e-05
-6.0906582802999765e-05,1.9376424461370334e-05,1.4396373444469646e-05,-1.5558088080069865e-06,6.916429265402257e-05
-6.524230411741883e-05,1.9580347725423053e-05,1.1244880624872167e-05,-8.577694643463474e-06,6.64287363179028e-05
-6.308026058832183e-05,2.2248534151003696e-05,4.883333076577401e-06,-1.8887390979216434e-05,6.402836879715323e-05
-5.8069665101356804e-05,2.5184894184349105e-05,-1.7117495190177578e-06,-2.2001004253979772e-05,6.203586235642433e-05
-5.503634019987658e-05,2.994755413965322e-05,-8.398626960115507e-06,-1.941373739100527e-05,5.967219840385951e-05
-5.16879117640201e-05,3.789849142776802e-05,-1.1147554687340744e-05,-2.195753768319264e-05,5.718959801015444e-05
-4.56065681646578e-05,4.305853144614957e-05,-9.220536412613e-06,-2.4833569113980047e-05,5.635085835820064e-05
-3.976477455580607e-05,4.146775245317258e-05,-5.100772341393167e-06,-2.4231871066149324e-05,5.640726158162579e-05
-3.3581254683667794e-05,3.946060678572394e-05,9.479143727730843e-07,-2.3123011487768963e-05,5.5456996051361784e-05
-2.794849751808215e-05,3.825684325420298e-05,7.274904419318773e-06,-2.3128359316615388e-05,5.4266147344606e-05
-2.063756255665794e-05,3.614075467339717e-05,9.042089914146345e-06,-2.580539876362309e-05,5.514492295333184e-05
-1.5135916328290477e-05,3.434575774008408e-05,6.474027031799778e-06,-2.813937680912204e-05,5.5215488828253e-05
-1.5135452485992573e-05,3.065190321649425e-05,3.752629481823533e-06,-2.7998137738904916e-05,5.651108222082257e-05
-1.783355401130393e-05,2.456010588502977e-05,4.288930540496949e-06,-2.5197918148478493e-05,5.818121644551866e-05
-2.0510105969151482e-05,1.828391214075964e-05,8.52415723784361e-06,-2.1989864762872458e-05,5.65304362680763e-05
-2.4867536922101863e-05,1.611975494597573e-05,1.4050033314561006e-05,-1.9794984837062657e-05,5.487713497132063e-05
-3.161220593028702e-05,2.156701339117717e-05,1.6734315067878924e-05,-1.80868519237265e-05,5.530374983209185e-05
-3.4029202652163804e-05,3.379890040378086e-05,1.750042792991735e-05,-1.657203392824158e-05,5.912685810471885e-05
-2.8706013836199418e-05,4.432867353898473e-05,2.032465818047058e-05,-1.3999219845572952e-05,6.452151865232736e-05
-1.80033894139342e-05,4.3846608605235815e-05,2.4599550670245662e-05,-8.63867717271205e-06,6.668077548965812e-05
-7.992969585757237e-06,3.3944914321182296e-05,2.5347086193505675e-05,-3.4664842019083153e-07,6.137365562608466e-05
-5.047585545980837e-06,2.4448341719107702e-05,2.2174252080731094e-05,6.489051429525716e-06,5.327181497705169e-05
-1.2468329259718303e-05,1.8776077922666445e-05,1.7457503417972475e-05,8.60604541230714e-06,4.923544838675298e-05
-1.8820444893208332e-05,1.8050321159535088e-05,1.4603941053792369e-05,7.434731742250733e-06,4.6847031626384705e-05
-1.6259573385468684e-05,2.015905556618236e-05,1.320325827691704e-05,4.078252914041514e-06,4.483445445657708e-05
-1.255118058907101e-05,2.0442110326257534e-05,1.1753955732274335e-05,3.3612793686188525e-06,4.854180588154122e-05
-1.260252065549139e-05,2.36632095038658e-05,1.3751050573773682e-05,5.98430187892518e-06,5.400722875492647e-05
-1.7028956790454686e-05,3.040933188458439e-05,1.633390820643399e-05,3.605473693824024e-06,5.497830716194585e-05
-2.4108381694532e-05,3.1648334697820246e-05,1.778895421011839e-05,1.0407686659164028e-06,5.342696385923773e-05
-3.651450606412254e-05,2.6267252906109206e-05,1.7526510418974794e-05,2.6556249395071063e-06,5.444607450044714e-05
-4.9210309953195974e-05,2.2955669919610955e-05,1.5176950000750367e-05,6.047152510291198e-06,4.991702371626161e-05
-5.708245589630678e-05,1.828616950660944e-05,1.4534040019498207e-05,7.071221716614673e-06,4.3388718040660024e-05
-6.0134265368105844e-05,1.2649058589886408e-05,1.307637012359919e-05,1.5649185343136196e-06,4.219700349494815e-05
-5.043997225584462e-05,1.2325902389420662e-05,1.1880357305926736e-05,-4.1353132473886944e-06,4.5242100895848125e-05
-3.571245542843826e-05,1.6010020772228017e-05,1.1409058060962707e-05,-6.145736278995173e-06,5.196408892516047e-05
-2.5942823413060978e-05,2.1405263396445662e-05,9.461969057156239e-06,-4.275948867871193e-06,5.647493526339531e-05
-2.2976009859121405e-05,2.585199945315253e-05,6.20547734797583e-06,-2.060815660342996e-07,6.019409920554608e-05
-2.2467771486844867e-05,3.170411946484819e-05,3.941806426155381e-06,1.331809357907332e-06,6.294534978223965e-05
-2.4249879061244428e-05,3.734592974069528e-05,3.7518345834541833e-06,-2.0258055428712396e-06,6.383694562828168e-05
-2.9487846404663287e-05,4.1245133616030216e-05,4.835005256609293e-06,-6.139539436844643e-06,6.297421350609511e-05
-3.459265280980617e-05,4.342884858488105e-05,6.262881470320281e-06,-5.086470991955139e-06,6.135354487923905e-05
-3.693922553793527e-05,4.275293758837506e-05,4.884129793936154e-06,-1.8085568171954947e-06,5.864023478352465e-05
-3.6900306440657005e-05,4.064714448759332e-05,2.4017749638005625e-06,-1.4516054989144322e-06,5.536903699976392e-05
-3.395403837203048e-05,3.8126803701743484e-05,2.678227701835567e-07,-3.6061726405023364e-06,5.1971685024909675e-05
-2.9721983082708903e-05,3.46847009495832e-05,-9.56947928898444e-07,-4.991776677343296e-06,5.0894446758320555e-05
-2.8187152565806173e-05,3.1538158509647474e-05,1.0592925718810875e-06,-5.4107304094941355e-06,5.3632593335350975e-05
-3.2249023206532e-05,3.078310692217201e-05,6.1672953961533494e-06,-7.007683962001465e-06,5.570782377617434e-05
-4.659867045120336e-05,3.304435813333839e-05,8.994188647193369e-06,-9.704638614493888e-06,5.4236730647971854e-05
-6.778612441848963e-05,3.63944454875309e-05,8.2801225289586e-06,-1.0700592611101456e-05,5.108406548970379e-05
-8.35979008115828e-05,3.711720273713581e-05,5.12074984726496e-06,-1.240069559571566e-05,4.893868390354328e-05
-7.873301365179941e-05,3.1261519325198606e-05,-6.568272397089459e-07,-1.8216360331280157e-05,4.9776903324527666e-05
-5.966423123027198e-05,1.8922950403066352e-05,-2.259688699268736e-06,-2.161121301469393e-05,5.278558091958985e-05
-4.641631676349789e-05,1.4329518307931721e-05,2.557907919253921e-06,-2.1694171664421447e-05,5.2319337555672973e-05
-4.046249887323938e-05,1.973621328943409e-05,3.7074405554449186e-06,-2.077302269754e-05,4.8348127165809274e-05
-3.287302752141841e-05,1.9661731130327098e-05,-5.365611173147045e-07,-1.968135438801255e-05,4.743309546029195e-05
-2.3378666810458526e-05,1.7394364476785995e-05,-1.777766783561674e-06,-2.178827162424568e-05,5.2402407163754106e-05
-1.5621762941009365e-05,1.9671440895763226e-05,4.949157528244541e-07,-2.3071073883329518e-05,5.6845106882974505e-05
-9.837168363446835e-06,2.3917475118651055e-05,1.3923529422754655e-06,-2.238798697362654e-05,5.792700540041551e-05
-8.051384270402195e-07,2.6203621018794365e-05,-1.3228269608589471e-06,-2.0945939468219876e-05,5.7633038522908464e-05
9.19681042432785e-06,2.308753755642101e-05,-6.561630016221898e-06,-1.859412805060856e-05,5.7336637837579474e-05
1.9331937437527813e-05,1.638250978430733e-05,-1.1166231161041651e-05,-1.6860618416103534e-05,6.001103974995203e-05
2.8817978090955876e-05,1.0867468517972156e-05,-9.418645277037285e-06,-1.5831530618015677e-05,6.301896064542234e-05
3.4230131859658286e-05,1.0613554877636489e-05,-3.8888497329025995e-06,-1.637284003663808e-05,6.488793587777764e-05
3.240442310925573e-05,1.3390805179369636e-05,-2.4189682790165534e-07,-1.610635627002921e-05,6.626248796237633e-05
2.181806485168636e-05,1.913716914714314e-05,2.4378862235607812e-06,-1.3647477317135781e-05,6.724916602252051e-05
1.064421667251736e-05,2.6648440325516276e-05,3.355293529239134e-06,-1.3093927918816917e-05,6.91830282448791e-05
5.071488430985482e-06,3.540205943863839e-05,1.245330508936604e-06,-1.4641796042269561e-05,7.025540253380314e-05
2.4650435079820454e-06,4.2503092117840424e-05,-5.745906150878e-07,-1.6046384189394303e-05,6.929208029760048e-05
-1.817739985199296e-06,4.527716737356968e-05,1.2403584150888491e-06,-1.5178340618149377e-05,6.762317207176238e-05
-3.724133421201259e-06,4.361374521977268e-05,3.1880579172138823e-06,-1.2581678674905561e-05,6.754386413376778e-05
-2.894011231546756e-06,3.955935244448483e-05,2.4367684545723023e-06,-1.1523152352310717e-05,6.741209654137492e-05
-4.167852694081375e-06,3.8867347029736266e-05,1.0564574495219858e-06,-1.2011775652354117e-05,6.76266718073748e-05
-8.922264896682464e-06,4.245340824127197e-05,1.9576039278490498e-07,-1.3834013770974707e-05,6.65553379803896e-05
-1.4624714822275564e-05,4.450873893802054e-05,-3.0399382922041696e-06,-1.744907240208704e-05,6.265151750994846e-05
-1.8269658539793454e-05,4.244524461682886e-05,-8.199245712603442e-06,-1.856023482105229e-05,5.971662176307291e-05
-2.0654913896578364e-05,3.923881740774959e-05,-1.2405267625581473e-05,-1.2041375157423317e-05,6.159927579574287e-05
-2.31465255637886e-05,2.8680520699708723e-05,-1.9006614820682444e-05,-3.306848384454497e-06,6.521000614156947e-05
-2.6485753551241942e-05,1.3144021068001166e-05,-2.707024395931512e-05,-1.6009321370802354e-06,6.776561349397525e-05
-3.522963015711866e-05,9.817742466111667e-06,-3.0243521905504167e-05,-6.5455933508928865e-06,6.808277248637751e-05
-4.7744328185217455e-05,1.8712154997047037e-05,-2.6440422516316175e-05,-1.0287793884344865e-05,6.664793909294531e-05
-5.262389458948746e-05,2.9301967515493743e-05,-1.730907752062194e-05,-7.350536179728806e-06,6.578204192919657e-05
-4.663094296120107e-05,3.596575334086083e-05,-6.867452157166554e-06,-9.18956075679489e-08,6.409075285773724e-05
-4.1343642806168646e-05,3.894140536431223e-05,7.644744073331822e-06,3.976641437475337e-06,6.418098200811073e-05
-4.2250372644048184e-05,4.528998033492826e-05,2.38170541706495e-05,3.6535745948640397e-06,6.356585072353482e-05
-4.32596898463089e-05,5.145786781213246e-05,3.487054709694348e-05,4.001407205578289e-08,6.36535623925738e-05
-3.880390431731939e-05,5.0296017434448004e-05,3.864398240693845e-05,-3.830961304629454e-06,6.572536949533969e-05
-3.069782906095497e-05,4.34730427514296e-05,3.878195639117621e-05,-5.649401828122791e-06,6.726407445967197e-05
-2.736542228376493e-05,3.8367099477909505e-05,4.038658153149299e-05,-8.847823664837051e-06,6.65938641759567e-05
-3.0129402148304507e-05,3.7847737985430285e-05,3.806181121035479e-05,-1.262279965885682e-05,6.546897202497348e-05
-3.3345633710268885e-05,4.046522008138709e-05,3.32593044731766e-05,-1.3175624189898372e-05,6.705557461827993e-05
-3.2234784157481045e-05,3.9997987187234685e-05,2.9506918508559465e-05,-1.2548617633001413e-05,7.001660560490564e-05
-2.7754629627452232e-05,3.6481618735706434e-05,2.5493796783848666e-05,-1.1759659173549153e-05,7.151056342991069e-05
-2.500228220014833e-05,3.268662840127945e-05,1.794007039279677e-05,-9.762790796230547e-06,7.295190152944997e-05
-2.634167503856588e-05,2.9906081181252375e-05,1.0577900866337586e-05,-8.269777936220635e-06,7.451100827893242e-05
-3.148748510284349e-05,2.9815093512297608e-05,7.282009391929023e-06,-9.27630298974691e-06,7.040298805804923e-05
-4.010793782072142e-05,3.1236500944942236e-05,8.156757758115418e-06,-1.2585880540427752e-05,6.075541750760749e-05
-4.718593481811695e-05,3.293576810392551e-05,8.756969691603445e-06,-1.5020006685517728e-05,5.418490763986483e-05
-4.535408515948802e-05,3.276431016274728e-05,5.031424279877683e-06,-1.4013978216098621e-05,5.402162059908733e-05
-3.5677261621458456e-05,3.0811184842605144e-05,1.8799904637489817e-06,-1.1418202120694332e-05,5.7043689594138414e-05
-2.852250327123329e-05,3.0192222766345367e-05,2.4876601401047083e-06,-1.1693201486195903e-05,6.0355687310220674e-05
-2.9707060093642212e-05,3.389638368389569e-05,4.251278369338252e-06,-1.2599318324646447e-05,6.080778257455677e-05
-3.6648048990173265e-05,3.6833796912105754e-05,4.012817953480408e-06,-7.865607585699763e-06,5.8214343880536035e-05
-3.904099503415637e-05,3.348492464283481e-05,3.4768243040161906e-06,-4.743945964946761e-07,5.4913289204705507e-05
-3.228842615499161e-05,1.9417375369812362e-05,1.9185674773325445e-06,6.697974299640919e-07,5.545759995584376e-05
-2.4343020413652994e-05,5.135000833433878e-07,-2.352676347072702e-06,-2.4256726192106726e-06,5.9403726481832564e-05
-2.127182779076975e-05,-9.422129551239777e-06,-9.547509762342088e-06,-2.8627019332816417e-07,6.26548717264086e-05
-2.7591797334025614e-05,-8.129761226882692e-06,-1.924742537084967e-05,8.616755167167867e-07,6.256611231947318e-05
-3.91000066883862e-05,8.945356455569708e-08,-2.492772546247579e-05,-5.271683221508283e-06,6.147204840090126e-05
-4.8687768867239356e-05,9.253466487280093e-06,-2.2280297343968414e-05,-8.298219654534478e-06,6.001603105687536e-05
-5.4958560212980956e-05,5.382976269174833e-06,-1.3032882634433918e-05,-5.707863692805404e-06,5.986068936181255e-05
-5.5678105127299204e-05,-1.5391418855870143e-05,-1.533260274300119e-06,-4.719992375612492e-06,6.153380672913045e-05
-5.0782178732333705e-05,-3.573493449948728e-05,5.073477950645611e-06,-7.492878921766533e-06,6.423169543268159e-05
-4.433795402292162e-05,-3.559909600880928e-05,1.1737590284610633e-05,-6.46637408863171e-06,6.468454375863075e-05
-3.438217026996426e-05,-1.0516770998947322e-05,2.0608656996046193e-05,-5.70628162677167e-06,6.0033467889297754e-05
-2.188053258578293e-05,2.0401168512762524e-05,2.656254218891263e-05,-9.027469786815345e-06,5.254379357211292e-05
-1.1539577826624736e-05,3.735215432243422e-05,2.6640391297405586e-05,-1.1254308446950745e-05,4.5542030420619994e-05
-4.384542990010232e-06,4.137249561608769e-05,2.1549805751419626e-05,-1.0251350431644823e-05,4.292880475986749e-05
-2.0321363081166055e-06,3.833442315226421e-05,1.5767394870636053e-05,-6.949973794689868e-06,4.348389120423235e-05
-1.6318082316502114e-06,3.3629501558607444e-05,1.275858812732622e-05,-6.0753291108994745e-06,4.697065378422849e-05
-2.668065235411632e-06,3.3638483728282154e-05,1.2038504792144522e-05,-8.461102879664395e-06,5.282030542730354e-05
-3.0845196761219995e-06,3.8901009247638285e-05,1.332952069788007e-05,-1.2070990123902448e-05,5.9188882005400956e-05
-1.6715746369300177e-06,4.425637234817259e-05,1.5390482076327316e-05,-1.4050717254576739e-05,6.020531873218715e-05
-3.1172314720606664e-06,4.777317008120008e-05,1.5724970580777153e-05,-1.3635250979859848e-05,5.7647266658023e-05
-1.0954518074868247e-05,4.84731572214514e-05,1.246034025825793e-05,-1.3332652088138275e-05,5.694337596651167e-05
-2.0142873836448416e-05,4.3180014472454786e-05,8.494504072587006e-06,-1.4172433111525606e-05,5.7175908295903355e-05
-2.429450069030281e-05,3.416541949263774e-05,6.3276197579398286e-06,-1.2303676157898735e-05,5.650173261528835e-05
-2.688749009394087e-05,2.7192660127184354e-05,3.9552137423015665e-06,-8.206735401472542e-06,5.512792995432392e-05
-3.231679875170812e-05,2.065853914245963e-05,1.5858292954362696e-06,-7.659396032977384e-06,5.354177483241074e-05
-3.649972131825052e-05,1.0804797057062387e-05,-2.5245308279409073e-06,-1.1780057320720516e-05,5.348118793335743e-05
-3.251412636018358e-05,4.3607365114439745e-06,-8.384620741708204e-06,-1.4716349141963292e-05,5.505804074346088e-05
-2.673575363587588e-05,7.535931672464358e-06,-9.004542334878352e-06,-1.4817943338130135e-05,5.6859316828195006e-05
-2.4947898054961115e-05,1.710497963358648e-05,-3.4020722523564473e-06,-1.501750921306666e-05,5.938624235568568e-05
-2.1797295630676672e-05,2.7072892407886684e-05,2.2812653241999215e-06,-1.769122354744468e-05,5.998606502544135e-05
-1.6843525372678414e-05,3.4780790883814916e-05,3.968084911321057e-06,-2.0996365492464975e-05,5.8621335483621806e-05
-7.505585017497651e-06,4.397168959258124e-05,3.459589152043918e-06,-2.1854151782463305e-05,5.306362436385825e-05
-3.2049892979557626e-06,5.939193943049759e-05,6.098967332945904e-06,-2.179173861804884e-05,4.735657785204239e-05
-1.0049644515675027e-05,7.106996781658381e-05,4.128776708967052e-06,-2.21101308852667e-05,4.502481533563696e-05
-1.2436181350494735e-05,7.003173959674314e-05,1.39001599563926e-06,-2.1150228349142708e-05,4.552584505290724e-05
-1.0543023563513998e-05,6.189104897202924e-05,3.970139914599713e-06,-1.8473889213055372e-05,4.9900307203643024e-05
-1.1891683243447915e-05,4.926420297124423e-05,4.124195129406871e-06,-1.4148209629638586e-05,5.288476313580759e-05
-1.589404564583674e-05,2.8544767701532692e-05,-1.8468095959178754e-06,-1.3618171578855254e-05,5.067724487162195e-05
-2.1459887648234144e-05,-1.701399469311582e-06,-1.238051936525153e-05,-2.0071300241397694e-05,4.485920362640172e-05
-3.05791872960981e-05,-2.7412095732870512e-05,-1.759887527441606e-05,-2.6445579351275228e-05,4.186201476841234e-05
-4.0752129280008376e-05,-3.0180068279150873e-05,-1.3355704140849411e-05,-2.4988066797959618e-05,4.6702352847205475e-05
-4.8196128773270175e-05,-1.4982643733674195e-05,-8.896240615285933e-06,-1.4820318938291166e-05,5.652750769513659e-05
-5.122865695739165e-05,5.738830623158719e-06,-1.0268109690514393e-05,-5.923458957113326e-06,6.629031122429296e-05
-5.2158658945700154e-05,2.69473202934023e-05,-1.234557930729352e-05,-5.4002002798370086e-06,7.183857815107331e-05
-5.243349733063951e-05,4.9413116357754916e-05,-7.677994290133938e-06,-1.0314006431144662e-05,7.192540215328336e-05
-5.0348877266515046e-05,7.189213647507131e-05,3.5852037854056107e-06,-1.4018763067724649e-05,6.892804231029004e-05
-4.6565754018956795e-05,8.73587850946933e-05,1.8321301467949525e-05,-1.5304995031328872e-05,6.797176320105791e-05
-4.457977047422901e-05,9.283733379561454e-05,2.9742646802333184e-05,-1.3376728020375594e-05,7.26482758182101e-05
-4.4201387936482206e-05,8.982285362435505e-05,3.1535641028312966e-05,-8.414307558268774e-06,7.595738861709833e-05
-3.924995689885691e-05,7.994812040124089e-05,2.4883660444174893e-05,-4.023426299681887e-06,7.306245970539749e-05
-3.151070268359035e-05,6.629036943195388e-05,1.9618710211943835e-05,-3.334170742164133e-06,6.680827937088907e-05
-2.5441857360419817e-05,5.396886626840569e-05,2.0481462343013845e-05,-5.898687959415838e-06,6.127500819275156e-05
-2.4346591089852154e-05,4.769060979015194e-05,2.2643147531198338e-05,-8.280463589471765e-06,5.8571400586515665e-05
-2.8070313419448212e-05,4.7074259782675654e-05,2.111451431119349e-05,-8.281240297947079e-06,5.744856389355846e-05
-3.496101635391824e-05,4.6245124394772574e-05,1.7343414583592676e-05,-7.171405286499066e-06,5.762415821664035e-05
-4.563066249829717e-05,4.6669541916344315e-05,1.7766133169061504e-05,-7.686994649702683e-06,5.942648931522854e-05
-5.1256469305371866e-05,4.8776135372463614e-05,1.9197967048967257e-05,-8.585952855355572e-06,6.097610457800329e-05
-4.802112016477622e-05,4.703085505752824e-05,1.627562778594438e-05,-1.103896283893846e-05,5.6207096349680796e-05
-4.4498527131509036e-05,3.830896093859337e-05,1.1907279258593917e-05,-1.6034349755500443e-05,4.981780148227699e-05
-4.387658918858506e-05,2.9462338716257364e-05,1.2444153071555775e-05,-1.735996556817554e-05,5.2327304729260504e-05
-4.167994120507501e-05,2.5213103072019294e-05,1.112291374738561e-05,-1.5029886526463088e-05,5.645092824124731e-05
-3.5460943763609976e-05,2.0914752894896083e-05,7.1676354309602175e-06,-1.5489358702325262e-05,5.670056998496875e-05
-2.9538776288973168e-05,1.6780300938989967e-05,8.441997124464251e-06,-1.8846032617148012e-05,5.4314536100719124e-05
-2.9358116080402397e-05,1.487383633502759e-05,1.9545723262126558e-05,-1.956094456545543e-05,5.00336718687322e-05
-3.5026256227865815e-05,2.133619273081422e-05,3.5246663173893467e-05,-1.3316262993612327e-05,5.1176801207475364e-05
-3.791892959270626e-05,3.1434708944289014e-05,3.7935526052024215e-05,-5.5151890592242125e-06,5.838422293891199e-05
-3.1545710953650996e-05,3.545724757714197e-05,2.9148675821488723e-05,-8.72570979026932e-07,6.390788621501997e-05
-1.949310171767138e-05,3.2475658372277394e-05,1.6801428500912152e-05,1.1417494079069002e-06,6.3737177697476e-05
-1.5073854228830896e-05,2.533147380745504e-05,5.708305252483115e-06,-8.435897598246811e-07,6.056423808331601e-05
-1.725193033053074e-05,1.5678459021728486e-05,-1.0049994898508885e-06,-7.390568498522043e-06,5.596828123088926e-05
-1.6322801457135938e-05,7.348723102040822e-06,-4.441005785338348e-06,-1.3032217793806922e-05,5.254744610283524e-05
-1.3106234291626606e-05,8.416344826400746e-06,-5.841324764332967e-06,-1.3720053175347857e-05,5.499509279616177e-05
-1.5997187801986e-05,1.4779498087591492e-05,-1.0013341125159059e-05,-1.0510568245081231e-05,6.0951238992856815e-05
-2.3178245101007633e-05,1.9751461877604015e-05,-1.4959571672079619e-05,-6.238716196094174e-06,6.440990546252578e-05
-2.2630973035120405e-05,2.1729270883952267e-05,-1.556433562655002e-05,-3.640635668489267e-06,6.483789184130728e-05
-1.8037777408608235e-05,2.1680560166714713e-05,-1.2108503142371774e-05,-2.884023388105561e-06,6.32422961643897e-05
-1.8820463083102368e-05,2.1888910850975662e-05,-8.283735951408744e-06,-1.3539736301027006e-06,6.004975875839591e-05
-2.2186230125953443e-05,2.3020234948489815e-05,-3.5783491512120236e-06,-2.3560671991162963e-07,5.504110231413506e-05
-2.0877581846434623e-05,2.0701221728813834e-05,-8.40095708554145e-07,-2.9408306545519736e-06,5.204349508858286e-05
-1.4177135199133772e-05,1.797836557670962e-05,-2.7907587991649052e-06,-5.082419647806091e-06,5.378317291615531e-05
-6.946819212316768e-06,1.935883665282745e-05,-5.052181222708896e-06,-4.574317244987469e-06,5.560096906265244e-05
-4.248338427714771e-06,2.3528466044808738e-05,-1.0782014214782976e-06,-2.3763213903293945e-06,5.376503395382315e-05
-9.007763765112031e-06,3.079126690863632e-05,1.0993740033882204e-05,-5.999760901431728e-07,4.951228038407862e-05
-1.924289608723484e-05,3.5484335967339575e-05,2.078783290926367e-05,-3.149942585878307e-06,4.842915586777963e-05
-2.52863101195544e-05,3.1305302400141954e-05,2.02178653125884e-05,-5.409887307905592e-06,4.7016066673677415e-05
-2.282839523104485e-05,1.899188464449253e-05,9.687299098004587e-06,-5.622016487905057e-06,4.090634320164099e-05
-2.02121700567659e-05,7.373579137492925e-06,-9.842514373303857e-06,-5.781633262813557e-06,3.588349136407487e-05
-2.181354102503974e-05,9.69405959949654e-08,-2.661606231413316e-05,-7.768644536554348e-06,3.310693136882037e-05
-2.761483847280033e-05,6.460761596827069e-07,-2.8976173780392855e-05,-9.489894182479475e-06,3.1815892725717276e-05
-3.8865120586706325e-05,5.917011094425106e-06,-2.3273776605492458e-05,-7.258591722347774e-06,3.691578240250237e-05
-4.538945358945057e-05,7.365989858953981e-06,-1.8525548512116075e-05,-4.302509296394419e-06,4.513925887295045e-05
-4.159625677857548e-05,1.0055923667096067e-05,-1.735687692416832e-05,-5.186855560168624e-06,5.02682632941287e-05
-3.2886953704291955e-05,1.3984110410092399e-05,-2.029885035881307e-05,-9.266385859518778e-06,5.438371954369359e-05
-3.339438626426272e-05,1.8169297618442215e-05,-2.2398193323169835e-05,-7.115675543900579e-06,6.374657823471352e-05
-4.124625775148161e-05,2.6433477614773437e-05,-1.624493052077014e-05,1.6674071048328187e-06,7.631701009813696e-05
-4.863732465310022e-05,3.637059489847161e-05,-3.902258413290838e-06,9.119319656747393e-06,8.350928692379966e-05
-5.303911166265607e-05,3.875716356560588e-05,8.261651601060294e-06,1.1195729712198954e-05,8.35485479910858e-05
-5.281682751956396e-05,3.369399928487837e-05,1.5247253941197414e-05,1.0652492164808791e-05,7.999021181603894e-05
-5.135679020895623e-05,2.7826212317449972e-05,1.3934526577941142e-05,9.413643965672236e-06,7.680622366024181e-05
-5.128050906932913e-05,2.2121419533505104e-05,6.034609214111697e-06,8.797234841040336e-06,7.379505404969677e-05
-5.116659667692147e-05,1.601956864760723e-05,-3.3964165595534723e-06,7.64303513278719e-06,6.836452666902915e-05
-4.703589002019726e-05,1.134871126851067e-05,-7.809207090758719e-06,5.700930159946438e-06,6.14062009844929e-05
-4.233761501382105e-05,7.503238066419726e-06,-3.461572305241134e-06,4.427703515830217e-06,5.4996136896079406e-05
-3.797242243308574e-05,4.610654741554754e-06,4.679543053498492e-06,4.871516011917265e-06,5.174462421564385e-05
-3.12620795739349e-05,5.383632924349513e-06,1.0457241842232179e-05,6.504813427454792e-06,5.1171908125979826e-05
-2.1891431970288977e-05,7.1097347245085984e-06,1.6078196495072916e-05,6.586089511984028e-06,5.083832729724236e-05
-1.870880623755511e-05,8.562427865399513e-06,2.2137368432595395e-05,4.382094630273059e-06,4.9822749133454636e-05
-1.9605418856372125e-05,8.289595825772267e-06,2.276772829645779e-05,-1.786798975444981e-07,5.123809023643844e-05
-2.1734826077590697e-05,7.345016001636395e-06,1.7687329091131687e-05,-7.066530542942928e-06,5.62329514650628e-05
-2.5706665837788023e-05,9.54617735260399e-06,1.1418685971875675e-05,-1.762999818311073e-05,5.931635678280145e-05
-2.6772566343424842e-05,1.651932325330563e-05,7.862860002205707e-06,-2.488184327376075e-05,5.980719652143307e-05
-2.848539406841155e-05,2.2932232241146266e-05,7.91219554230338e-06,-2.7000442059943452e-05,5.940008850302547e-05
-2.6613484806148335e-05,2.796026092255488e-05,1.3346992091101129e-05,-2.619628685351927e-05,6.02926047577057e-05
-2.0779743863386102e-05,3.3716023608576506e-05,1.833256465033628e-05,-2.4181845219573006e-05,6.24773238087073e-05
-2.067522109427955e-05,3.847369953291491e-05,1.6291713109239936e-05,-2.2614689441979863e-05,6.506642966996878e-05
-2.1169968022149988e-05,4.009112672065385e-05,1.1451580576249398e-05,-1.8354610801907256e-05,6.764435238437727e-05
-1.741670712362975e-05,4.171939508523792e-05,1.036011326505104e-05,-1.4508869753626641e-05,6.729528104187921e-05
-1.084510950022377e-05,4.861747947870754e-05,1.0776841008919291e-05,-1.508889181423001e-05,6.658994971076027e-05
-5.263085313345073e-06,5.7904493587557226e-05,8.376943696930539e-06,-1.7320038750767708e-05,6.85411796439439e-05
-6.533817213494331e-06,6.63902101223357e-05,7.746230039629154e-06,-1.776124190655537e-05,6.810061313444749e-05
-1.3998345821164548e-05,6.76934068906121e-05,6.901873803144554e-06,-1.861393866420258e-05,6.454045069403946e-05
-1.7410606233170256e-05,6.031376324244775e-05,5.553458322538063e-06,-2.015036989178043e-05,6.305125134531409e-05
-1.1042500773328356e-05,4.972593887941912e-05,6.134206159913447e-06,-2.062910243694205e-05,6.499682058347389e-05
-2.6242628337058704e-06,4.251460268278606e-05,8.096996680251323e-06,-1.8611079212860204e-05,6.611915159737691e-05
-8.587895194978046e-07,3.7589867133647203e-05,9.238718121196143e-06,-1.5284944311133586e-05,6.437976117013022e-05
-1.3539424799091648e-06,3.140338230878115e-05,9.379297807754483e-06,-1.2919465007144026e-05,6.13917363807559e-05
-1.4310547840068466e-06,2.5818833819357678e-05,9.010161193145905e-06,-1.2128201888117474e-05,6.120389298303053e-05
-2.77276035376417e-06,2.1362213374231942e-05,7.741500667179935e-06,-1.3796070561511442e-05,6.426701293094084e-05
-4.083437943336321e-06,1.5093106412678026e-05,6.0728339121851604e-06,-1.652384344197344e-05,6.812930223532021e-05
-4.420694040163653e-06,5.863731530553196e-06,4.6075197133177426e-06,-1.907578007376287e-05,7.161522808019072e-05
-5.1628330766106956e-06,-9.024200267049309e-07,3.2235732305707643e-06,-1.970009907381609e-05,7.268015178851783e-05
-9.070424312085379e-06,-1.8547062836660189e-06,-4.724120117316488e-07,-1.9583580069593154e-05,6.985994696151465e-05
-1.5760489986860193e-05,2.6587933916744078e-06,-2.8621518595173256e-06,-2.013270386669319e-05,6.661949009867385e-05
-2.389277688052971e-05,7.898831427155528e-06,2.2625698647971149e-07,-2.1460047719301656e-05,6.797425157856196e-05
-3.3574222470633686e-05,1.1138675290567335e-05,4.355155851953896e-06,-2.1283693058649078e-05,6.967587978579104e-05
-4.3260261008981615e-05,1.3187178410589695e-05,4.8985170906235e-06,-1.7501128240837716e-05,6.85712875565514e-05
-4.608241215464659e-05,1.9009889001608826e-05,3.870795353577705e-06,-1.0746782209025696e-05,6.594695878447965e-05
-4.298285784898326e-05,3.052433021366596e-05,4.231225830153562e-06,-5.441656867333222e-06,6.219193892320618e-05
-3.421939618419856e-05,3.899047806044109e-05,5.100220278109191e-06,-3.752438260562485e-06,5.890618558623828e-05
-2.6371029889560305e-05,4.239249028614722e-05,6.131087957328418e-06,-5.93744016441633e-06,5.804095053463243e-05
-2.352925184823107e-05,4.5602999307448044e-05,5.478669663716573e-06,-1.2282805982977152e-05,5.976088505121879e-05
-2.057790698017925e-05,4.726137558463961e-05,4.715035174740478e-06,-1.778710793587379e-05,6.322256376734003e-05
-1.8455284589435905e-05,4.525389158516191e-05,3.766074087252491e-06,-1.9154822439304553e-05,6.372977804858238e-05
-1.7099273463827558e-05,4.0517348679713905e-05,-3.101510230862914e-07,-1.5129917301237583e-05,6.17800178588368e-05
-1.6008480088203214e-05,3.7374458770500496e-05,-2.6603172500472283e-06,-8.014470040507149e-06,5.955818414804526e-05
-1.4431408999371342e-05,3.6308465496404096e-05,-5.955883807473583e-06,-1.0957572840197827e-06,5.811112714582123e-05
-9.384428267367184e-06,3.326071600895375e-05,-8.669296221341938e-06,1.0214271242148243e-06,5.9038087783847004e-05
-3.5669293083628872e-06,2.6714036721386947e-05,-6.569423931068741e-06,-1.7561170579938334e-06,6.243379175430164e-05
-3.374214657014818e-06,2.1326743080862798e-05,-1.0682100537451333e-06,-5.503798547579208e-06,6.64016479277052e-05
-6.995804142206907e-06,2.1327392460079864e-05,3.396282409084961e-06,-1.1869260561070405e-05,6.63123355479911e-05
-8.5462615970755e-06,2.0761592168128118e-05,5.0511453082435764e-06,-1.892160071292892e-05,6.342834240058437e-05
-2.0179766124783782e-06,1.8660757632460445e-05,5.3594903874909505e-06,-2.106200008711312e-05,6.105990905780345e-05
1.1642419849522412e-05,2.018010309257079e-05,5.687394605047302e-06,-1.7107038729591295e-05,6.153761205496266e-05
1.9124188838759437e-05,2.644020969455596e-05,4.773128694068873e-06,-1.3806943570671137e-05,6.13075026194565e-05
1.2468260138120968e-05,3.253533213865012e-05,2.9664929570571985e-06,-1.5009226444817614e-05,6.0193218814674765e-05
-2.2545134470419725e-06,3.734756319317967e-05,3.8003367990313563e-06,-1.681917638052255e-05,6.069533264962956e-05
-1.353773768641986e-05,4.364570850157179e-05,6.925022262294078e-06,-1.6963966118055396e-05,6.027870767866261e-05
-1.8700990040088072e-05,4.8402991524199024e-05,9.185469025396742e-06,-1.8795970390783623e-05,5.7785247918218374e-05
-2.043564927589614e-05,4.957736382493749e-05,9.582095117366407e-06,-2.2491400159196928e-05,5.468615563586354e-05
-2.1029140043538064e-05,4.841686677536927e-05,8.505055120622274e-06,-2.47947118623415e-05,5.526169479708187e-05
-2.365097861911636e-05,4.3306044972268865e-05,5.8390351114212535e-06,-2.5770556021598168e-05,5.8114670537179336e-05
-2.9604145311168395e-05,3.3717187761794776e-05,1.9143742520100204e-06,-2.7241188945481554e-05,5.877378862351179e-05
-3.941088652936742e-05,2.5368135538883507e-05,-3.376391305209836e-06,-2.5661898689577356e-05,5.858997974428348e-05
-4.8743233492132276e-05,2.404680708423257e-05,-6.6315237745584454e-06,-2.0417706764419563e-05,5.778174818260595e-05
-5.284966027829796e-05,2.7078860512119718e-05,-5.809445156046422e-06,-1.5633531802450307e-05,5.6492852309020236e-05
-4.91374266857747e-05,2.1666994143743068e-05,-1.2582582940012799e-06,-1.4663442925666459e-05,5.351063373382203e-05
-4.652643474400975e-05,1.3156630302546546e-05,5.5303212320723105e-06,-1.6047379176598042e-05,5.062876152805984e-05
-5.1251929107820615e-05,2.131967085006181e-05,1.3449285688693635e-05,-1.279713887925027e-05,5.1847622671630234e-05
-4.979491495760158e-05,3.7127607356524095e-05,1.3050991583440918e-05,-1.0615411156322807e-05,5.480182881001383e-05
-4.648801404982805e-05,4.7315821575466543e-05,8.936768608691636e-06,-8.859120498527773e-06,5.513008727575652e-05
-4.2337873310316354e-05,5.5252985475817695e-05,9.360641342937015e-06,-4.781744337378768e-06,5.273729038890451e-05
-3.6952707887394354e-05,6.022883462719619e-05,1.148492083302699e-05,-3.2379484764533117e-06,5.3564006520900875e-05
-3.534988354658708e-05,5.931280611548573e-05,1.150158277596347e-05,-6.1849304984207265e-06,5.370994040276855e-05
-3.450635267654434e-05,4.866351810051128e-05,9.23160132515477e-06,-1.0720354111981578e-05,4.9831633077701554e-05
-3.577104507712647e-05,3.436944098211825e-05,7.77253444539383e-06,-1.4978300896473229e-05,4.6025379560887814e-05
-3.4801443689502776e-05,3.3501484722364694e-05,8.685697139299009e-06,-1.5187158169283066e-05,4.670281850849278e-05
-3.123773058177903e-05,4.809432721231133e-05,1.111957953980891e-05,-1.2134139979025349e-05,5.1009166782023385e-05
-2.1035049940110184e-05,6.223766831681132e-05,1.169529787148349e-05,-9.785285328689497e-06,5.544469604501501e-05
-6.224710887181573e-06,6.417144322767854e-05,1.3684809346159454e-05,-7.200509571703151e-06,5.776396574219689e-05
7.417256256303517e-06,5.732820136472583e-05,1.8327436919207685e-05,-3.994646704086335e-06,5.8634344895835966e-05
1.3983503777126316e-05,4.8011545004555956e-05,1.9759530914598145e-05,-1.4935270655769273e-06,6.0829446738353e-05
8.846519449434709e-06,3.545204162946902e-05,1.631658415135462e-05,-2.9237648959679063e-06,6.473579560406506e-05
-4.64269396616146e-06,1.4214688235369977e-05,1.3120506082486827e-05,-5.688684268534416e-06,6.808195757912472e-05
-1.3617353033623658e-05,-1.0762449164758436e-05,1.240585606865352e-05,-7.117427230696194e-06,6.69241271680221e-05
-1.1676838767016307e-05,-3.139273394481279e-05,1.3849688912159763e-05,-7.5052275860798545e-06,6.311059405561537e-05
-5.789881470263936e-06,-4.793387415702455e-05,1.4655819541076198e-05,-6.656725872744573e-06,5.951043567620218e-05
-4.807715868082596e-06,-5.79847619519569e-05,1.5096234164957423e-05,-5.2612958825193346e-06,5.71978343941737e-05
-9.935920388670638e-06,-5.832785609527491e-05,1.4720590115757659e-05,-9.986993973143399e-06,5.6529992434661835e-05
-1.4111824384599458e-05,-5.233043702901341e-05,1.1456920219643507e-05,-1.5910423826426268e-05,5.8246816479368135e-05
-1.742557651596144e-05,-4.0261766116600484e-05,9.672029591456521e-06,-1.4347453543450683e-05,5.872927067684941e-05
-2.3393133233184926e-05,-2.3152933863457292e-05,9.902345482259989e-06,-1.058452016877709e-05,5.7546501921024173e-05
-3.0884148145560175e-05,-1.1484180504339747e-05,7.520346116507426e-06,-8.688460184202995e-06,5.861960744368844e-05
-3.337176895001903e-05,-6.358294740493875e-06,1.6534804672119208e-06,-9.39232086238917e-06,5.948215402895585e-05
-3.08275775751099e-05,2.518941357720905e-07,-2.986107347169309e-06,-1.1742974493245129e-05,5.649196828017011e-05
-2.9751743568340316e-05,1.3817361832479946e-05,-2.2270976387517294e-06,-1.0381035281170625e-05,5.044466888648458e-05
-3.0012548450031318e-05,4.0027684008236974e-05,3.1859301543590846e-06,-1.0127370842383243e-05,4.634425204130821e-05
-2.7717996999854222e-05,6.567579112015665e-05,7.441247817041585e-06,-1.1390477993700188e-05,4.698287739302032e-05
-2.655362186487764e-05,7.59051981731318e-05,3.195987119397614e-06,-1.3764457435172517e-05,4.821617767447606e-05
-3.079916859860532e-05,7.798009755788371e-05,-5.748918738390785e-06,-1.6302532458212227e-05,4.946947592543438e-05
-3.696902058436535e-05,8.109811460599303e-05,-1.3242423847259488e-05,-1.5373492715298198e-05,5.0844450015574694e-05
-4.057729893247597e-05,8.461214019916952e-05,-1.7345091691822745e-05,-1.6449344911961816e-05,4.819683454115875e-05
-4.0726798033574596e-05,8.328918920597062e-05,-1.5709298168076202e-05,-1.7578562619746663e-05,4.506620462052524e-05
-3.748898234334774e-05,7.767532952129841e-05,-7.765578629914671e-06,-1.6050864360295236e-05,4.570399323711172e-05
-3.37458768626675e-05,6.683381070615724e-05,-6.636925036218599e-07,-1.3060225683148019e-05,4.7781119064893574e-05
-3.333700442453846e-05,5.18633532919921e-05,8.292471989079786e-07,-1.2935684026160743e-05,5.107854667585343e-05
-3.9484202716266736e-05,3.5254932299721986e-05,-9.69058419286739e-07,-1.4138033293420449e-05,5.661318573402241e-05
-4.799241651198827e-05,2.433036388538312e-05,-2.1735988866566913e-06,-1.1683691809594166e-05,6.26100882072933e-05
-5.4479489335790277e-05,1.724261892377399e-05,1.6097284571969794e-07,-6.439715889428044e-06,6.535725697176531e-05
-5.664699347107671e-05,1.2151303053542506e-05,5.097061603009934e-06,-2.2912893200555118e-06,6.380893319146708e-05
-5.44737558811903e-05,1.3708719961869065e-05,6.685275820927927e-06,-1.7305034134551533e-06,6.283886614255607e-05
-4.926371912006289e-05,2.3993801733013242e-05,4.464587618713267e-06,-3.036284397239797e-06,6.444483733503148e-05
-4.163723497185856e-05,3.460663720034063e-05,4.249775429343572e-06,-3.420709617785178e-06,6.443061283789575e-05
-3.285547063569538e-05,3.533899871399626e-05,5.175560545467306e-06,-4.238195288053248e-06,5.9829668316524476e-05
-2.8715980079141445e-05,3.075573840760626e-05,3.269082071710727e-06,-6.854048478999175e-06,5.324251833371818e-05
-3.4724609577097e-05,2.9005121177760884e-05,-5.737483093071205e-07,-6.9618181441910565e-06,5.2277304348535836e-05
-4.180486939731054e-05,3.564630969776772e-05,-2.2966751203057356e-06,-5.254341431282228e-06,5.902499833609909e-05
-3.909409133484587e-05,4.8511341447010636e-05,-1.847165435719944e-06,-2.6599500415613875e-06,6.5519408963155e-05
-3.323840428492986e-05,5.954601874691434e-05,2.0170846255496144e-06,1.8772645944409305e-06,6.760805990779772e-05
-3.214966272935271e-05,6.435985415009782e-05,6.243912139325403e-06,3.2875318538572174e-06,6.610899436054751e-05
-3.4786757169058546e-05,6.32948795100674e-05,6.809973911003908e-06,-2.8255119559617015e-06,6.240970833459869e-05
-3.5929318983107805e-05,5.6298227718798444e-05,6.3413745010620914e-06,-1.1030044333892874e-05,6.098323501646519e-05
-2.8657135771936737e-05,4.9437247071182355e-05,6.412305538106011e-06,-1.2023413546558004e-05,6.561594636877999e-05
-2.4469241907354444e-05,4.243569492246024e-05,5.284012786432868e-06,-7.512423962907633e-06,7.018537871772423e-05
-2.9861013899790123e-05,3.524970088619739e-05,3.903996912413277e-06,-4.878633262705989e-06,6.740519893355668e-05
-4.044087836518884e-05,3.3820826502051204e-05,5.12718770551146e-06,-5.498060545505723e-06,6.293572369031608e-05
-4.816745058633387e-05,3.641861258074641e-05,8.476456059725024e-06,-8.549518497602548e-06,6.297614891082048e-05
-4.410924157127738e-05,3.575257142074406e-05,1.2854929082095623e-05,-1.1780568456742913e-05,6.404487794497982e-05
-3.2498111977474764e-05,3.242038656026125e-05,1.8491835362510756e-05,-7.701334652665537e-06,6.233415479073301e-05
-2.505170959921088e-05,2.7477843104861677e-05,2.3237062123371288e-05,1.1915708455489948e-06,5.73151555727236e-05
-2.8189271688461304e-05,2.4460638087475672e-05,2.7980104277958162e-05,5.000138571631396e-06,5.066626545158215e-05
-3.6958623240934685e-05,2.4769917217781767e-05,3.159780681016855e-05,3.8768216654716525e-06,4.72398751298897e-05
-4.277520929463208e-05,2.4667375328135677e-05,3.0474819141090848e-05,2.00807676264958e-06,4.666930908570066e-05
-4.0220624214271083e-05,2.1264404495013878e-05,2.6765099391923286e-05,1.6174585653061513e-06,4.713051748694852e-05
-3.587040555430576e-05,1.8298813301953487e-05,2.3942786356201395e-05,2.6685304419515887e-06,4.9620903155300766e-05
-3.670483420137316e-05,1.8841610653907992e-05,2.2155101760290563e-05,2.5932090466085356e-06,5.28191558260005e-05
-3.869481588480994e-05,1.9624994820333086e-05,1.9880719264619984e-05,1.0128447911483818e-06,5.571671135840006e-05
-3.5697601560968906e-05,1.637440982449334e-05,1.55347770487424e-05,-2.5999872832471738e-06,5.816872726427391e-05
-2.9132230338291265e-05,9.28824556467589e-06,1.0500598364160396e-05,-7.934436325740535e-06,5.766878530266695e-05
-2.4563740225858055e-05,7.265511158038862e-06,9.17256147658918e-06,-1.2483880709623918e-05,5.598076313617639e-05
-2.4966595447040163e-05,1.0430119800730608e-05,1.0595069397822954e-05,-1.5143377822823822e-05,5.507555033545941e-05
-2.561386463639792e-05,1.0882853530347347e-05,1.0588786608423106e-05,-1.5336680007749237e-05,5.524373773369007e-05
-2.2666712538921274e-05,8.879245797288604e-06,7.874769835325424e-06,-1.1339596312609501e-05,5.7327091781189665e-05
-2.0344816221040674e-05,1.1160884241689928e-05,7.295363047887804e-06,-8.193940630008001e-06,5.745889211539179e-05
-2.276826126035303e-05,1.7071210095309652e-05,9.627837243897375e-06,-1.2698572390945628e-05,5.596343180513941e-05
-2.9567519959528e-05,2.1868971089133993e-05,9.959784620150458e-06,-1.8242131773149595e-05,5.864999184268527e-05
-3.1705625588074327e-05,2.1535677660722286e-05,1.126216466218466e-05,-1.8442453438183293e-05,6.276255589909852e-05
-2.6436437110533006e-05,1.8327953512198292e-05,1.7161850337288342e-05,-1.5361303667305037e-05,6.341406697174534e-05
-1.5299585356842726e-05,1.766457353369333e-05,2.2631285901297815e-05,-1.3167593351681717e-05,5.830293957842514e-05
-6.720643341395771e-06,1.9286759197711945e-05,2.0511630282271653e-05,-1.6068368495325558e-05,4.890594209427945e-05
-7.428044682455948e-06,2.248611781396903e-05,1.1871200513269287e-05,-2.1244408344500698e-05,4.863867798121646e-05
-1.272650570172118e-05,2.7807691367343068e-05,5.7725428632693365e-06,-1.9901281120837666e-05,5.7002696848940104e-05
-1.8223186998511665e-05,3.501159881125204e-05,3.040401225007372e-06,-1.290822183364071e-05,6.310070602921769e-05
-2.0113366190344095e-05,3.947359437006526e-05,-4.09387666877592e-07,-8.605601578892674e-06,6.302918336587027e-05
-1.963746217370499e-05,3.4885855711763725e-05,-4.5885631152486894e-06,-1.2161413906142116e-05,5.800023427582346e-05
-1.901457471831236e-05,3.115482468274422e-05,-9.636888535169419e-06,-2.015691643464379e-05,5.582881567534059e-05
-2.0842067897319794e-05,3.249970905017108e-05,-1.1343279766151682e-05,-2.7621863409876823e-05,5.8675537729868665e-05
-2.4360062525374815e-05,3.5465334804030135e-05,-8.842500392347574e-06,-3.034185829164926e-05,6.0879814554937184e-05
-2.6458028514753096e-05,3.6004534194944426e-05,-5.0238768380950205e-06,-2.7028643671656027e-05,6.144967483123764e-05
-2.4760662199696526e-05,2.9255672416184098e-05,-1.052557308867108e-06,-2.3955673896125518e-05,5.9725331084337085e-05
-1.9484801669023e-05,1.7204685718752444e-05,1.277477053918119e-06,-2.4790826500975527e-05,5.6591288739582524e-05
-1.587831684446428e-05,5.405649517342681e-06,3.388142886251444e-06,-2.826933814503718e-05,5.6727796618361026e-05
-1.8648570403456688e-05,2.7729463454306824e-06,6.6467237047618255e-06,-3.182065483997576e-05,5.9793543186970055e-05
-2.316414611414075e-05,8.590955076215323e-06,1.0317598025721963e-05,-3.11861585942097e-05,6.246986595215276e-05
-2.6743435228127055e-05,1.9195602362742648e-05,1.2354034879535902e-05,-2.5430754249100573e-05,6.449686043197289e-05
-2.9347347663133405e-05,3.092744736932218e-05,1.1839896615128964e-05,-1.955931293196045e-05,6.624040543101728e-05
-2.855628372344654e-05,3.9543359889648855e-05,9.972090992960148e-06,-1.6571824744460173e-05,6.7381770350039e-05
-2.4922930606408045e-05,4.2431202018633485e-05,9.037636118591763e-06,-1.5369207176263444e-05,6.656066398136318e-05
-2.3215161490952596e-05,4.254535451764241e-05,9.698735993879382e-06,-1.5503468603128567e-05,6.559810572071001e-05
-2.4193443096010014e-05,4.5112494262866676e-05,9.308831067755818e-06,-1.4499891221930739e-05,6.721331737935543e-05
-2.5754980015335605e-05,4.887187242275104e-05,5.1737997637246735e-06,-1.0860350812436081e-05,6.64432009216398e-05
-2.8189440854475833e-05,4.56603811471723e-05,1.9090877856342559e-07,-8.25818187877303e-06,6.311229662969708e-05
-2.862098153855186e-05,3.6518707929644734e-05,-2.4097364530462073e-06,-6.886880782985827e-06,5.962656359770335e-05
-2.61724999290891e-05,3.0134360713418573e-05,-1.0251119419990573e-06,-7.1518065851705614e-06,5.8722285757539794e-05
-2.1514635591302067e-05,2.497237073839642e-05,3.063547865167493e-06,-6.647097961831605e-06,6.063653199817054e-05
-1.9690533008542843e-05,2.066873639705591e-05,3.318930339446524e-06,-5.004168997402303e-06,6.374227814376354e-05
-2.183730794058647e-05,1.726748450892046e-05,5.5934776810318e-07,-6.716739790135762e-06,6.60933437757194e-05
-2.4735309125389904e-05,1.837784111557994e-05,-2.914106858042942e-07,-9.92054174275836e-06,6.370459595927969e-05
-2.6350377083872445e-05,2.8273516363697127e-05,-2.3622885692020645e-06,-1.0824971468537115e-05,6.205984391272068e-05
-2.7985481210635044e-05,3.8322621549014e-05,-6.711022251693066e-06,-9.660981049819384e-06,6.641265645157546e-05
-3.0105695259408094e-05,4.0745864680502564e-05,-1.0459470104251523e-05,-9.604602382751182e-06,7.096416084095836e-05
-3.2566884328844026e-05,4.179771349299699e-05,-1.2663142115343362e-05,-1.0011593985836953e-05,6.760261749150231e-05
-3.566537270671688e-05,4.3953095882898197e-05,-1.0958529855997767e-05,-7.704376912442967e-06,5.9520098147913814e-05
-3.417848711251281e-05,4.1973271436290815e-05,-7.744688446109649e-06,-6.409739398804959e-06,5.3784464398631826e-05
-3.199221464456059e-05,3.63355029548984e-05,-6.91632294547162e-06,-8.206684469769243e-06,5.059012255514972e-05
-3.9800746890250593e-05,2.980315184686333e-05,-7.777336577419192e-06,-1.0286408723914064e-05,4.878584877587855e-05
-5.557166150538251e-05,1.9358312783879228e-05,-7.05668708178564e-06,-1.2859696653322317e-05,4.9833219236461446e-05
-6.529306847369298e-05,3.578175437723985e-06,-4.216330580675276e-06,-1.3594589290732983e-05,5.35361141373869e-05
-6.196543108671904e-05,-5.549288289330434e-06,-1.2264669067008072e-06,-1.1018911209248472e-05,5.757289181929082e-05
-5.565769242821261e-05,-5.046724254498258e-06,3.5755472254095366e-06,-8.556919965485577e-06,6.057102291379124e-05
-5.752660217694938e-05,-1.8944780322271981e-06,9.654897439759225e-06,-9.456749467062764e-06,6.139683682704344e-05
-6.259845395106822e-05,5.377465299716278e-07,1.4446703971771058e-05,-1.0847590601770207e-05,6.297500658547506e-05
-5.633648106595501e-05,2.6051566237583756e-06,1.702321424090769e-05,-9.792537639441434e-06,6.283365655690432e-05
-3.225226100767031e-05,8.33103149489034e-06,1.624345350137446e-05,-6.961847702768864e-06,5.8550762332743034e-05
1.2681078942478052e-06,2.1565239876508713e-05,1.465162949898513e-05,-5.666096967615886e-06,5.3383449994726107e-05
2.5549430574756116e-05,3.7945133954053745e-05,1.7371618014294654e-05,-4.167737643001601e-06,5.089117985335179e-05
2.7973976102657616e-05,5.028727900935337e-05,2.1092997485538945e-05,2.2793277310029225e-07,5.203992986935191e-05
1.3343055798031855e-05,5.283681093715131e-05,2.1955958800390363e-05,2.6681157123675803e-06,5.617739952867851e-05
-5.406755008152686e-06,3.9993883547140285e-05,1.9475888620945625e-05,-2.5903229925461346e-06,6.179250340210274e-05
-2.0465809939196333e-05,1.7936163203557953e-05,1.4000565897731576e-05,-1.3580677659774665e-05,6.278148794081062e-05
-2.921767736552283e-05,2.6221068765153177e-06,7.2858283601817675e-06,-1.647235876589548e-05,6.020672299200669e-05
-3.3563803299330175e-05,2.4309358082064136e-07,1.2383555940687074e-06,-1.1442309187259525e-05,6.029303767718375e-05
-3.2471714803250507e-05,6.446423412853619e-06,-1.4926364428902161e-06,-1.0765212209662423e-05,5.6813947594491765e-05
-2.61500317719765e-05,2.0620496798073873e-05,-6.807955742260674e-06,-1.3555726582126226e-05,5.127043550601229e-05
-2.227499680884648e-05,3.017862036358565e-05,-1.5722940588602796e-05,-1.543846337881405e-05,4.80794369650539e-05
-1.6606907593086362e-05,3.163184010190889e-05,-1.914445419970434e-05,-1.6936603060457855e-05,4.5442044211085886e-05
-1.090054774977034e-05,3.2000403734855354e-05,-1.646578311920166e-05,-1.5419753253809176e-05,4.5432327169692144e-05
-1.0809375453391112e-05,3.0396042348002084e-05,-1.4275698049459606e-05,-1.4797178664593957e-05,4.382593397167511e-05
-1.1567211913643405e-05,2.958286859211512e-05,-1.1920429642486852e-05,-1.70938055816805e-05,4.34499561379198e-05
-1.0054980521090329e-05,2.5964392989408225e-05,-9.246699846698903e-06,-1.9069164409302175e-05,4.7350393288070336e-05
-4.065253051521722e-06,1.986198731174227e-05,-8.971612260211259e-06,-1.8699663996812887e-05,5.037465234636329e-05
3.046244273718912e-06,2.2593310859519988e-05,-1.2904483810416423e-05,-1.30233829622739e-05,4.9042289901990443e-05
-9.448456239624647e-07,4.109985093236901e-05,-1.2528369552455842e-05,-4.908306891593384e-06,4.981097299605608e-05
-2.1840860426891595e-05,7.012311107246205e-05,2.958458253488061e-06,3.175418669343344e-06,5.6556636991444975e-05
-4.3073327105958015e-05,9.272915485780686e-05,2.2374431864591315e-05,7.081014700816013e-06,6.595337617909536e-05
-4.5429296733345836e-05,9.647109982324764e-05,2.7254969609202817e-05,5.832289843965555e-06,7.113315223250538e-05
-3.24207212543115e-05,8.19163178675808e-05,1.5756253560539335e-05,3.1580141239828663e-06,6.513028347399086e-05
-2.3618233171873726e-05,5.241254621068947e-05,1.6962104609774542e-07,2.0959731727998587e-07,5.147959745954722e-05
-3.1466166547033936e-05,4.406391781230923e-06,-7.670015293115284e-06,-2.1994608232489554e-06,4.304213507566601e-05
-5.0462509534554556e-05,-5.762275759479962e-05,-4.445923877938185e-06,-4.0957002056529745e-06,4.449961124919355e-05
-6.604354712180793e-05,-0.00010570154699962586,9.971485042115091e-07,-5.414000042947009e-06,5.325573147274554e-05
-7.187624578364193e-05,-0.00011270363029325381,1.985647259061807e-06,-4.392905793793034e-06,6.69674773234874e-05
-7.113789615686983e-05,-8.6418011051137e-05,3.0073063044255832e-06,-1.2898464092359063e-06,7.892058056313545e-05
-6.86879939166829e-05,-5.676151704392396e-05,6.6029133449774235e-06,2.1211858438618947e-06,8.612153033027425e-05
-6.580792978638783e-05,-3.8739668525522575e-05,9.755365681485273e-06,5.126149062562035e-06,8.85355839272961e-05
-5.9703015722334385e-05,-2.3605674869031645e-05,1.1920976248802617e-05,6.059682164050173e-06,8.318297477671877e-05
-4.615181387634948e-05,9.407401194039267e-06,1.7365617168252356e-05,3.907792688551126e-06,7.466803072020411e-05
-2.307612703589257e-05,5.9134981711395085e-05,2.3944139684317634e-05,3.283477667537227e-07,6.958159065106884e-05
7.773003289912594e-07,0.00010270578059135005,2.749269515334163e-05,9.643395060265902e-07,6.566858064616099e-05
1.402583802700974e-05,0.0001315408735536039,3.075274435104802e-05,3.6757257930730702e-06,6.068933362257667e-05
1.589349085406866e-05,0.00014083361020311713,2.9624203307321295e-05,1.4958159226807766e-06,5.958359543001279e-05
1.6160052837221883e-05,0.00013279648555908352,2.1990770619595423e-05,-3.29664658238471e-06,6.0511971241794527e-05
2.2771107978769578e-05,0.00011838752834592015,1.2187350876047276e-05,-8.61976332089398e-06,5.872358815395273e-05
3.340477269375697e-05,0.00010487961844773963,2.4116047825373244e-06,-1.2252828128112014e-05,5.718725151382387e-05
3.965420910390094e-05,9.114235581364483e-05,-4.950228230882203e-06,-1.7656380805419758e-05,5.2581712225219235e-05
3.2982057746266946e-05,7.518187339883298e-05,-9.558865713188425e-06,-2.7698473786585964e-05,4.676565731642768e-05
1.2358177627902478e-05,7.017765892669559e-05,-1.7696269424050115e-05,-3.391667269170284e-05,4.265126699465327e-05
-1.3463757568388246e-05,8.043749403441325e-05,-2.5137940610875376e-05,-3.019852920260746e-05,4.81069328088779e-05
-3.186398680554703e-05,9.650889114709571e-05,-2.657196091604419e-05,-1.9414263078942895e-05,6.543980998685583e-05
-3.639096757979132e-05,0.00010478765761945397,-2.384999970672652e-05,-1.2141171282564756e-05,8.449870074400678e-05
-3.5004239180125296e-05,0.0001067615594365634,-1.5397661627503112e-05,-1.1954089131904766e-05,9.24014238989912e-05
-3.8929716538405046e-05,0.00011062259727623314,-8.901396881810797e-07,-1.4724239008501172e-05,8.986282773548737e-05
-4.7654913942096755e-05,0.00011922428529942408,1.1553518561413512e-05,-1.5669127606088296e-05,8.566967881051823e-05
-5.321352000464685e-05,0.0001215896409121342,1.4400081454368774e-05,-1.468878508603666e-05,7.902891229605302e-05
-5.09998899360653e-05,9.647490514907986e-05,1.3070843124296516e-05,-1.3358409887587186e-05,6.758078961865976e-05
-4.5252796553540975e-05,3.569425825844519e-05,1.2903483366244473e-05,-1.1291180271655321e-05,5.787206464447081e-05
-4.4397267629392445e-05,-3.8134156056912616e-05,1.3375284652283881e-05,-1.0015769476012792e-05,5.546160900848918e-05
-4.747184721054509e-05,-8.227625949075446e-05,1.229402369062882e-05,-1.0695625860535074e-05,5.8068013458978385e-05
-4.821869879378937e-05,-7.341620948864147e-05,8.968348083726596e-06,-1.2099599189241417e-05,6.198634946485981e-05
-4.546954369288869e-05,-3.2468713470734656e-05,3.2516868486709427e-06,-1.3290426977619063e-05,6.107775698183104e-05
-4.135520430281758e-05,-4.299161275866936e-07,-2.89316375301496e-07,-1.4804229067522101e-05,5.719040200347081e-05
-3.326137812109664e-05,7.411051228700671e-06,8.210197393054841e-07,-1.6500049241585657e-05,5.5924632761161774e-05
-1.6248579413513653e-05,9.840963457463658e-07,2.9854634249204537e-06,-1.7420274161850102e-05,5.666091965395026e-05
1.5200868119791267e-06,-7.645005553058581e-07,2.8955253128515324e-06,-1.4568536244041752e-05,5.756224345532246e-05
6.684468644380104e-06,3.81959125661524e-06,1.7377567473886302e-06,-9.797669918043539e-06,6.126860535005108e-05
-1.680593641140149e-06,2.6494835765333846e-06,4.441312739800196e-06,-9.684086762717925e-06,6.313197809504345e-05
-1.5601423001498915e-05,-5.991912530589616e-06,1.529645305708982e-05,-2.1021169231971726e-05,5.9361533203627914e-05
-3.5762725019594654e-05,-1.9771288862102665e-05,2.1858790205442347e-05,-3.452485543675721e-05,5.269743633107282e-05
-6.015742110321298e-05,-2.964890154544264e-05,1.86666857189266e-05,-3.60081103281118e-05,4.7989065933506936e-05
-7.828592788428068e-05,-1.8345315766055137e-05,1.615355722606182e-05,-2.8075886802980676e-05,4.891357821179554e-05
-8.793603774392977e-05,6.379470050887903e-06,1.4740122423972934e-05,-1.9013305063708685e-05,5.520601189346053e-05
-8.937055099522695e-05,2.313764525752049e-05,1.741469168337062e-05,-1.0292291335645132e-05,6.004365786793642e-05
-8.560935384593904e-05,2.4689126803423278e-05,2.318951919733081e-05,-1.0178059710597154e-06,5.939344919170253e-05
-8.330016862601042e-05,2.0002184101031162e-05,2.7254493033979088e-05,7.003508471825626e-06,5.669340316671878e-05
-8.010971214389428e-05,9.933157343766652e-06,2.725153899518773e-05,1.2803384379367344e-05,5.7531127822585404e-05
-6.727642903570086e-05,1.7133820620074403e-06,2.3488712031394243e-05,1.7507074517197907e-05,6.307478179223835e-05
-4.234140942571685e-05,5.312050234351773e-06,2.075615520880092e-05,2.1779731468996033e-05,7.028241088846698e-05
-6.054155164747499e-06,1.5672114386688918e-05,1.7366453903377987e-05,2.2431582692661323e-05,7.234008808154613e-05
3.4708864404819906e-05,3.241191734559834e-05,1.2530036656244192e-05,1.8646136595634744e-05,6.763044075341895e-05
6.561770715052262e-05,5.527538451133296e-05,8.252314728451893e-06,1.2842361684306525e-05,6.093703268561512e-05
7.788048969814554e-05,7.497411570511758e-05,7.214479410322383e-06,9.147767741524149e-06,5.649502418236807e-05
7.225738954730332e-05,7.81626149546355e-05,9.1265565060894e-06,7.73012561694486e-06,5.554757080972195e-05
5.672550469171256e-05,6.33219606243074e-05,1.002520184556488e-05,9.574604519002605e-06,5.696317748515867e-05
3.6224355426384136e-05,3.381149872438982e-05,8.404161235375796e-06,1.2074249752913602e-05,5.814056930830702e-05
1.4694519450131338e-05,6.584881248272723e-06,5.079552920506103e-06,7.697393812122755e-06,5.842786777066067e-05
-3.602095148380613e-06,5.157597115612589e-06,1.8022515178017784e-06,-3.2912942060647765e-06,5.704245995730162e-05
-1.9824048649752513e-05,2.8426689823390916e-05,1.982990660565065e-08,-1.545030863780994e-05,5.279557080939412e-05
-3.4815922845155e-05,4.7996873036026955e-05,1.5619480109307915e-06,-2.159543328161817e-05,4.9502006731927395e-05
-4.8734342271927744e-05,3.612470754887909e-05,4.453158453543438e-06,-2.0300598407629877e-05,4.641210398403928e-05
-6.150774424895644e-05,-9.473868885834236e-06,4.309449195716297e-06,-1.6456211596960202e-05,4.383427949505858e-05
-6.89809094183147e-05,-5.1124010497005656e-05,2.0060451788594946e-06,-1.23611644085031e-05,4.2007184674730524e-05
-6.748187297489494e-05,-5.948286343482323e-05,-1.9498752408253495e-06,-1.2032279300910886e-05,4.143027763348073e-05
-6.0305763327050954e-05,-4.8451423936057836e-05,-1.173850705527002e-05,-1.4943506357667502e-05,4.334977347753011e-05
-5.382037124945782e-05,-4.006162635050714e-05,-2.1662146536982618e-05,-1.8685423128772527e-05,4.6763747377553955e-05
-4.443472789716907e-05,-4.8145604523597285e-05,-2.5620422093197703e-05,-1.7861499145510606e-05,5.134142702445388e-05
-2.7478585252538323e-05,-6.16043180343695e-05,-1.8993843696080148e-05,-1.4439934602705762e-05,5.855237031937577e-05
-1.8496119082556106e-05,-5.016620707465336e-05,-6.73319573252229e-06,-1.0538332389842253e-05,6.352447962854058e-05
-1.9726941900444217e-05,-1.317697751801461e-05,2.758557229753933e-06,-1.5668554169678828e-06,6.292104080785066e-05
-2.1047644622740336e-05,2.5797144189709798e-05,9.505025445832871e-06,4.3257696233922616e-06,5.736393723054789e-05
-1.9406679712119512e-05,5.4650216043228284e-05,1.5445044482476078e-05,2.304640929651214e-06,5.233311094343662e-05
-1.0102262422151398e-05,7.329318759730086e-05,2.140524156857282e-05,-3.960441972594708e-06,5.3336229029810056e-05
2.1525340798689285e-06,8.173991955118254e-05,2.3159302145359106e-05,-6.8677531999128405e-06,5.591121225734241e-05
9.475930710323155e-06,7.680605631321669e-05,1.9744384189834818e-05,-7.83058385422919e-06,5.750329000875354e-05
4.6210657274059486e-06,6.832696817582473e-05,1.1453067600086797e-05,-6.928586572030326e-06,5.685299765900709e-05
-5.735436388931703e-06,6.495811248896644e-05,5.668111498380313e-06,-2.80803624264081e-06,5.4443353292299435e-05
-1.5572568372590467e-05,6.90841770847328e-05,3.6940236896043643e-06,4.575235379888909e-06,5.309993139235303e-05
-2.230305108241737e-05,7.985901174833998e-05,2.6041270757559687e-06,5.595813945546979e-06,5.4156582336872816e-05
-2.7884832888958044e-05,8.757247996982187e-05,1.713799520075554e-06,-4.101875219930662e-06,5.551610956899822e-05
-4.19109856011346e-05,8.430099114775658e-05,1.1200414746781462e-06,-1.4496850781142712e-05,5.269815301289782e-05
-6.32772280368954e-05,7.610073225805536e-05,5.451011020340957e-07,-1.8518767319619656e-05,4.8058416723506525e-05
-7.753598765702918e-05,7.093640306266025e-05,1.947245891642524e-06,-1.8291601008968428e-05,4.6221368393162265e-05
-7.572344475192949e-05,6.496885180240497e-05,5.802393388876226e-06,-1.7737093003233895e-05,4.840582187171094e-05
-6.642987136729062e-05,5.8238660130882636e-05,7.617473784193862e-06,-1.5176239685388282e-05,4.980639641871676e-05
-6.0644204495474696e-05,5.4687705414835364e-05,6.451200988522032e-06,-1.026535846904153e-05,4.940875442116521e-05
-5.859911107108928e-05,5.6512719311285764e-05,4.238564088154817e-06,-3.5638299777929205e-06,5.169625364942476e-05
-5.2522045734804124e-05,5.915974543313496e-05,2.8892786758660804e-06,2.657840468600625e-06,5.7078650570474565e-05
-4.220579285174608e-05,5.3772044338984415e-05,4.404050741868559e-06,7.322578767343657e-06,6.162778299767524e-05
-3.168586772517301e-05,4.28283674409613e-05,7.475891834474169e-06,9.98413725028513e-06,6.39077479718253e-05
-1.972849713638425e-05,3.6484892916632816e-05,5.723854883399326e-06,1.4582215953851119e-05,6.668225978501141e-05
-1.4786994597670855e-06,3.4492248232709244e-05,6.007028787280433e-06,1.7735312212607823e-05,6.815281085437164e-05
2.021753061853815e-05,3.202441439498216e-05,1.2434375094017014e-05,1.784385494829621e-05,6.46991902613081e-05
3.596036185626872e-05,2.900608888012357e-05,1.724697904137429e-05,1.387458269164199e-05,6.168847176013514e-05
4.307241033529863e-05,2.1617828679154627e-05,1.561536373628769e-05,1.1274670214334037e-05,6.457862036768347e-05
5.4245687351794913e-05,1.0566712262516376e-05,1.1271729817963205e-05,1.1903684026037809e-05,7.376891153398901e-05
6.409833440557122e-05,-2.4260727968794527e-06,7.257525794557296e-06,5.2302070798759814e-06,8.120049460558221e-05
6.0508707974804565e-05,-1.4610744983656332e-05,4.58357726529357e-06,-6.934076736797579e-06,7.887883839430287e-05
3.9584578189533204e-05,-1.882756987470202e-05,3.098493834841065e-06,-1.4901396752975415e-05,7.396688306471333e-05
1.1737319255189504e-05,-1.2860307833761908e-05,-3.4939273518830305e-07,-1.728743336570915e-05,6.831172504462302e-05
-8.680540304339956e-06,-6.947836936888052e-06,-3.829317392956e-06,-1.827252890507225e-05,6.413514347514138e-05
-2.0800147467525676e-05,-7.979572728800122e-06,-3.123619990219595e-06,-1.9582852473831736e-05,6.310528988251463e-05
-2.94094170385506e-05,-5.735605554946233e-06,-1.0518591579966596e-06,-2.3094638891052455e-05,6.512620893772691e-05
-4.075466495123692e-05,4.5507367758546025e-06,-1.3713560065298225e-06,-2.403131475148257e-05,6.65113257127814e-05
-5.563316881307401e-05,1.219569458044134e-05,-2.359114887440228e-06,-1.876576425274834e-05,6.450393266277388e-05
-6.962978659430519e-05,8.159460776369087e-06,-8.603994388067804e-07,-1.4169345377013087e-05,6.352251511998475e-05
-7.650648331036791e-05,3.973977072746493e-06,3.7581116885121446e-06,-1.4564273442374542e-05,6.62468810332939e-05
-7.331640517804772e-05,7.458791969838785e-06,8.25822280603461e-06,-1.602973679837305e-05,6.976893928367645e-05
-5.919727846048772e-05,1.284678091906244e-05,6.759967618563678e-06,-1.608107595529873e-05,7.114648178685457e-05
-4.3907890358241275e-05,1.718677049211692e-05,-2.2189040294051665e-07,-1.58144084707601e-05,6.915631092851982e-05
-3.3443589927628636e-05,2.4605817088740878e-05,-4.9177879191120155e-06,-1.69298546097707e-05,6.619755004066974e-05
-2.7222635253565386e-05,3.365936208865605e-05,-4.632058335118927e-06,-1.9028288079425693e-05,6.585248047485948e-05
-2.4144945200532675e-05,3.818596451310441e-05,-3.2054463190434035e-06,-2.202525683969725e-05,6.621747888857499e-05
-2.6902594981947914e-05,3.713885598699562e-05,-4.382000042824075e-06,-2.7657948521664366e-05,6.40472280792892e-05
-3.35527874995023e-05,3.06551628455054e-05,-7.65083223086549e-06,-3.294467751402408e-05,5.910270556341857e-05
-3.8886701076989993e-05,2.1614430806948803e-05,-9.563780622556806e-06,-3.36691846314352e-05,5.6030508858384565e-05
-3.8363748899428174e-05,2.0385368770803325e-05,-1.1953487046412192e-05,-2.6891693778452463e-05,5.4610474762739614e-05
-3.265522173023783e-05,3.0199269531294703e-05,-1.511483878857689e-05,-1.6386054994654842e-05,5.3346098866313696e-05
-2.7805945137515664e-05,4.238276960677467e-05,-1.5102481484063901e-05,-1.0576881322776899e-05,5.090531340101734e-05
-2.700170807656832e-05,5.55806363990996e-05,-1.2809154213755392e-05,-1.083614188246429e-05,4.79242044093553e-05
-2.8458545784815215e-05,6.876770930830389e-05,-7.118962457752787e-06,-1.1282062587270048e-05,5.0770257075782865e-05
-3.0145713026286103e-05,7.404832285828888e-05,-2.2435913251683814e-06,-1.170581435872009e-05,5.41937661182601e-05
-3.278269286965951e-05,6.839585694251582e-05,-2.569117214079597e-06,-1.3859087630407885e-05,5.069767576060258e-05
-3.283421028754674e-05,6.211209984030575e-05,-7.164620910771191e-06,-1.4332648788695224e-05,4.840817564399913e-05
-3.196239049430005e-05,5.8495472330832854e-05,-1.1692442967614625e-05,-1.3295726603246294e-05,5.147948832018301e-05
-3.463394023128785e-05,4.644379805540666e-05,-1.5308871297747828e-05,-1.5072083442646544e-05,5.4318588809110224e-05
-3.867419945891015e-05,2.941035018011462e-05,-1.6182013496290892e-05,-1.9982804587925784e-05,5.288375905365683e-05
-4.241834903950803e-05,2.5008461307152174e-05,-1.0755463335954119e-05,-2.1071859009680338e-05,5.364321987144649e-05
-4.736645132652484e-05,3.203845699317753e-05,-3.1171800856100162e-06,-1.9056975361309014e-05,5.501205305336043e-05
-5.0666320021264255e-05,3.454892066656612e-05,2.9873981475248e-06,-1.827284177124966e-05,5.4093827202450484e-05
-4.946336048305966e-05,2.8002097678836435e-05,5.244939984550001e-06,-2.0223136743879877e-05,5.319981210050173e-05
-4.5886852603871375e-05,2.5683499188744463e-05,5.6374838095507585e-06,-2.052493618975859e-05,5.368908023228869e-05
-4.487697151489556e-05,3.319326788187027e-05,7.00312602930353e-06,-1.870888445409946e-05,5.5563421483384445e-05
-4.583384725265205e-05,3.8709258660674095e-05,8.52486027724808e-06,-1.755045013851486e-05,5.62363384233322e-05
-4.440144039108418e-05,3.613704757299274e-05,1.0611423022055533e-05,-1.709133903204929e-05,5.253724884823896e-05
-4.1779519960982725e-05,2.848586518666707e-05,1.3333323295228183e-05,-1.7973528883885592e-05,4.777935100719333e-05
-4.115469710086472e-05,2.0812060029129498e-05,1.567203253216576e-05,-1.966805757547263e-05,4.574978811433539e-05
-4.365297718322836e-05,1.9375383999431506e-05,1.472696203563828e-05,-1.939464345923625e-05,4.4086344132665545e-05
-4.7548888687742874e-05,2.5342571461806074e-05,1.052275092661148e-05,-1.610068829904776e-05,4.064301174366847e-05
-4.818743036594242e-05,3.1512139685219154e-05,6.7691785261558834e-06,-1.6071537174866535e-05,3.515462594805285e-05
-4.325267582316883e-05,3.113764978479594e-05,7.4253857746953145e-06,-2.2854168491903692e-05,3.165808448102325e-05
-3.381631904630922e-05,2.751419015112333e-05,1.0772276255011093e-05,-3.0298569981823675e-05,3.120323526673019e-05
-2.4867107640602626e-05,2.4682303774170578e-05,1.3396759641182143e-05,-3.2871466828510165e-05,3.1940082408254966e-05
-1.7726642909110524e-05,2.0249261069693603e-05,1.6841406250023283e-05,-3.8324793422361836e-05,3.222667510272004e-05
-8.32637851999607e-06,2.0557476091198623e-05,1.6778756616986357e-05,-5.358927228371613e-05,3.66077983926516e-05
2.4725156890781363e-06,3.164002555422485e-05,1.3049575500190258e-05,-6.940749881323427e-05,5.1546841859817505e-05
9.846937246038578e-06,4.229310798109509e-05,1.2218302799738012e-05,-7.597560033900663e-05,7.330856897169724e-05
5.016132945456775e-06,4.431300112628378e-05,1.4251420907385182e-05,-7.390591053990647e-05,8.613806130597368e-05
-5.97372900301707e-06,4.2649509850889444e-05,1.3189061974117067e-05,-6.550674152094871e-05,8.772157889325172e-05
-9.046156264957972e-06,3.985568764619529e-05,1.072599297913257e-05,-5.389967918745242e-05,8.339616033481434e-05
-3.0257356229412835e-06,3.3487609471194446e-05,1.0393628144811373e-05,-4.304016329115257e-05,8.015002094907686e-05
8.178546522685792e-06,2.427284198347479e-05,1.1120348062831908e-05,-3.2047475542640314e-05,7.721639121882617e-05
1.4333079889183864e-05,1.5267696653609164e-05,9.91342130873818e-06,-2.0480321836657822e-05,7.122546230675653e-05
1.0910779565165285e-05,5.279587185214041e-06,6.098660378484055e-06,-1.5827239622012712e-05,6.856652908027172e-05
2.4534083422622643e-06,1.581996912136674e-06,3.2185685086005833e-06,-1.3903047147323377e-05,6.692855822620913e-05
-7.34169952920638e-06,1.0132915122085251e-05,4.794779670191929e-06,-7.621449640282663e-06,6.489732186309993e-05
-1.931406404764857e-05,2.179413968406152e-05,8.882318979885895e-06,4.468249244382605e-06,6.213806045707315e-05
-3.13557538902387e-05,2.3863727619755082e-05,1.2220181815791875e-05,1.6886564480955712e-05,5.9138070355402306e-05
-3.653043313533999e-05,1.623246498638764e-05,1.3076684808766004e-05,2.197374305978883e-05,5.5891432566568255e-05
-3.383541479706764e-05,1.27860739667085e-05,9.734363629831932e-06,1.857933239080012e-05,5.242420229478739e-05
-2.7131154638482258e-05,1.952443017216865e-05,8.989401067083236e-06,1.263843023480149e-05,5.141932706465013e-05
-2.4393402782152407e-05,2.4110671802191064e-05,1.0829084203578532e-05,7.4703816608234774e-06,5.233813863014802e-05
-2.943485014839098e-05,1.1609058674366679e-05,9.91131855698768e-06,1.2534148936538259e-06,5.447874718811363e-05
-3.6431269109016284e-05,-8.394669748668093e-06,6.901708729856182e-06,-1.3879163134333794e-06,5.548633271246217e-05
-3.798673424171284e-05,-1.2648373740375973e-05,2.8840979666711064e-06,2.2147501113067847e-06,5.619192234007642e-05
-3.784609725698829e-05,-7.12115081569209e-07,-2.0693957480943936e-07,9.127754310611635e-06,5.698763925465755e-05
-4.024757436127402e-05,1.0142007340618875e-05,3.7148599858483067e-06,1.4823381206952035e-05,5.553894879994914e-05
-3.897217902704142e-05,2.104737541230861e-05,1.0803586519614328e-05,1.8666647520149127e-05,5.257488737697713e-05
-3.343979551573284e-05,3.2685522455722094e-05,1.2827927093894687e-05,1.9402756151976064e-05,4.959190482622944e-05
-3.1171231967164204e-05,3.3364372939104214e-05,8.640743544674478e-06,1.496124968980439e-05,4.6082444896455854e-05
-3.625221870606765e-05,3.132486017420888e-05,5.932226031291066e-06,5.287940894049825e-06,4.279219137970358e-05
-4.777355570695363e-05,3.970701072830707e-05,1.0563150681264233e-05,-4.79088657812099e-06,4.269116834620945e-05
-5.943312498857267e-05,5.107060133013874e-05,1.776082172000315e-05,-3.991799076175084e-06,4.944121610606089e-05
-6.782654963899404e-05,5.6826233048923314e-05,2.078050238196738e-05,7.559569439763436e-06,6.549315003212541e-05
-6.931750249350443e-05,5.9487847465788946e-05,1.3039189070696011e-05,1.1874655683641322e-05,8.097581303445622e-05
