-2.3899758161860518e-05,3.606497557484545e-05,7.2390585046377964e-06,-8.660877028887626e-06,7.268783519975841e-05
-3.283785190433264e-05,6.142751226434484e-05,7.230179107864387e-06,-8.440497367701028e-06,7.007721433183178e-05
-4.1046580008696765e-05,7.237779936986044e-05,6.912981916684657e-06,-1.1350892236805521e-05,6.950855458853766e-05
-4.790975071955472e-05,6.570907862624153e-05,6.904915608174633e-06,-1.186867848446127e-05,6.76526251481846e-05
-4.744142643176019e-05,5.899274401599541e-05,3.415839728404535e-06,-1.0668026334315073e-05,6.799574475735426e-05
-4.335503399488516e-05,5.859698649146594e-05,-2.3643481199542293e-06,-9.915705959429033e-06,6.81797755532898e-05
-4.081727456650697e-05,5.697220694855787e-05,-6.4959117480611894e-06,-1.4170781469147187e-05,6.498902075691149e-05
-4.37182497989852e-05,5.1621431339299306e-05,-8.044688911468256e-06,-2.5407744033145718e-05,6.0627593484241515e-05
-4.507106859819032e-05,4.4909047574037686e-05,-7.815623575879727e-06,-3.688384094857611e-05,6.043334360583685e-05
-4.1419072658754885e-05,3.544978972058743e-05,-7.515190645790426e-06,-4.344806802691892e-05,6.212895823409781e-05
-3.76138741557952e-05,2.0522507838904858e-05,-1.03077163657872e-05,-4.2606454371707514e-05,6.059476072550751e-05
-3.75695526599884e-05,8.972800969786476e-06,-1.3513484191207681e-05,-3.849538188660517e-05,5.458332088892348e-05
-3.854305759887211e-05,1.2836679161409847e-05,-1.3759065950580407e-05,-3.4850228985305876e-05,4.8407455324195325e-05
-3.264928818680346e-05,2.532383587094955e-05,-1.3422333722701296e-05,-3.168055263813585e-05,4.8548608901910484e-05
-2.244851020805072e-05,3.282201578258537e-05,-1.3173544175515417e-05,-2.7762096578953788e-05,5.28787677467335e-05
-1.694176535238512e-05,3.6019395338371396e-05,-1.2096388672944158e-05,-1.9896371668437496e-05,5.4221756727201864e-05
-1.837418858485762e-05,4.502991941990331e-05,-1.1267876288911793e-05,-1.018609600578202e-05,5.21069741807878e-05
-2.0815175957977772e-05,6.076170029700734e-05,-1.0480595847184304e-05,-6.5927401919907425e-06,4.980545782018453e-05
-1.9884490029653534e-05,6.887334166094661e-05,-8.735028131923173e-06,-1.657874781813007e-05,5.06263313582167e-05
-1.5624713341821916e-05,5.8995366998715326e-05,-7.581954378110822e-06,-3.991121411672793e-05,5.360909563023597e-05
-1.3112477063259576e-05,4.1893727029673755e-05,-7.362339601968415e-06,-6.617535836994648e-05,5.44215836271178e-05
-1.552286630612798e-05,3.592927532736212e-05,-8.91865147423232e-06,-8.114110823953524e-05,5.399090878199786e-05
-1.8674003513297066e-05,3.983179703936912e-05,-1.1184170944034122e-05,-8.310435805469751e-05,5.63785906706471e-05
-1.821822479541879e-05,3.981319605372846e-05,-8.896373401512392e-06,-7.733781239949167e-05,6.0321846831357107e-05
-1.5307770809158683e-05,3.294046473456547e-05,-2.089040435748757e-06,-6.411346839740872e-05,6.264995317906141e-05
-8.902094123186544e-06,2.3909298761282116e-05,4.239055670041125e-06,-4.394216011860408e-05,6.329649477265775e-05
-1.7184862599606276e-06,2.4705972464289516e-05,5.090522336104186e-06,-2.0303377823438495e-05,6.0146561736473814e-05
-5.328882252797484e-06,3.395193925825879e-05,-1.0829392067535082e-06,8.65887341205962e-06,5.3963733080308884e-05
-2.219701127614826e-05,4.285208342480473e-05,-5.784260793006979e-06,3.6148478102404624e-05,5.287848034640774e-05
-3.856635157717392e-05,4.192591950413771e-05,-7.69430789659964e-06,5.59229520149529e-05,5.326003156369552e-05
-4.424193684826605e-05,1.7815676983445883e-05,-8.728984539629892e-06,7.071330037433654e-05,5.331500506144948e-05
-4.234955849824473e-05,-2.2262785932980478e-05,-5.717335170629667e-06,7.46241639717482e-05,5.352617517928593e-05
-4.028512194054201e-05,-4.778454240295105e-05,1.6526327044630307e-06,7.241128332680091e-05,5.0823022320400923e-05
-3.7961832276778296e-05,-4.2523144657025114e-05,1.1588037523324601e-05,6.287877477006987e-05,5.047544982517138e-05
-3.458823630353436e-05,-2.2083064322941937e-05,1.9142398741678335e-05,4.7409488615812734e-05,5.087192403152585e-05
-3.0133160180412233e-05,-1.7090032997657545e-06,2.6870924557442777e-05,3.338377791806124e-05,5.435963248601183e-05
-2.417267023702152e-05,5.0550661399029195e-06,3.721651592059061e-05,2.3818787667551078e-05,5.8221135986968875e-05
-2.1277104679029435e-05,-3.83175688511983e-07,4.622897176886909e-05,1.5797026208019815e-05,6.236870831344277e-05
-2.062332168861758e-05,-7.119712790881749e-06,5.0313454266870394e-05,4.650069968192838e-06,6.364402361214161e-05
-2.2400266971089877e-05,-6.604314876312856e-06,4.4520646042656153e-05,-5.067614438303281e-06,6.287706492003053e-05
-2.7941883672610857e-05,7.337254373851465e-06,3.144336733384989e-05,-1.5203188922896516e-05,6.197258335305378e-05
-3.368967372807674e-05,2.7387986847315915e-05,1.779022568371147e-05,-3.05080884572817e-05,5.7352684962097555e-05
-3.5149707400705665e-05,3.8055201002862304e-05,7.4650824899435975e-06,-5.305111699271947e-05,5.204089393373579e-05
-3.1151103030424565e-05,3.578883479349315e-05,5.881751121705747e-07,-7.531701703555882e-05,5.183293978916481e-05
-2.375459371251054e-05,3.1191655580187216e-05,-4.8451115617353935e-06,-8.866092684911564e-05,5.6318767747143283e-05
-1.705587055766955e-05,2.9899396395194344e-05,-1.0773379472084343e-05,-8.89896327862516e-05,5.850977322552353e-05
-1.286111455556238e-05,3.0857328965794295e-05,-1.5245567738020327e-05,-7.797704893164337e-05,5.688673263648525e-05
-1.1876839380420279e-05,3.355441731400788e-05,-1.3342274542083032e-05,-6.0019567172275856e-05,5.239172241999768e-05
-1.3189862329454627e-05,3.8594938814640045e-05,-8.770733984420076e-06,-4.281657675164752e-05,4.911832002107985e-05
-1.1296820048301015e-05,4.280172288417816e-05,-9.264917025575414e-06,-3.1240266253007576e-05,4.9599500925978646e-05
-8.510057341482025e-06,4.391463880892843e-05,-1.0931966244243085e-05,-2.029905590461567e-05,5.344436794985086e-05
-7.163498594309203e-06,3.5995555663248524e-05,-3.131630819552811e-06,-3.577185452741105e-06,5.643040640279651e-05
-6.882365596538875e-06,1.8920816728495993e-05,9.124057214648928e-06,1.710934520815499e-05,5.707996751880273e-05
-1.4365224160428625e-05,1.2151231203461066e-05,1.9000532120116986e-05,3.7395988329080865e-05,5.363317541196011e-05
-2.8706188459182158e-05,3.623472366598435e-05,3.082134935539216e-05,6.639255298068747e-05,4.740863005281426e-05
-3.7508267269004136e-05,7.068480044836178e-05,4.137898940825835e-05,9.146524826064706e-05,4.244146475684829e-05
-3.6941437429049984e-05,8.779422933002934e-05,4.827665179618634e-05,9.18482182896696e-05,4.3918735173065215e-05
-3.332533742650412e-05,8.1348029198125e-05,5.152805897523649e-05,7.479133637389168e-05,5.2168426918797195e-05
-2.7471587600302882e-05,5.873317059013061e-05,4.620161053026095e-05,5.470059113577008e-05,6.222946831258014e-05
-2.2648275262326933e-05,3.561928679118864e-05,3.396931424504146e-05,4.408859240356833e-05,7.062767690513283e-05
-2.1858351828996092e-05,2.5989438654505648e-05,1.9566125047276728e-05,3.843691956717521e-05,7.477839972125366e-05
-2.4553444745833986e-05,3.665195617941208e-05,5.507522018888267e-06,2.9287219149409793e-05,7.012148125795648e-05
-2.8463522539823316e-05,5.144053648109548e-05,-5.172672899789177e-06,1.4838753486401401e-05,6.258573557715863e-05
-2.851630597433541e-05,5.1058916142210364e-05,-9.993401363317389e-06,1.6562011069254368e-06,5.731342753279023e-05
-2.641346691234503e-05,2.4057639166130684e-05,-1.5265813999576494e-05,-3.803658273682231e-06,5.608014907920733e-05
-2.1377449229476042e-05,-1.4335245396068785e-05,-2.3212549422169104e-05,-4.709990662377095e-06,5.369302016333677e-05
-1.5021360923128668e-05,-3.9768372516846284e-05,-2.7173577109351754e-05,-7.569793069706066e-06,4.8386376874987036e-05
-1.2561262337840162e-05,-4.2277479224139825e-05,-2.661373400769662e-05,-1.1356860341038555e-05,4.779126902576536e-05
-1.6374595361412503e-05,-3.2197720429394394e-05,-2.55631712207105e-05,-1.0684862900234293e-05,5.221357787377201e-05
-2.5138417186099105e-05,-2.029954339377582e-05,-2.545256029407028e-05,-9.04882836039178e-06,5.492533455253579e-05
-3.4851393138524145e-05,-5.308377239998663e-06,-2.4759752704994753e-05,-9.794234756554943e-06,5.483846689458005e-05
-4.123015605728142e-05,1.6253279682132415e-05,-1.9140055883326568e-05,-8.737584721529856e-06,5.5474796681664884e-05
-3.8248439523158595e-05,4.187229205854237e-05,-8.58808107295772e-06,-3.7788827285112347e-06,5.805259570479393e-05
-2.4187829694710672e-05,6.243432289920747e-05,-1.9002915223609307e-06,-1.2773926982845296e-06,6.310929893516004e-05
-8.600417459092569e-06,6.885826587677002e-05,-2.46776471612975e-06,-1.988392796192784e-06,6.610585114685819e-05
4.7429193728021346e-07,5.807965499116108e-05,-4.2376609599159565e-06,-5.002727903047344e-06,6.521309114759788e-05
4.7206099225149956e-06,3.912673855666071e-05,-2.1791479412058834e-06,-1.0907532669079956e-05,6.201128417160362e-05
6.9391639954119455e-06,2.3476000933442265e-05,1.894754973363888e-06,-1.5404270016006194e-05,6.480322917923331e-05
6.922057764313649e-06,2.1358515368774533e-05,2.9692898806388257e-06,-1.4357647160068154e-05,7.235801604110748e-05
-1.695879745966522e-06,2.5679935788502917e-05,1.3366840221351595e-06,-1.0195644790655933e-05,7.665073644602671e-05
-1.663396687945351e-05,2.443530502205249e-05,-2.1045298126409762e-07,-4.357689249445684e-06,7.394396379822865e-05
-2.8827642381656915e-05,2.0165643945802003e-05,9.925536232913146e-07,-5.1752776926150545e-06,6.626778485951945e-05
-3.4850891097448766e-05,1.652278660912998e-05,3.29839053847536e-06,-8.929400792112574e-06,6.588032556464896e-05
-3.5642773582367226e-05,1.6376372514059767e-05,4.133349193580216e-06,-9.3170292529976e-06,7.364722841884941e-05
-3.066029603360221e-05,2.6573563445708714e-05,7.034468126221327e-06,-1.1235231795581058e-05,7.496937178075314e-05
-2.3539760150015354e-05,3.8098856748547405e-05,1.2340013199718669e-05,-1.5346558939199895e-05,6.982900231378153e-05
-1.990843884414062e-05,4.710130815510638e-05,1.8290764273842797e-05,-1.4125064808467869e-05,6.467758794315159e-05
-1.8814022041624412e-05,5.636405694531277e-05,2.3559838155051693e-05,-7.806725989212282e-06,6.581912748515606e-05
-2.0770003175130114e-05,5.8072542742593214e-05,2.5998457203968428e-05,-5.812109066027915e-06,7.103001553332433e-05
-2.5171199013129808e-05,4.863067078986205e-05,2.406952262390405e-05,-7.119077963579912e-06,7.395707507384941e-05
-3.0384566343855113e-05,4.3566469685174525e-05,1.9883125787600875e-05,-8.351154065167066e-06,7.372626714641228e-05
-3.643489981186576e-05,4.907481707050465e-05,1.552135836391244e-05,-1.1935076145164203e-05,7.517109042964876e-05
-4.175330468569882e-05,5.3257448598742485e-05,1.0682950232876465e-05,-2.706371378735639e-05,7.8819808550179e-05
-4.409810935612768e-05,4.583526242640801e-05,1.2793481118933414e-06,-5.611772940028459e-05,8.056858496274799e-05
-4.198435271973722e-05,2.89453146251617e-05,-1.2862370567745529e-05,-9.074439003597945e-05,7.996456406544894e-05
-3.586979437386617e-05,1.078479181160219e-05,-2.3924230845295824e-05,-0.00011674810957629234,7.799862214596942e-05
-3.068798832828179e-05,1.7152518694274477e-06,-2.7208650863030925e-05,-0.0001289217034354806,7.636321970494464e-05
-2.879919520637486e-05,5.633513410430169e-06,-2.553225203882903e-05,-0.000131896129460074,7.661686686333269e-05
-2.9785980586893857e-05,7.84204985393444e-06,-2.077095450658817e-05,-0.00012897523993160576,7.551949238404632e-05
-3.2428535632789135e-05,4.373874617158435e-06,-1.5021888430055697e-05,-0.00011605359031818807,7.172317418735474e-05
-3.698229920701124e-05,5.934561158937868e-06,-1.0186381587118376e-05,-9.092093387153e-05,6.648145790677518e-05
-4.404433639138006e-05,1.5132943190110382e-05,-5.174215857550735e-06,-5.85743946430739e-05,5.6158511142712086e-05
-5.27933552803006e-05,2.76940809271764e-05,2.7471676276036305e-06,-2.5012692276504822e-05,4.455193266039714e-05
-5.694392166333273e-05,4.319871368352324e-05,1.533015165477991e-05,5.082061306893593e-06,3.924876364180818e-05
-5.232308467384428e-05,4.668961264542304e-05,2.758057053142693e-05,3.0232415156206116e-05,3.969841418438591e-05
-4.846497540711425e-05,2.6935433197650127e-05,3.921078678104095e-05,5.282042911858298e-05,3.987099989899434e-05
-4.92681901960168e-05,-4.8989190872816835e-06,4.7968089347705245e-05,7.456617458956316e-05,4.031504431623034e-05
-5.0353068218100816e-05,-3.134706275886856e-05,5.5218173656612635e-05,9.195038728648797e-05,4.400017496664077e-05
-5.006798164686188e-05,-2.9628703487105668e-05,6.251392187550664e-05,0.00010507576371310279,5.036584479967132e-05
-5.772070289822295e-05,2.1745936464867555e-06,6.0243619373068213e-05,0.00011190740769961849,5.207646972849034e-05
-6.875120743643492e-05,2.8388318241923116e-05,4.8200145101873204e-05,9.959804447134957e-05,5.167860581423156e-05
-7.61093178880401e-05,3.639073111116886e-05,3.387836477486417e-05,7.279162673512474e-05,4.995428753318265e-05
-7.285895117092878e-05,4.027601607958786e-05,2.2267422536970116e-05,4.315295518608764e-05,4.9579488404560834e-05
-5.031228283769451e-05,4.5531422074418515e-05,1.3786916497338098e-05,1.5470912330783904e-05,5.356810288503766e-05
-1.9268585674581118e-05,4.8763238737592474e-05,1.0153999937756453e-05,-2.65850786718147e-07,5.996939216856845e-05
4.688450189860305e-06,4.123736289329827e-05,8.339808118762448e-06,-5.134691036801087e-06,6.68720094836317e-05
1.2793028872692958e-05,2.462694283167366e-05,3.5407063023740193e-06,-8.507768143317662e-06,6.964085332583636e-05
1.4419683793676086e-05,1.8275060938321985e-05,-6.572720394615317e-07,-1.5222985894070007e-05,7.173533231252804e-05
1.3069141459709499e-05,2.8826500056311488e-05,-2.5994365842052503e-06,-2.0000359654659405e-05,7.579623343190178e-05
9.900995792122558e-06,3.488078073132783e-05,-7.431901394738816e-06,-2.0450288502615876e-05,7.897495379438624e-05
3.3348712804581737e-06,2.3314645659411326e-05,-1.6985160982585512e-05,-2.0128207324887626e-05,7.712614751653746e-05
-4.297461600799579e-06,1.180544677481521e-05,-2.183157266699709e-05,-2.0470852177822962e-05,7.230399933177978e-05
-1.1622681086009834e-05,1.6271627828245983e-05,-1.83088741323445e-05,-2.118171141773928e-05,6.826668686699122e-05
-2.2042408090783283e-05,2.851734279829543e-05,-1.1989490303676575e-05,-2.3642738597118296e-05,6.560157635249197e-05
-3.585957165341824e-05,3.852533336612396e-05,-6.379363185260445e-06,-2.6710398742579855e-05,6.20526698185131e-05
-4.645822991733439e-05,5.4529788030777127e-05,-7.879877443883743e-07,-2.8060681870556436e-05,5.7298759202240035e-05
-4.577677100314759e-05,7.918258779682219e-05,3.4736617635644507e-06,-2.8713739084196277e-05,5.5230742873391137e-05
-3.5467412089928985e-05,9.796145604923368e-05,5.7904744608094916e-06,-2.9428580091916956e-05,5.6890752603067085e-05
-2.1213889340288006e-05,0.00011254377022851259,9.435075298824813e-06,-3.114750870736316e-05,6.0439833760028705e-05
-8.585376235714648e-06,0.00013316886906977743,1.4856241250527091e-05,-3.5037075576838106e-05,6.120561010902748e-05
1.5508607020819909e-06,0.00015008315676823258,1.5089914086274803e-05,-3.804765219683759e-05,5.7371962611796334e-05
3.847320840577595e-06,0.00014778632612433285,9.313894224760588e-06,-3.597943941713311e-05,5.20574685651809e-05
-4.149215783399995e-06,0.00012066074850736186,3.844016191578703e-06,-3.5395896702539176e-05,4.709180211648345e-05
-1.5130337487789802e-05,6.939539161976427e-05,1.744242354106973e-06,-3.398862827452831e-05,4.561111200018786e-05
-1.4145770364848431e-05,-6.846565611340338e-06,3.4934457744384417e-06,-2.760659481282346e-05,4.9751961341826245e-05
-6.504111297545023e-06,-9.348554885946214e-05,6.159269105410203e-06,-2.625425986479968e-05,5.804131069453433e-05
-4.540011104836594e-06,-0.0001315455010626465,6.564459454239113e-06,-2.8411879611667246e-05,6.156392191769555e-05
-4.0872250792745035e-06,-0.0001263049925910309,4.094969881407451e-06,-3.334493885631673e-05,6.015926192048937e-05
1.1590911981329555e-06,-0.00011829379218397662,-5.373362910177093e-07,-4.641115083359182e-05,5.6044518714770675e-05
1.2308744317124365e-06,-0.00010384660708950832,-3.030001835213625e-06,-6.072676842450164e-05,5.1500046538421884e-05
-5.275577223073924e-06,-7.91782294982113e-05,-3.0570126909879036e-06,-6.496042624348775e-05,5.232803596300073e-05
-1.1218167855986394e-05,-3.81263489543926e-05,-2.8710558126476826e-06,-5.686732765752822e-05,5.629842053167522e-05
-1.54764511535177e-05,8.002058166312054e-06,2.3256702661456075e-06,-4.0382401493843645e-05,6.328002200461924e-05
-1.8837063180399127e-05,3.9193444536067545e-05,1.0972504242090508e-05,-2.2987218471826054e-05,7.343395554926246e-05
-2.4893726731534116e-05,3.983451097155921e-05,1.4445992746914271e-05,-1.8506269043427892e-05,8.205515769077465e-05
-3.372595165274106e-05,2.499920447007753e-05,9.194995072903112e-06,-3.159169136779383e-05,8.179988799383864e-05
-4.474822708289139e-05,1.548832187836524e-05,3.992357051174622e-06,-5.21651454619132e-05,7.493479643017054e-05
-5.7381981605431065e-05,1.4256384019972757e-05,7.330143603212491e-07,-6.595572631340474e-05,6.719456723658368e-05
-6.919413863215595e-05,1.611962215974927e-05,-3.3986036669375608e-06,-7.359463779721409e-05,6.475034024333581e-05
-6.981584010645747e-05,2.2724558220943436e-05,-5.909930223424453e-06,-7.990726589923725e-05,6.308929732767865e-05
-5.534286901820451e-05,3.33156822307501e-05,-5.065497589384904e-06,-7.981304952409118e-05,5.6147127907024696e-05
-3.514347190503031e-05,3.9482842112192884e-05,-3.256818899899372e-06,-6.879362626932561e-05,4.692928268923424e-05
-2.1758447473985143e-05,4.0073729905998334e-05,8.468215639823029e-08,-4.9504622438689694e-05,4.0674836782272905e-05
-1.9316945326863788e-05,4.1602190322009847e-05,4.76671448268462e-06,-2.5646340873208828e-05,4.2948762711603194e-05
-2.2950851416680962e-05,4.753459506900981e-05,8.571725629735738e-06,1.6029241578507936e-07,5.31328005308751e-05
-2.336255056434311e-05,4.9594185838941485e-05,1.2533925655588973e-05,2.568462696217466e-05,6.672623567283154e-05
-2.257388950965833e-05,5.4342719522537664e-05,1.6196987417060882e-05,5.066718586022034e-05,7.822582847438753e-05
-2.6993198844138533e-05,7.027840183582157e-05,1.9680714103742503e-05,7.149371958803385e-05,8.034704660531133e-05
-3.3378782973159105e-05,9.030036017065868e-05,2.315021447429899e-05,8.195414557121694e-05,7.088529673637822e-05
-3.7136400351300836e-05,0.00010235695663141087,2.5982182705774903e-05,8.548311598133296e-05,5.658056397805922e-05
-3.37884557666257e-05,0.00010765458137029782,2.975739880639594e-05,8.769256237428635e-05,4.428136890055612e-05
-2.4649072656757198e-05,0.00010846670920727775,3.215942342649214e-05,8.8179724116344e-05,3.9974671381060034e-05
-1.6824955309857614e-05,0.00010668154573068023,2.822249552991707e-05,8.435801282757893e-05,4.107186759938486e-05
-1.612711639609188e-05,9.955290443031117e-05,1.9257000531069934e-05,7.077602640492842e-05,4.756082489620894e-05
-2.2571706722374074e-05,8.83393659023568e-05,5.493381195265101e-06,4.961324157193303e-05,5.466760921990499e-05
-3.253076283726841e-05,7.222066778922454e-05,-9.912025234370958e-06,2.749842133198399e-05,5.704643263015896e-05
-4.075602555531077e-05,4.2607316572684795e-05,-2.228397897852119e-05,1.5970528693287633e-05,5.7726792874746025e-05
-4.785393684869632e-05,-3.5172529351257253e-06,-2.355831747991033e-05,1.4936343177396338e-05,5.840819358127192e-05
-5.199807492317632e-05,-4.98704903293401e-05,-1.848456304287538e-05,1.556989263917785e-05,5.862203397555277e-05
-5.068294194643386e-05,-7.011921843513846e-05,-1.5409812476718798e-05,1.3257867976790294e-05,5.5121767218224704e-05
-4.33851673733443e-05,-6.327823211904615e-05,-1.3522952940547839e-05,5.240345217316644e-06,5.0964135880349204e-05
-2.8677284717559814e-05,-5.236809010966681e-05,-8.307427378895227e-06,-1.0194905371463392e-05,4.719625212601386e-05
-1.3700245290237945e-05,-5.34244354639668e-05,-4.656657210944104e-07,-3.0495762985083275e-05,4.4989305024500936e-05
-3.836427708847623e-07,-5.4442225518869236e-05,2.499088850527187e-06,-4.653685027733445e-05,4.6631390432594344e-05
1.1790516509790905e-05,-4.391988113638945e-05,-1.8080393147101859e-06,-6.171242421260104e-05,4.826995427720249e-05
1.9227551092626527e-05,-2.9040023946436122e-05,-1.129928477894282e-05,-8.774321031523868e-05,4.976423588232137e-05
1.8612150597618893e-05,-1.0965720321109984e-05,-2.3759715986670926e-05,-0.00013026551459915936,4.9732323532225564e-05
1.790331953088753e-05,1.7252590623684227e-05,-3.6773439205717295e-05,-0.00017929516616277397,4.9113663408206776e-05
1.919848727993667e-05,4.794324922841042e-05,-4.449005064088851e-05,-0.00020902909454889596,5.2887458878103644e-05
1.435411559214117e-05,6.553018465638161e-05,-4.544789044302888e-05,-0.00020000385120511055,5.8559806348057464e-05
1.9752578737097792e-06,7.14042253093794e-05,-4.072886076755822e-05,-0.00015807736781425774,5.982522270642221e-05
-1.313240863964893e-05,8.068377792369574e-05,-2.877071892726235e-05,-0.00010040029155788943,5.5911623348947614e-05
-2.544371091062203e-05,9.908521315082908e-05,-1.183709900942631e-05,-3.8069221773184836e-05,5.395015250542201e-05
-3.523068880895153e-05,0.00011455443745944649,4.036867721879389e-06,1.90853879757924e-05,5.443391273729503e-05
-4.320411608205177e-05,0.00010737340926425532,1.7082687918446027e-05,6.66498817736283e-05,5.356089604902081e-05
-4.515767068369314e-05,8.467915176879615e-05,2.9872860977775417e-05,0.00011124961019959301,5.1065493607893586e-05
-4.24995414505247e-05,8.047788287512958e-05,4.674649244407192e-05,0.0001549424196127802,4.64004187961109e-05
-4.0161554352380335e-05,9.509234951110557e-05,6.530839164042845e-05,0.00019576925842557102,4.143114711041562e-05
-3.975961226387881e-05,9.866389882517979e-05,8.242807234637439e-05,0.00022840712335892022,3.743923662113957e-05
-4.212285784888081e-05,7.996940257726237e-05,9.635624155635014e-05,0.00024137173022609204,3.135810766252689e-05
-4.576140418066643e-05,5.696228254237212e-05,9.985273936763406e-05,0.00021924579050391912,2.8767814001184888e-05
-4.878740946878679e-05,3.856482726405375e-05,8.586514741182327e-05,0.00015990925021469593,3.2266907510347664e-05
-5.283405334921554e-05,1.986265488085337e-05,6.119554745964706e-05,8.754665032029152e-05,3.565099177649245e-05
-6.038925494067371e-05,7.63036405260209e-06,3.657412526081316e-05,3.328878665342927e-05,4.230384365655482e-05
-6.214620952960104e-05,-1.0233122083036506e-07,2.025532921834383e-05,8.386378794966731e-06,4.6203880629036576e-05
-5.726418748963624e-05,-3.587218543543713e-06,1.091826652555028e-05,-3.847371772280894e-06,4.698534758063033e-05
-5.095562300994061e-05,4.790041998603556e-07,5.964465344732162e-06,-1.6342677554348484e-05,5.026253711548634e-05
-4.280943176127039e-05,8.639721272629686e-06,5.52121537111816e-06,-2.643594598339405e-05,5.339263589121401e-05
-3.253893737564795e-05,1.639918627915904e-05,5.278351636661682e-06,-3.2073530746856704e-05,5.617233182420023e-05
-1.935196269187145e-05,2.4923601813497953e-05,3.6106530387769453e-06,-3.747186565306038e-05,6.105101783759892e-05
-5.416351086751092e-06,2.7007963581127115e-05,-1.1875583538767387e-07,-4.1328468796564266e-05,6.528615631395951e-05
6.137834134278819e-06,1.5712694221292622e-05,-5.209612936596386e-06,-4.359702506917529e-05,6.411263166228309e-05
1.7124690202763304e-05,-4.042588898300892e-06,-9.918649993778672e-06,-4.5261240302352235e-05,5.906031219637953e-05
2.320414387213532e-05,-1.4524189282383304e-05,-1.1143942174385302e-05,-4.346525020082481e-05,5.1562503358582035e-05
1.4409314644581173e-05,-5.986039468552917e-06,-8.943094144342467e-06,-3.702731555677019e-05,4.5043419959256425e-05
-9.150529876933433e-06,1.1651982276816852e-05,-5.838609467900824e-06,-3.219784048269503e-05,4.0648341382620856e-05
-3.812653449131176e-05,2.1485508113983087e-05,-5.039363259129459e-06,-3.344416109030135e-05,3.661898881546222e-05
-6.104436033638194e-05,1.6945406969171017e-05,-5.643697932100622e-06,-3.674485924420878e-05,3.144359652651474e-05
-6.785287405364215e-05,1.2439960300980601e-05,-4.398856162879383e-06,-4.06374892918393e-05,2.9269363949424587e-05
-6.018031854182482e-05,1.9743756638490595e-05,-2.714214417665062e-07,-4.313990939408541e-05,3.451275188126601e-05
-4.901504871668294e-05,3.1942221539793536e-05,9.701152521301992e-07,-4.3463809561217204e-05,4.716034891316667e-05
-4.496178371482529e-05,3.860551805701107e-05,-1.4967127981435624e-06,-4.5453842176357284e-05,5.906294973101467e-05
-5.169887299416587e-05,4.019880361738615e-05,-3.127715672235354e-06,-5.0283029850106686e-05,6.3253020925913e-05
-6.066372952773236e-05,3.610185012803413e-05,-4.309066298446851e-06,-5.610780499409884e-05,5.725166920456104e-05
-6.491631938843057e-05,2.7689773560268804e-05,-4.394838924781652e-06,-6.149459659354761e-05,4.517210982157849e-05
-5.90661984460894e-05,1.4907061995472759e-05,3.008853965980052e-08,-6.137786840554327e-05,3.515715434332378e-05
-3.7134861486265436e-05,-1.2473390597733669e-05,3.7997622257535113e-06,-5.511713243322447e-05,3.6950168578187004e-05
-6.968479283386841e-06,-3.8490339647978544e-05,2.88345461285644e-07,-5.597184645012021e-05,5.922981654293835e-05
1.3384175872488413e-05,-1.3996518646308687e-05,-3.911492512997938e-06,-6.24130479991436e-05,9.0394401922822e-05
1.5865336536080576e-05,4.909525523544289e-05,-9.044994840223808e-06,-6.165731610963121e-05,0.000107274237961974
8.185873412003275e-06,9.261786908609793e-05,-1.9211909602745436e-05,-5.795072502223775e-05,0.00010249487968394533
2.840857405317365e-06,9.032431989908218e-05,-2.750396197370719e-05,-5.640768722514622e-05,8.595363760832697e-05
-2.2060035576032533e-07,5.671668259310536e-05,-2.8177837521070614e-05,-6.435823161154985e-05,7.097425987012684e-05
-5.133864306117175e-06,2.7583446353673935e-05,-2.053945354418829e-05,-7.916406320873648e-05,6.288055737968534e-05
-1.1885858839377761e-05,2.0437975763343275e-05,-9.29337056732038e-06,-9.307870641350746e-05,6.100747486925684e-05
-1.5877194528002292e-05,2.4963283067336306e-05,-2.9608449949591886e-06,-0.00010610081517370418,6.465752085205168e-05
-1.5139511560846586e-05,2.8522506909212098e-05,-2.786476215987932e-06,-0.00012508938380051404,6.901883170939982e-05
-9.125029464485124e-06,2.931838753283955e-05,-4.910413736070041e-06,-0.0001439371262677014,7.395172724500299e-05
2.098978256981354e-06,3.391794234630652e-05,-7.330568678298732e-06,-0.00015308950969483703,8.074053766904399e-05
1.1595473552006297e-05,4.2588690121192485e-05,-6.196311915118713e-06,-0.0001474394666729495,8.671837713336572e-05
1.0441351150802802e-05,4.7934576286934316e-05,2.608619070088025e-06,-0.00012009502097498626,8.645076741231605e-05
-1.7263669604972165e-08,4.2847514123423025e-05,1.438848630641587e-05,-7.564033148810267e-05,7.996807107701898e-05
-1.2161987797298934e-05,2.2237461962504312e-05,1.977324063773267e-05,-2.7976509954896756e-05,7.076033216435462e-05
-2.4593602574896067e-05,-1.0502773875487037e-05,1.7040607417584397e-05,1.0536410627537407e-05,5.8432211517356336e-05
-4.118528522667475e-05,-3.6205641663400456e-05,1.4118681974650826e-05,4.236535096424632e-05,4.571237514028326e-05
-6.600016786251217e-05,-3.9241353078978136e-05,1.5360245015472174e-05,7.465948874596506e-05,3.879405267070979e-05
-8.731568232178688e-05,-2.317779762961436e-05,2.082659921143204e-05,0.00011109095066785812,4.0454266127198935e-05
-8.640864689368755e-05,-4.481285941437818e-06,2.982937076012604e-05,0.00014429075235966593,4.846143929171376e-05
-6.491516978712752e-05,-2.4176385977625614e-06,4.034300218336284e-05,0.00016443085041828454,5.479862375068478e-05
-4.552363679977134e-05,-1.492432966188062e-05,5.091694765724242e-05,0.00016437006706837565,5.583572783507407e-05
-4.03780177293811e-05,-2.8850474336650223e-05,5.264466744847596e-05,0.00014200589794199914,5.47296876902692e-05
-3.7026460631750524e-05,-4.165876089246012e-05,4.148401058046147e-05,0.00010165367712033913,5.588094791164622e-05
-2.904606117226649e-05,-5.2826562750851735e-05,2.459210008964874e-05,5.8730689488584176e-05,5.870690802112222e-05
-2.4076436602626927e-05,-4.695371535490267e-05,1.1326067578920629e-05,2.9335637009353377e-05,5.648954538628459e-05
-2.6395726308692247e-05,-2.0433988538570702e-05,7.197757440735586e-06,1.7755899534677155e-05,5.348270133254118e-05
-2.827016396622639e-05,8.135425559885334e-06,2.8095319066778757e-06,1.1659534720820375e-05,5.3385192586574703e-05
-2.798953755700495e-05,3.6288889532443136e-05,-1.440165647181857e-06,7.284776529559167e-06,6.0514135839184746e-05
-3.184230808983557e-05,7.04801277606748e-05,-2.4924181616370333e-06,5.259011686575832e-06,7.49065657146275e-05
-4.102265302208252e-05,0.00010651900811353698,-7.010354238445871e-06,-9.068172630577465e-07,8.648433140479028e-05
-4.950013317284174e-05,0.0001445447705918923,-1.1934246685996186e-05,-7.150117198762018e-06,8.852416794979945e-05
-4.401682235766202e-05,0.0001809058157959953,-1.549305125081446e-05,-1.22516412375262e-05,8.0634250480216e-05
-3.0197223168215714e-05,0.0001979310909518972,-1.8914724932983518e-05,-1.8694363461690955e-05,7.070996070979163e-05
-1.5171061932051089e-05,0.00018170733528677374,-2.214265987277031e-05,-2.4008424588828348e-05,6.502901669591665e-05
-4.727422492578626e-06,0.00013616285286843777,-1.9533401427906938e-05,-2.2720032575307414e-05,6.45826366962865e-05
6.181047410791507e-06,7.476367318304256e-05,-9.659033821662888e-06,-1.7897085854201578e-05,6.558297172887251e-05
1.9501636415952817e-05,1.6850082829478197e-05,-4.4050625547242817e-07,-1.5057314158184454e-05,6.923818727955222e-05
2.3522954506915994e-05,-2.2080652342992835e-05,2.8300530630076537e-06,-1.781556784408167e-05,7.42467527743429e-05
8.06913976703072e-06,-3.0279985367087647e-05,4.260191872162977e-06,-2.3587863324792124e-05,7.546319829998538e-05
-2.6727517251856625e-05,-1.2322246220719535e-05,9.451301593799144e-06,-2.67456634901464e-05,7.182401895988733e-05
-6.341379776131362e-05,7.372390427917708e-06,1.7003199900500476e-05,-2.8030552130076103e-05,6.814448715886101e-05
-8.439275552518666e-05,8.865546078595798e-06,1.824796709115617e-05,-3.775713776121847e-05,6.707630382152274e-05
-8.724559302208945e-05,1.84029568117694e-06,7.63875686971005e-06,-6.009774733684026e-05,6.623362423852086e-05
-7.791607640683651e-05,1.4926547919458244e-05,-6.577715339517454e-06,-8.46197726787068e-05,6.231493898667395e-05
-6.124722131062299e-05,4.75936358270701e-05,-1.308651735598687e-05,-9.895989205688238e-05,5.805995169794187e-05
-4.8214940761681646e-05,6.835291424067691e-05,-1.2284692274988629e-05,-0.00010169235611101612,6.038210995029658e-05
-4.0163544326787814e-05,5.929367398493923e-05,-1.2545311619760469e-05,-9.761674300534651e-05,6.853108789073303e-05
-3.595515590859577e-05,3.548177483025938e-05,-1.3758489330939483e-05,-8.56089245644398e-05,7.467795512638986e-05
-3.425197792239487e-05,1.300462281506043e-05,-1.1399059985706117e-05,-6.167611718410626e-05,7.359067967627198e-05
-3.106478106928989e-05,-1.2964556844963226e-05,-5.219651029619854e-06,-2.4362370822927915e-05,6.973583367653191e-05
-1.918721136462409e-05,-4.720444485428743e-05,1.0869325706153177e-07,1.9035018340218812e-05,6.740857497788966e-05
-4.259717570676003e-06,-6.274507177295163e-05,3.404327117095818e-06,5.759286068496294e-05,6.408407352864742e-05
-6.504197926915367e-07,-3.752386328415014e-05,1.0017043678089976e-05,7.880892371758819e-05,5.7104669394902885e-05
-7.774056939524598e-06,3.2001094041334e-06,2.181292074965313e-05,8.416020864387974e-05,5.47186573385261e-05
-1.237820106325671e-05,2.320748899364844e-05,3.0737068300368264e-05,8.745165541768074e-05,5.995267565594986e-05
-7.532579274993623e-06,2.019250678131357e-05,3.1988281989470124e-05,9.862022852757946e-05,6.83007892803289e-05
2.990666871482972e-06,2.0781713828910142e-05,3.274072878411971e-05,0.00011089391773566604,7.865453517297283e-05
8.0413765317644e-06,3.973035927629098e-05,3.6088520573684946e-05,0.00011757786705857143,8.719263860257342e-05
7.745487891952507e-06,5.893727939110249e-05,3.5879333154298365e-05,0.00011619097494985908,8.97711724974215e-05
7.064675628498662e-06,6.016285260557197e-05,2.8437458240659907e-05,9.365643927594647e-05,9.200930071529001e-05
2.9384027584455907e-06,4.30623404099606e-05,1.7719938114169054e-05,5.787645932286978e-05,9.113096166402102e-05
-2.8003760235151276e-06,2.2084042939241044e-05,9.68983476923313e-06,2.5551127691869624e-05,8.294818690046668e-05
-5.485620931722224e-06,1.236876141774701e-05,4.475437435758067e-06,3.4552883789729094e-06,6.687166751362383e-05
-4.611003987520235e-06,4.6921686589485034e-06,-2.677267616491008e-07,-6.765539183106739e-06,4.297720442991704e-05
-9.804958608583547e-06,-1.192851323139621e-05,-3.1134077289607376e-06,-1.0285997632308863e-05,1.7691687389742583e-05
-2.391588168393355e-05,-2.3250880985870026e-05,-2.3182872155302903e-06,-1.4190711226547137e-05,1.946348220371874e-06
-3.6392815673025325e-05,-9.84981579676969e-06,7.635503607161809e-07,-2.029287861660123e-05,5.765423338743858e-06
-3.8039001083234325e-05,2.4803228370728903e-05,1.3662569244843326e-06,-2.6830890419660136e-05,2.7302447051624767e-05
-3.449852010817267e-05,5.665421485900879e-05,-1.6996790463963407e-06,-3.2270247174892575e-05,5.121658614370972e-05
-3.266278872615658e-05,7.076298061292619e-05,-2.7467444851936307e-06,-3.4329590562265366e-05,6.231444422155619e-05
-3.410354838706553e-05,6.996922456892207e-05,5.055491669736512e-07,-3.42262392223347e-05,6.161476630950347e-05
-3.430281867622398e-05,6.332778139039874e-05,3.2123100481840083e-06,-3.4073818824253976e-05,5.9113765018992126e-05
-3.1927000236464664e-05,6.149693217594177e-05,2.104354280163534e-06,-3.664109681267291e-05,5.9752765082521364e-05
-2.9810255000484176e-05,6.091972318245098e-05,1.641762651161116e-06,-3.818306504399516e-05,6.01943138462957e-05
-3.0529641662724316e-05,5.399579822551459e-05,3.962156824854901e-06,-3.5138775274390355e-05,5.6045097153401e-05
-2.930642403953243e-05,5.5691514717182145e-05,4.410543624544516e-06,-3.248482244089246e-05,4.919723141938448e-05
-2.4306120394612662e-05,6.65488769300282e-05,1.3343840237212135e-06,-3.098943125223741e-05,4.804711352335289e-05
-2.4668293917784467e-05,6.857774133095518e-05,1.0788200910383239e-07,-3.0480254281428643e-05,5.0467038818169385e-05
-3.5048204154009e-05,5.6587072322145104e-05,5.405266620073235e-06,-2.630104972922709e-05,4.857975000049919e-05
-5.060749390395358e-05,4.573196201818064e-05,1.1288846508250572e-05,-2.014488745771814e-05,4.641756459022872e-05
-5.6151809985749424e-05,4.5320419303607196e-05,1.2726985914923716e-05,-2.0785992091987282e-05,4.823687777388841e-05
-5.014471389586106e-05,5.2471419621724635e-05,1.271014662052039e-05,-2.417069481452927e-05,4.8063557187560946e-05
-4.013191573903896e-05,6.854302773717791e-05,1.1570047718123533e-05,-2.3776725356583484e-05,4.969045039615594e-05
-3.477249265415594e-05,9.128951205639169e-05,8.10354140412528e-06,-2.149234205717221e-05,5.3159339586272836e-05
-3.325623765704222e-05,0.00010607058356981725,1.5320703141696868e-06,-2.2335623725666665e-05,5.4110561904963106e-05
-3.152550561935641e-05,8.4719191363547e-05,-7.335115697060246e-06,-2.6073901608469896e-05,5.273049828247167e-05
-2.764009877864737e-05,3.4664721169974655e-05,-1.3832831427862402e-05,-2.989366839756258e-05,5.194767800276168e-05
-2.0298519302741624e-05,-1.4283899872680195e-05,-1.5844092558836564e-05,-3.237943019485101e-05,5.4413980251410976e-05
-1.2364536814857274e-05,-4.141308818361722e-05,-1.2473214155761525e-05,-3.4221051464555785e-05,5.90079216635786e-05
-5.020553089707391e-06,-5.284534199745394e-05,-8.268640158348717e-06,-3.384185038157739e-05,6.152620335342363e-05
2.7630692329694284e-06,-6.211229629116133e-05,-8.698724741407204e-06,-3.149342228425667e-05,5.927183519816026e-05
9.723552466311958e-06,-6.050043157301843e-05,-9.924737241817638e-06,-2.6848849302041344e-05,5.534663432626985e-05
8.40388111100765e-06,-4.392331175040454e-05,-6.536210548802046e-06,-2.3393376977765e-05,5.0927934353239834e-05
-1.2740051715809386e-06,-2.5966301109292544e-05,8.926808163778333e-07,-2.3534546926384792e-05,4.901696593151428e-05
-1.4292421838035807e-05,-2.0200142898829654e-05,7.620399628649466e-06,-2.3441143639502116e-05,5.1004601118620485e-05
-2.7688454792951234e-05,-2.4694325475138612e-05,9.021033292810898e-06,-2.21560439968016e-05,5.298349424265325e-05
-3.7281119148246944e-05,-3.0813658668193966e-05,5.1913393690483645e-06,-2.0585963284247555e-05,5.385963959270157e-05
-3.784897126024589e-05,-2.696355659281835e-05,3.2338721211999655e-06,-1.7502819900983013e-05,5.5868666095193475e-05
-3.614778688643128e-05,-1.3366754501475953e-05,5.903809778828872e-06,-1.443363453290658e-05,5.804294778499752e-05
-3.563374775694683e-05,6.788126029277919e-06,7.591517260152614e-06,-9.651055734138936e-06,6.136529555078596e-05
-2.9353637728490867e-05,3.1736435630591586e-05,7.014097718638368e-06,1.2368901707304758e-06,6.469027721323073e-05
-1.859543590398971e-05,4.5492375647882e-05,8.627362149127293e-06,1.184213124361122e-05,6.54027535347268e-05
-1.0358254257880617e-05,4.0746999729890376e-05,1.181501920655137e-05,1.7346455933875404e-05,6.413411756511778e-05
-5.183053417567862e-06,3.469063449301757e-05,1.4457249562838115e-05,1.9911576600861736e-05,6.377835234161466e-05
3.9944350760379166e-07,3.479393126326613e-05,1.691234137979336e-05,2.1271265723044053e-05,6.378888792824e-05
9.557494195178151e-06,2.7832116757053882e-05,1.6722215150366537e-05,1.3871170267520938e-05,5.97547841607593e-05
8.92249863682082e-06,2.5137458578683436e-05,1.0413989912194666e-05,1.3006493873035652e-06,5.2710816817125306e-05
-1.2607161806954537e-05,4.1689490899443626e-05,3.743498382391408e-06,-9.144568139163312e-06,4.958236240781844e-05
-4.609502502717078e-05,5.909404717385769e-05,5.791482067252218e-07,-1.53932942339452e-05,4.884135341853835e-05
-7.230592746054754e-05,7.005653606029227e-05,-1.625320464881952e-06,-1.8825709048542194e-05,4.8604473704472184e-05
-8.333885489264503e-05,7.999715307960287e-05,-5.559008059208281e-06,-2.383524588367436e-05,4.7338497097371146e-05
-8.56905899127014e-05,8.139289275277406e-05,-1.1405917575757485e-05,-3.292650944786146e-05,4.6678062062710524e-05
-7.882454519858584e-05,6.974668940529227e-05,-1.5747229554108344e-05,-6.908113573445007e-05,5.038662493461743e-05
-6.513149128295481e-05,4.787691432284191e-05,-1.805318970582448e-05,-0.0001303598692175001,5.617479473585263e-05
-5.0429560360498726e-05,1.3411158761300612e-05,-1.727370727166999e-05,-0.0001737962884362787,6.278401269810274e-05
-4.2552877857815474e-05,-2.644270716700703e-05,-1.4964756701374426e-05,-0.00017846543050836772,6.713900074828416e-05
-3.923361509805545e-05,-5.6136035709641874e-05,-1.373703435092466e-05,-0.00016147614223882556,6.834165833424777e-05
-3.439635838731192e-05,-6.14403688814491e-05,-1.553491165395826e-05,-0.00015142395568545908,7.13087574695237e-05
-2.2217425794224255e-05,-4.554593760985881e-05,-1.8802071281243116e-05,-0.00014748629473615438,7.937487680464983e-05
-1.614500774849148e-06,-1.2671299373323563e-05,-2.128024607372936e-05,-0.00012522225733846426,8.677150617586449e-05
1.928089841385372e-05,3.962393384426832e-05,-2.287019378854893e-05,-7.33009073883295e-05,8.976437675300986e-05
3.0875755328452215e-05,9.842708095675334e-05,-2.1016412574681453e-05,-6.990622296143556e-06,8.843735849950463e-05
2.9415676181088202e-05,0.0001361699978588149,-1.2048443750245497e-05,4.7584675485268235e-05,8.4061743109487e-05
1.641392918827478e-05,0.000141761134727858,3.5358407330932096e-06,7.848561654100195e-05,7.842946070013568e-05
-5.992588285153033e-06,0.0001339462905889377,2.2414356863009743e-05,9.717404464026913e-05,7.123884279280901e-05
-2.6664718461688608e-05,0.00012575315486174077,4.1211587813450024e-05,0.0001282689772779122,6.0750771808670834e-05
-3.071759783779271e-05,0.00011430856102379039,5.744277950725518e-05,0.00017825003305915743,4.7996883949963376e-05
-2.008991395996418e-05,8.824326505418867e-05,6.873357779113576e-05,0.00022149665164761245,3.888297578669153e-05
-1.0150890375371091e-05,4.3824231397593394e-05,7.018646283540875e-05,0.00022885036014486104,3.933176049031317e-05
-7.703889423282817e-06,-1.652537685004063e-05,6.192694127094e-05,0.00019399386656004936,4.882605207967572e-05
-1.48225935845403e-05,-7.848756649764255e-05,5.1820778026012704e-05,0.00013591536844614893,5.9196288930252194e-05
-2.7511714506545104e-05,-0.00010698906407924369,4.597577208187431e-05,8.35989267216064e-05,6.367015157593414e-05
-3.313897832413204e-05,-8.96167621249333e-05,3.992832716903649e-05,4.233282743371092e-05,5.927863094257191e-05
-2.4403070710832253e-05,-5.094278822070919e-05,3.0979768780525774e-05,7.369254490185995e-06,5.574832175625488e-05
-1.0691614079405554e-05,8.449059123449842e-07,2.3437587515218183e-05,-2.4183533241739497e-05,5.958964902674779e-05
-1.715674443403259e-06,5.657649307977408e-05,2.120799217664171e-05,-4.482951408135705e-05,6.610536365769804e-05
4.00932947286492e-07,9.928544022841379e-05,2.2226322471396998e-05,-4.6251116145867854e-05,7.20583921065554e-05
-5.197147174840211e-07,0.00012190065172035247,2.1115292838658206e-05,-3.62595783371944e-05,7.186086440924555e-05
-5.753137884312309e-06,0.00011841375089716166,1.2491907000367064e-05,-2.2912876374903135e-05,6.494992703665048e-05
-1.6155647244886495e-05,9.705726552056149e-05,1.1081781394750578e-06,-1.738516402838286e-05,5.0817878218367696e-05
-2.7449519620859064e-05,7.222944987006485e-05,-1.6292736972900457e-06,-1.6489240806549788e-05,3.7387231714092195e-05
-4.18081835960038e-05,5.9195048379478976e-05,1.4240494010664406e-06,-1.1769202501454856e-05,3.2763138733571395e-05
-6.1034123064018786e-05,4.969856672687456e-05,6.2969352256914135e-06,1.5202276699710637e-06,3.714803824550472e-05
-8.309056283906102e-05,2.5240924514946528e-05,1.2082286048098467e-05,1.8419617845211178e-05,4.278887718101032e-05
-9.623137884773314e-05,3.3235821774724172e-06,1.4425841072807088e-05,2.6723684641183354e-05,4.218510366627015e-05
-9.158545435639098e-05,-8.152426744345576e-06,1.2927985153510235e-05,2.1992729671183042e-05,3.803312574746087e-05
-7.489378185709938e-05,-1.9550498109310865e-05,8.509746294294018e-06,3.795109705606592e-06,3.642612136900425e-05
-6.2890539993532e-05,-2.0607720216503367e-05,6.47999627290119e-07,-2.0834646420553327e-05,4.07419320254121e-05
-6.0262256738496944e-05,2.1719949927501148e-06,-5.543540282815229e-06,-4.127392458030954e-05,5.002642501494847e-05
-5.704740760847926e-05,3.617880793171935e-05,-5.84909321332816e-06,-5.057829912402667e-05,6.173065776238218e-05
-4.761617674375884e-05,5.7065477449214086e-05,-6.34976095170714e-06,-5.312579378369264e-05,7.323010504478589e-05
-3.943830233765766e-05,3.741081673069857e-05,-9.28397730604047e-06,-5.243314808467403e-05,8.067320595728233e-05
-4.017380342702381e-05,-2.088337714667432e-05,-1.2105226232961286e-05,-4.873716534348205e-05,7.79533656896092e-05
-4.555925988825038e-05,-6.0772621509386227e-05,-1.2997486919630319e-05,-4.4065378460800275e-05,6.514121196232736e-05
-4.800383248948492e-05,-4.290294964448549e-05,-1.1399592949601356e-05,-4.1774641431402415e-05,4.673096918850206e-05
-4.473222361411899e-05,4.554294719127938e-06,-7.150485089368885e-06,-4.038987390231341e-05,3.429488424444571e-05
-3.440945874899626e-05,3.409517739783041e-05,-4.999026828045317e-07,-3.837300027953461e-05,3.520578320603818e-05
-2.2565362087334506e-05,3.348297468619421e-05,-2.5579751650184335e-07,-4.0392507798969746e-05,4.131116293137893e-05
-2.3680124286329374e-05,2.522507384128403e-05,-5.706065621779999e-06,-4.423635618877597e-05,4.408546010381542e-05
-3.065993951167911e-05,3.288657171651721e-05,-7.765112059132662e-06,-4.438582982402295e-05,4.85195305373054e-05
-3.080522219534032e-05,4.783341501024552e-05,-4.366684606793569e-06,-3.815802119788714e-05,6.381411367328838e-05
-2.66163915512152e-05,5.859122393303551e-05,3.3778396755224094e-06,-3.191027280990966e-05,8.482007979182526e-05
-1.8910546714323573e-05,6.465407204814255e-05,1.0310632205801085e-05,-2.8059665055479854e-05,9.560072066960856e-05
-1.16690889626625e-05,6.188934639794752e-05,1.4546096281264909e-05,-2.465957368258387e-05,9.276640048483387e-05
-1.4065344657865353e-05,4.3311749323038384e-05,1.3737693734583445e-05,-2.5633746190578677e-05,7.819342135917395e-05
-2.450449755997397e-05,1.6514082744834013e-05,6.838151421106886e-06,-2.6032144887722097e-05,6.001184010528959e-05
-3.5189576010452583e-05,-5.049590072303545e-06,2.8356291750242235e-06,-2.919298094639089e-05,4.469736813916825e-05
-4.104763866052963e-05,-1.3861631487088744e-05,5.286121449898928e-06,-3.375917731318623e-05,3.73925686290022e-05
-4.0552797145210207e-05,-3.99880445911549e-06,8.310124940180685e-06,-3.635654502431862e-05,3.964435018133372e-05
-3.846970867016353e-05,1.0950689102173783e-05,7.413224011543207e-06,-3.810735506704077e-05,4.7268909838749096e-05
-4.137566429562867e-05,2.6832834919332527e-05,1.734490183480375e-06,-4.0898848965298384e-05,5.5462012824136764e-05
-4.6780998673057184e-05,5.2494135161396116e-05,-3.3746039207471767e-06,-4.6012781240278855e-05,5.947063255007379e-05
-4.645090302801691e-05,7.251793431350961e-05,-2.236670297861565e-06,-4.7809349780436605e-05,6.09530761721544e-05
-3.9078848203644156e-05,6.926478818058968e-05,-5.413934300868561e-10,-4.3529857066459954e-05,6.162560021039099e-05
-3.262972677475773e-05,5.451479955809191e-05,-3.3398973755538464e-06,-3.459017170825973e-05,6.242814561119303e-05
-3.193361044395715e-05,3.715583443408832e-05,-1.290950422117021e-05,-2.8773014491889626e-05,6.12893927609548e-05
-2.98346858471632e-05,6.209985258465167e-06,-2.5206243662978522e-05,-3.0875715310685337e-05,5.662781768478453e-05
-2.1175312213017605e-05,-2.598652645247057e-05,-3.4275213693035766e-05,-3.8608486647717655e-05,4.8539364797761664e-05
-1.083559345715912e-05,-3.4896085708169267e-05,-3.568450119928457e-05,-4.625119981938042e-05,3.9370599552057683e-05
-8.803032869764138e-06,-2.9437229386530817e-05,-2.950913767563179e-05,-5.434074410004541e-05,3.2661253499099985e-05
-1.951810008904431e-05,-3.380360431037843e-05,-1.765917841112241e-05,-5.951930143055506e-05,3.205986286047846e-05
-3.3346936106681824e-05,-4.6102031774353236e-05,-3.442362412897637e-06,-5.5244265240617096e-05,3.653295789263211e-05
-4.199375325697474e-05,-5.2836257964372635e-05,1.0316526640963275e-05,-4.075882679899223e-05,4.4265208998695016e-05
-4.912237272947095e-05,-4.3447569623822346e-05,2.2693269784213044e-05,-2.1636855308315717e-05,5.033601337345317e-05
-5.2574756409740075e-05,1.9175995475961827e-06,2.893196142395027e-05,-6.521093496303365e-07,5.545118256122805e-05
-4.5642700570169836e-05,8.193738904083148e-05,2.69475767709082e-05,1.70920611708425e-05,5.8768466260517016e-05
-2.657347977219615e-05,0.0001618422829778865,2.2709438781021163e-05,3.0205286748241633e-05,6.131378177087754e-05
-6.438095624616835e-06,0.00019522329967003316,2.0647916244342923e-05,4.0657225326867774e-05,7.072481821523979e-05
1.440369578631362e-05,0.00017967978783417493,2.0938039597240277e-05,5.1372404413996264e-05,7.727835327386856e-05
3.601790012908168e-05,0.00014665914932265878,2.33201717492193e-05,5.8806956076296046e-05,7.074893801473081e-05
4.3438514694571495e-05,0.00012249797873664647,2.299737934663426e-05,5.756536847911775e-05,5.982145376037806e-05
4.101910599274561e-05,0.0001134289923356846,1.9921750208595768e-05,4.739394353237003e-05,5.469386087497696e-05
4.600307147484273e-05,0.00010296714026480913,1.595527101017069e-05,3.277285577496514e-05,5.880069875274785e-05
6.757247319910675e-05,8.222731412388384e-05,1.1419778275012504e-05,2.255857179989107e-05,6.872526137158275e-05
8.413388422923163e-05,4.560744491755031e-05,8.630659976915922e-06,1.55181060108589e-05,7.338939030887559e-05
7.728849595878273e-05,1.8531174646341242e-05,8.410410373471677e-06,1.4984040717536118e-05,6.950921670068055e-05
4.767522113979794e-05,1.908078593260143e-05,1.3326271982805338e-05,1.7249065422220156e-05,6.527787627419457e-05
9.240679901267868e-06,3.836307951132767e-05,2.1649422706104815e-05,1.576606518938206e-05,6.548794772243127e-05
-2.0165813111816533e-05,5.79955885768868e-05,2.55882550845854e-05,8.549634003429674e-06,6.778532406315207e-05
-3.444339017733e-05,6.814509106334299e-05,2.168221544707194e-05,1.7644365470914636e-06,6.866356852697209e-05
-4.336125130066648e-05,6.867364572826773e-05,1.5366154912044294e-05,-7.735944222986291e-07,6.61332524032332e-05
-5.635408524540253e-05,6.025092807249166e-05,9.75554394244682e-06,-1.9431545297265984e-06,6.13405936746858e-05
-6.640220817644149e-05,3.801483762799762e-05,4.597319275490008e-06,-7.805832865415141e-06,5.782538210041821e-05
-6.72239184495993e-05,-1.8252367226523347e-06,6.359099558039816e-08,-1.9389117369428277e-05,5.59389081900008e-05
-5.521522689377889e-05,-4.0625374822411686e-05,-4.411204827192705e-06,-2.6004216124420054e-05,5.7826549891615286e-05
-3.661052687675692e-05,-6.480456067947671e-05,-1.1399182767490856e-05,-2.5145993276964873e-05,6.529891106765717e-05
-2.5423278202652e-05,-7.913822628324851e-05,-1.8857403119909577e-05,-3.0406770747504197e-05,6.925572961336002e-05
-3.4240201784996316e-05,-8.872464968590066e-05,-2.3109243556973524e-05,-5.289849286782555e-05,6.423984450520948e-05
-5.476269143400714e-05,-8.349760173587129e-05,-2.1781626855954528e-05,-8.196019189199433e-05,5.8710080338642e-05
-6.425545871024951e-05,-5.718222018913366e-05,-1.380105550197186e-05,-9.704916010377929e-05,6.152168498374522e-05
-5.630886516883038e-05,-2.2709906261297874e-05,-5.421267815108877e-06,-9.180416964227334e-05,7.042856304906309e-05
-3.789468973991461e-05,-2.595698788354639e-06,-3.472748403510195e-06,-8.153148519340903e-05,7.95064406702295e-05
-9.901055818772875e-06,1.0025642041000538e-05,-4.812615316041047e-06,-7.349667430389673e-05,8.677666482981294e-05
1.2274529581191018e-05,2.2311209249892272e-05,-1.4501910072795e-06,-5.334739398676902e-05,8.627906208857894e-05
1.0749456123448908e-05,2.996979674207978e-05,5.456562121253228e-06,-1.4701371583214495e-05,7.977669156389311e-05
-8.08988534117816e-06,3.662299059215002e-05,1.4329807527246885e-05,3.3659634937066585e-05,7.526414265157655e-05
-3.236452175769955e-05,3.645422839326784e-05,2.2701853595208377e-05,7.753704267088324e-05,6.914290861459449e-05
-4.834856008528732e-05,2.6464989787200466e-05,2.7667756512528285e-05,0.00010063339868793264,6.0812326410086825e-05
-4.7441222704946995e-05,2.125875835190527e-05,2.535745625209529e-05,0.00010543326061451808,5.5056392739061266e-05
-3.8243149901973084e-05,2.5424486011615954e-05,1.7597887563169934e-05,9.650470747146755e-05,5.092100764159113e-05
-2.3268137738341466e-05,3.2961008400889114e-05,1.321635954809608e-05,7.952025043778121e-05,5.1398146752035245e-05
-3.9461056076106615e-06,3.490871677058749e-05,1.6475840311613865e-05,6.323861452983692e-05,5.5489705118816346e-05
1.4573329281120095e-05,2.9110437026247382e-05,2.4392760678892955e-05,5.1343358791200444e-05,5.485838482854888e-05
2.8093543733120896e-05,1.810548928915523e-05,2.828240758390166e-05,4.419616743689403e-05,5.212946416577324e-05
2.8780708817066625e-05,1.107192292693071e-05,2.4418421162408777e-05,3.081768227275461e-05,5.0056780310114846e-05
1.761894964147359e-05,1.3063758160569705e-05,1.3215860235504806e-05,1.1275199085503118e-06,5.28123855474405e-05
5.211663847148884e-06,2.0033323380630463e-05,-1.6172081132026506e-06,-3.856030889437534e-05,5.763636727351695e-05
-2.2753342818759847e-06,2.97910810331814e-05,-1.364028503303416e-05,-7.63715579523705e-05,5.7853583712130785e-05
-7.727226147835609e-06,4.0102800994645804e-05,-1.8155866200686432e-05,-0.00010327156633138657,5.4336724133463576e-05
-9.082925316761248e-06,4.91623577545397e-05,-1.656710810493678e-05,-0.00010839692549780011,5.585206963587552e-05
-4.945638011122355e-06,5.658818918163888e-05,-1.237134711118415e-05,-8.702853665454313e-05,6.29399946774356e-05
-5.303878424456343e-06,6.91632303642109e-05,-5.5205841817951296e-06,-4.8510981287108734e-05,6.926981586730108e-05
-1.7523099813843146e-05,8.119557605823502e-05,4.892595825367607e-06,-6.201042651809985e-06,7.30435858713463e-05
-3.5365028452361e-05,6.950361421331763e-05,1.6308522390318103e-05,3.545116851455532e-05,7.404557982226834e-05
-5.130220597493462e-05,2.3966164008015767e-05,2.6577410608297214e-05,7.08532752469182e-05,7.514512981288135e-05
-6.610366835957393e-05,-2.278807369293645e-05,3.128794924123213e-05,9.351081098429859e-05,7.58273818064481e-05
-8.409856673097238e-05,-4.082817031303421e-05,2.3844877432566136e-05,0.00010209349420620129,7.153181650210172e-05
-9.707067511044443e-05,-3.8254333048826084e-05,8.619349500804674e-06,0.00010325684706913307,5.774412784376182e-05
-0.00010166123684030026,-3.8119720557006076e-05,-1.957148896281069e-07,0.00010517697228351608,3.7533736758632585e-05
-0.00010394681157777086,-5.2747745939996094e-05,4.22213452111464e-06,0.00010592324542813003,2.1744075638707727e-05
-0.00010416886652819812,-7.850152178434655e-05,1.2905814401165117e-05,8.66401387611404e-05,1.8346801880397834e-05
-9.264344407711178e-05,-8.813611202640459e-05,1.4150054994388483e-05,4.699803321273066e-05,2.2983131202636287e-05
-6.88860091031529e-05,-6.8047629611101e-05,9.70319797488628e-06,7.903374353190884e-06,3.1805560865905136e-05
-4.539911969914101e-05,-3.204949462087825e-05,7.331733741011703e-06,-1.8645578165887855e-05,4.0903199987951666e-05
-3.496165663818829e-05,5.576869170909049e-07,6.790089173591696e-06,-3.139008185826242e-05,5.08928787894547e-05
-4.115446063224226e-05,2.383705577813089e-05,4.12275312555721e-06,-4.089534922968596e-05,5.975399471935816e-05
-5.0959180953213945e-05,3.884024772560224e-05,-8.042825356824324e-07,-5.078733011032455e-05,6.05963432462886e-05
-6.22302686679177e-05,3.08982671413105e-05,-2.6937300390272867e-06,-5.8680216170614585e-05,5.374430838855915e-05
-7.475960592273623e-05,1.2659371350309812e-05,-1.781617015694792e-06,-6.203194061527029e-05,4.800413444172591e-05
-8.187926141545177e-05,1.4800972166995052e-05,-3.281603540017386e-06,-6.3369981944561e-05,4.728325438918546e-05
-8.284850628115237e-05,3.646612822194584e-05,-6.05465311309672e-06,-6.291375757427886e-05,5.0011796702165157e-05
-8.684442582307383e-05,5.606640115729533e-05,-6.523402589664329e-06,-5.82749089517165e-05,5.248501474852674e-05
-9.619713819120079e-05,6.85096820234321e-05,-5.879401669517392e-06,-4.960057412972674e-05,5.1184779294999316e-05
-9.792993660084903e-05,8.206240454455838e-05,-4.966817868989892e-06,-3.931434912374243e-05,5.138001142768189e-05
-7.920137431938201e-05,8.95902921911329e-05,-5.761148145211337e-07,-2.9950402677059174e-05,5.689738827641122e-05
-4.642677595256828e-05,7.995605847099796e-05,6.528411631734343e-06,-2.122232581314165e-05,6.572960410267115e-05
-2.285960545123089e-05,6.290034798439592e-05,1.0368680705141742e-05,-1.3643261809193064e-05,7.223877037176862e-05
-1.783079824235756e-05,5.202271495363675e-05,1.0224496691080276e-05,-9.757031875778921e-06,7.361824827967212e-05
-1.6266494640149176e-05,4.466834070626646e-05,9.35905882215593e-06,-1.3433505046123173e-05,7.400650792988017e-05
-1.011050244414946e-06,4.837718006456271e-05,8.629462172393687e-06,-2.223650699306745e-05,7.600320532219484e-05
2.541567118896637e-05,7.19953459338285e-05,9.858053090283647e-06,-3.070945240324363e-05,7.804475899320096e-05
5.221565152169205e-05,9.072881221072748e-05,1.3062112884654198e-05,-3.0940038413973525e-05,8.09408666100353e-05
7.648680912097916e-05,9.057181159732863e-05,1.3247501556179486e-05,-2.5786297555896454e-05,8.512534986948594e-05
9.741412941366434e-05,8.073612843872979e-05,7.478189672838198e-06,-2.5947438189177774e-05,8.971992792794481e-05
0.00010793700494104996,7.124869443941861e-05,-5.353990104595141e-07,-3.343214120832272e-05,9.174066508421674e-05
0.00010596978972898796,6.851478246971965e-05,-6.785910045437049e-06,-4.200526018394157e-05,8.704474021214992e-05
9.307699656346813e-05,7.690028724027798e-05,-5.087490080768475e-06,-4.941342558595352e-05,7.84443473094143e-05
6.343634595395997e-05,9.745021088747308e-05,4.2854803723457735e-06,-5.397805944085121e-05,6.821069109719247e-05
1.9095183233730495e-05,9.376480738865212e-05,1.3144641343387775e-05,-5.0792285037459806e-05,5.9322777815395966e-05
-1.2203424375911709e-05,6.416577525669709e-05,1.297742437600391e-05,-4.5255761506268755e-05,5.0580394599819556e-05
-1.706805960566271e-05,4.8607736971462145e-05,6.125494110165164e-06,-4.5800701627740636e-05,3.5306908102938905e-05
-1.1752144018828403e-05,4.971782982465811e-05,1.2061764209647663e-06,-4.878951222053729e-05,2.72541401500348e-05
-9.496441634837538e-06,4.911001815344207e-05,-2.3761767806718126e-06,-4.9611498980084434e-05,3.09559800371062e-05
-1.330141367361648e-05,4.5100085117155686e-05,-3.921017651009606e-06,-4.298295607441105e-05,3.682706301333383e-05
-2.345803295611404e-05,4.743601311929524e-05,-3.153398665745044e-06,-2.5152130547212437e-05,4.1342616896145046e-05
-3.518999074003659e-05,5.3382602345664054e-05,2.2266900145950785e-07,-2.611358922877116e-06,4.490766514209099e-05
-4.264180097379722e-05,5.415492705651559e-05,4.807327059097588e-06,1.8572471162769943e-05,4.606823131325655e-05
-4.417921445565298e-05,4.4307529606157914e-05,8.96715482667787e-06,2.83775370917283e-05,4.606450238497928e-05
-3.909888619091362e-05,3.578649557312019e-05,9.899767974275164e-06,2.0539881006698124e-05,4.8502584832021967e-05
-3.3165051718242466e-05,3.872630259138532e-05,6.017843134031864e-06,1.1557631296454929e-06,5.393477840698324e-05
-3.1470033718505874e-05,4.680987331084907e-05,1.0242018788630958e-06,-1.9129245629301295e-05,6.222751835593954e-05
-3.0289920687209815e-05,4.686569809564389e-05,1.5294423292289139e-06,-3.199652201146819e-05,6.861396104795858e-05
-2.3778255126671866e-05,3.8034861063351855e-05,6.551991646119859e-06,-3.892054519383237e-05,7.280964928213507e-05
-1.4135439414530993e-05,3.2537875085836276e-05,6.6049324232153594e-06,-4.8986250476446e-05,7.615768117830157e-05
-7.373113476205617e-06,3.432189259910956e-05,-2.845451035682345e-06,-6.409869092749432e-05,8.202170283766463e-05
-9.918927389662713e-06,3.173979348503053e-05,-1.4651135643362068e-05,-7.786510104779154e-05,9.046981722349301e-05
-2.2360396542353556e-05,1.946939664776437e-05,-2.1387124434113503e-05,-9.148347453447059e-05,9.479022992309183e-05
-3.909561564796604e-05,5.702494263459812e-07,-2.2230162358027883e-05,-0.00010333614045521244,9.09358641365543e-05
-5.674058775184676e-05,-2.280254557263106e-05,-1.7123649740824476e-05,-9.800879342947155e-05,8.219916344387457e-05
-7.651137275388464e-05,-4.562562025967054e-05,-8.553344741812907e-06,-6.77812349749729e-05,6.635536556132138e-05
-9.290069283451885e-05,-6.231800944078714e-05,3.8183679862413555e-06,-2.846718780347146e-05,4.586553404806182e-05
-9.797032544156536e-05,-6.803476571803913e-05,1.766453897289466e-05,3.546773314155871e-06,3.362473216839135e-05
-0.00010028836550191045,-5.865874845767394e-05,2.586167465778999e-05,3.249312430853024e-05,3.34302858391311e-05
-0.00011229996016481891,-3.418443520786241e-05,2.427732033538632e-05,6.162755016703159e-05,3.6812441976508126e-05
-0.0001300092408200726,4.969745646121737e-07,1.857726601883769e-05,8.284589421236888e-05,3.730778189492412e-05
-0.00012402795255184174,2.7697176847141236e-05,1.4703627130074892e-05,9.175862214760855e-05,4.054617966176011e-05
-9.682324161985889e-05,3.256618947489187e-05,1.4340776033350267e-05,9.540752216707915e-05,4.4427801185520366e-05
-7.851515692891553e-05,2.7732163289329037e-05,1.4261291653383523e-05,8.348748087882996e-05,4.2044797737617046e-05
-6.711225432809442e-05,2.5680297767394222e-05,1.0573554391157813e-05,4.004411675850861e-05,3.4164386306656525e-05
-5.057850285083987e-05,3.0052806323510595e-05,6.52297740089125e-06,-2.289184158144053e-05,2.6206140319118276e-05
-2.7369113013264723e-05,4.0953564166557044e-05,7.752735768917773e-07,-8.293692371807992e-05,2.3069093003869057e-05
-7.3431965574854985e-06,5.873214831808582e-05,-1.169557526736753e-05,-0.00011854590411530808,2.50091416091891e-05
1.0135034244740382e-05,7.994748011697084e-05,-2.227437107649166e-05,-0.00012726735440082848,2.998612580995541e-05
2.8890775865875185e-05,0.00010466188541613519,-2.4020046112127602e-05,-0.000117917348688934,3.347270467202179e-05
4.172939225099981e-05,0.0001231697533512488,-2.039686296484433e-05,-8.825746772345155e-05,3.895207555615343e-05
4.373828414827585e-05,0.00012522349425125867,-1.379448440275155e-05,-3.2635409297654405e-05,5.233382398728281e-05
3.927646321244538e-05,0.00011073224595747888,-6.501233201561263e-06,3.615355308284052e-05,7.525667024310678e-05
2.6798730687005445e-05,8.36057442938909e-05,1.4426551615542849e-06,9.550886898068711e-05,0.00010344156908104196
5.0941421250172425e-06,5.2688301366288215e-05,1.265333776245825e-05,0.00013244511501397938,0.00011783597437897697
-1.861204145825468e-05,2.2764910681871697e-05,2.435922942822799e-05,0.0001424967631464824,0.00010515376197872683
-3.777910387725569e-05,4.144890226598363e-06,3.2764652132755145e-05,0.00013372943794820458,7.95590240159072e-05
-4.990949673810974e-05,6.554877018061234e-06,3.936862412956543e-05,0.00011790911230491474,5.900719406781718e-05
-5.449035234050825e-05,2.0512012270046398e-05,4.447624087333679e-05,0.00010360257147112861,4.6532393753295764e-05
-5.0284121243748814e-05,2.2556167095899582e-05,4.500808790908195e-05,8.958533726399764e-05,4.071286821272224e-05
-4.421968333190307e-05,9.232291631633416e-06,4.123682447243482e-05,7.073052256600931e-05,4.217303285258822e-05
-3.936031134799123e-05,-9.87279236142058e-06,3.418162668822333e-05,5.1648265070980415e-05,4.892885044682771e-05
-3.045272569579538e-05,-9.87166913546389e-06,2.4311306333402172e-05,3.5808869142783806e-05,5.5481425079051405e-05
-8.723557584744412e-06,1.9712862922460772e-05,1.9437833543634042e-05,1.898039408843033e-05,5.724686343455687e-05
3.077542714891024e-05,2.9399063350865617e-05,1.9174474800820462e-05,7.327717867156025e-06,5.6341857998631895e-05
7.942779484437779e-05,-2.629686377986218e-06,1.6378324289689772e-05,5.8440059547137935e-06,5.745511953136884e-05
0.00011022741819033399,-2.5498678951407783e-05,1.432559292879887e-05,6.205200861586491e-06,5.7991081121144816e-05
0.00010815317364176735,-1.5767642253194936e-05,1.797440927475691e-05,-1.8407695279165637e-06,5.526980021386407e-05
8.454355702269822e-05,5.566282197833061e-06,1.9706871171365492e-05,-1.5918167264317162e-05,5.481317930389196e-05
5.4116615501698107e-05,2.106011743308045e-05,1.4717822523380164e-05,-2.540934474382084e-05,6.328544259304181e-05
2.2623944460065104e-05,1.7883314285427332e-05,8.008913937374018e-06,-2.8332591682556085e-05,7.304790779016912e-05
-1.500179132563062e-05,2.544418293837225e-06,2.726402044572751e-06,-3.3617987355683e-05,7.723219459876418e-05
-6.632615986745805e-05,-1.7472426407039165e-05,-3.1538534130959306e-06,-5.1422153774183244e-05,6.971404945943505e-05
-0.00012846552999690175,-4.2668008973123506e-05,-1.008324670692673e-05,-7.879285840317607e-05,5.6133794714696705e-05
-0.00018223705410491675,-6.571997801074758e-05,-1.7126865714089945e-05,-0.0001062166629708372,4.85577984363772e-05
-0.0002109644265146926,-7.860393088776618e-05,-2.129865788447205e-05,-0.00012017083645332605,4.917962723993696e-05
-0.00021225887758191675,-7.45791185181588e-05,-1.8425929738441482e-05,-0.00011681238538585603,5.510782284545712e-05
-0.00018276397895533592,-5.6207711168099195e-05,-1.3681468772119842e-05,-0.00010989451402565464,5.958693873253651e-05
-0.0001277423434657976,-3.301310061942786e-05,-1.1381592230463866e-05,-0.00010677600221242756,5.839922960149124e-05
-7.269802154041827e-05,-1.5480351066798903e-05,-1.3157712601241656e-05,-9.946529462467879e-05,5.3418851166497916e-05
-4.658717807615176e-05,9.592018614057451e-06,-1.546093335491605e-05,-7.612410990986973e-05,5.194345794734545e-05
-5.898077870369889e-05,5.212534233578481e-05,-1.486919882154325e-05,-3.4463926567696035e-05,5.412864265963435e-05
-9.103643969865516e-05,9.025854524224997e-05,-1.286504357267404e-05,8.119049198285211e-06,5.849454100825824e-05
-0.00010584393021417782,0.0001005349331535399,-8.099730621324852e-06,3.376715903868899e-05,6.670598668279126e-05
-8.219618030125275e-05,8.669139060657471e-05,-9.18863065635378e-07,4.543734394246712e-05,7.508047565352172e-05
-3.5161931009497494e-05,6.516489520436153e-05,4.9022073653759435e-06,5.347314800019376e-05,7.942934462334961e-05
8.447106665698811e-06,4.232299033901654e-05,6.100188329583034e-06,5.4242133046500385e-05,8.335024904226884e-05
3.723269037436694e-05,2.1017855033278465e-05,3.790058372032945e-06,3.735040809260681e-05,9.274023614125326e-05
5.500229599419981e-05,6.389939244400011e-06,1.3060573564871447e-06,6.670716174994595e-06,0.00010766247578430921
6.793962529627606e-05,7.073414963087998e-06,2.63333481598238e-06,-2.6688418074627407e-05,0.00011890464520547539
7.765760528855026e-05,3.471535092103295e-05,7.062741133267991e-06,-5.8728877775138244e-05,0.00012241772492416203
8.042687113629654e-05,8.450099267065525e-05,9.284768566431012e-06,-7.976433698786423e-05,0.00011508823081385344
7.945531979203224e-05,0.00012127985246479511,5.283564405544894e-06,-7.956760964589193e-05,9.870546637102962e-05
7.184071000665426e-05,0.00012734407209791243,4.576221499519306e-07,-6.0841673985123634e-05,8.52747107273899e-05
5.2425362810026854e-05,0.00010694232332753018,-1.7797194686863804e-06,-3.629128696047701e-05,6.650268187513575e-05
2.7912399673368782e-05,7.653003558516502e-05,3.318550625408534e-06,-1.763243562891148e-05,3.500122329569422e-05
-9.992266996050603e-07,6.0579957789741457e-05,1.2265745681361295e-05,2.3891784621810075e-06,4.747789262182778e-06
-2.8144235329818912e-05,6.27578774583526e-05,1.4975660633353982e-05,2.5148303393507376e-05,-1.3896089512854815e-05
-4.591403194353916e-05,6.393039075192064e-05,1.581146352691576e-05,3.793011273955926e-05,-1.384278766636271e-05
-5.8275963965570554e-05,4.7644381993450224e-05,1.5712997992523015e-05,3.3293683372903615e-05,3.642754791144398e-06
-6.25515021965839e-05,1.2508222425822169e-05,2.0509292880888097e-05,2.0239709556335583e-05,2.8912460038554855e-05
-4.894966696156189e-05,-4.53267311968375e-05,2.8567803383339196e-05,8.599729881098028e-06,5.050370964454487e-05
-2.8435364583856426e-05,-0.0001232903014170006,2.968550325022079e-05,-5.401753696787637e-06,6.249878788366914e-05
-1.4866912351862993e-05,-0.00018687016563490033,2.089339614030905e-05,-1.5768908269819804e-05,6.30302747595124e-05
-2.9407915462797973e-06,-0.00019835053535643965,6.281603873503627e-06,-1.6816456991364248e-05,5.673435589415021e-05
9.775231774256099e-06,-0.00015155813889577985,-5.729711119784042e-06,-1.2474019058572594e-05,5.1841892855009064e-05
1.4604611351387575e-05,-7.834138523321599e-05,-1.0736905096564442e-05,-8.460486242256593e-06,5.1582366722868755e-05
4.484037162910681e-06,-1.3156883142073639e-05,-8.410610462306067e-06,-5.6830322137102485e-06,5.488521856022999e-05
-1.3822475011693314e-05,3.904266850440763e-05,-1.037032689055195e-06,-4.0799031921778806e-06,5.643716940539889e-05
-3.231916707591154e-05,8.82674939930439e-05,6.840996775281383e-06,-6.400359325198224e-06,5.582031735684723e-05
-4.6744382416363806e-05,0.00012770059402100742,1.3186225260142237e-05,-1.9299370251246728e-05,5.458716623252258e-05
-5.434772538137622e-05,0.000142756849527359,1.7013629985740408e-05,-5.1591523515526205e-05,5.214610428083688e-05
-5.5919539590831846e-05,0.00013962708180770278,1.257678923138883e-05,-0.00010442060738569126,5.039541792939417e-05
-6.0926435253350064e-05,0.00012397687532939017,1.201832020569782e-07,-0.0001604256685823202,5.1060716941719875e-05
-7.528714195359498e-05,8.672109106555581e-05,-8.366248948732391e-06,-0.00018815671501215547,5.2216735639376566e-05
-8.624530892120674e-05,4.1454197344137356e-05,-5.573588168772403e-06,-0.00017147108155768365,5.3882849897490814e-05
-7.767990609863773e-05,2.5033405108843e-05,1.635866055949009e-06,-0.00011819324572570622,5.604933903669007e-05
-5.318628245731816e-05,4.216764136799611e-05,7.063074917823542e-06,-4.960795558872633e-05,5.84874433116056e-05
-3.0188368327799253e-05,6.867330375825986e-05,6.684428626613226e-06,1.5343779523391277e-05,6.545855285366997e-05
-2.753083208517637e-05,0.00010133518662769347,7.291963015632064e-07,6.071597817935981e-05,7.449307304341346e-05
-5.154679820407182e-05,0.00012916130071971565,-2.184091954404721e-06,8.201551099773496e-05,7.456067396560684e-05
-8.464103302685544e-05,0.00013172489707358181,9.997773986469838e-07,8.482870907755569e-05,6.697428034385666e-05
-9.029916691360995e-05,0.00013969502469990402,6.336666501738364e-06,5.4478165111504495e-05,6.100260361563414e-05
-7.411913247779012e-05,0.000144100675242953,9.570317160978448e-06,-2.8851973183918744e-05,5.8613419241737574e-05
-6.100051541579887e-05,9.777372179087251e-05,7.640885996806901e-06,-0.00013184706040192395,5.4258420277619734e-05
-2.879010935430415e-05,1.2498187061282806e-05,-2.539098034048948e-07,-0.0002010643802350387,5.068421523901634e-05
2.9667033231817186e-05,-6.323202978819609e-05,-1.1967827958869748e-05,-0.0002172710228478536,5.1599905418697745e-05
8.225865167332813e-05,-9.738208609633148e-05,-1.7282018234254792e-05,-0.00017946356092579663,5.793405944132246e-05
0.00010152303002541885,-0.00011788454139605165,-1.1884927516803145e-05,-0.00010020971967605874,6.481847958639264e-05
9.422307630302384e-05,-0.000161601637955755,-5.7623415159469005e-06,-5.420350134954788e-06,6.542089977301657e-05
7.747606287011877e-05,-0.00020196818513795733,-8.088026334007736e-06,7.674880907870829e-05,6.376459350576624e-05
5.58319989067968e-05,-0.00017649134679231793,-1.1434218322392553e-05,0.0001430859265383333,6.602701614610851e-05
2.2636913854512386e-05,-5.361818693927489e-05,-7.387614459730685e-06,0.00019198674999643117,7.112303865142167e-05
-1.367220829706639e-05,0.00010430460679344833,2.882793751268764e-06,0.00020819183555431664,7.177621591836214e-05
-3.381496571819298e-05,0.0001968454016605392,1.7222388123627752e-05,0.00018811007612384856,6.621468492085114e-05
-3.4971490094903857e-05,0.00020241193124093115,3.246321648475714e-05,0.0001484711974626407,5.853857146576047e-05
-2.762204167083837e-05,0.0001667936594458297,4.220398477627896e-05,0.00011286138033028692,5.14604507770855e-05
-1.603307100594975e-05,0.00012697164493147284,4.142442048760131e-05,9.133685671258718e-05,4.650112896342762e-05
-5.165592028788524e-06,9.357804083265364e-05,3.2692474633222446e-05,8.320577762788162e-05,4.3048934458056465e-05
-4.134637947572628e-06,6.783604476368055e-05,2.062667226709891e-05,7.75753942434676e-05,4.307562267058529e-05
-6.90150272930623e-06,4.690602872869931e-05,1.256433370144805e-05,6.653211312368512e-05,5.109532139613293e-05
-6.638098057010211e-06,3.466493581072427e-05,1.3413247870630585e-05,5.33178354089614e-05,6.426659820135683e-05
-9.818072612688411e-06,3.5771441616816446e-05,1.667453398113139e-05,4.401825208333321e-05,7.45590150472708e-05
-2.4728093194426037e-05,3.9201950130518526e-05,1.373848135699518e-05,3.2194719096878543e-05,7.888353866292164e-05
-5.3794508858118206e-05,3.0714465538039804e-05,4.438464202394243e-06,1.302446526096901e-05,7.961304800119251e-05
-8.143926243064925e-05,1.568004154250957e-05,-5.226758730714209e-06,-6.702115115331253e-06,7.396734872600064e-05
-8.541592978872359e-05,5.650023467751453e-06,-5.652396794175729e-06,-2.1001615095883608e-05,6.063287582946941e-05
-7.453592115780339e-05,1.106066792999627e-05,1.1090478437836282e-06,-2.2203810658538714e-05,4.902454020339064e-05
-7.092961459420621e-05,3.252548413001932e-05,8.478847121295985e-06,-1.1405747500248253e-05,4.6651130105601624e-05
-7.253672083606943e-05,6.037852290319279e-05,8.18021271697944e-06,-1.5308573892980348e-06,4.7229295887518674e-05
-6.281672540353611e-05,9.085818601306528e-05,4.383043687994359e-06,2.0887910068267956e-06,5.111393693368882e-05
-4.8103585868375376e-05,0.00011426600394770503,8.645450179756153e-06,-1.091600461222697e-05,6.370294431690127e-05
-5.0538714276626706e-05,0.00010961177031276748,1.3500262866728008e-05,-3.972950071329251e-05,7.9785764683038e-05
-7.703986921114847e-05,7.710671343374997e-05,1.2659349522436969e-05,-6.0544320149347186e-05,8.96370256668888e-05
-0.00010460916382726282,5.3376359574031085e-05,7.459406333509833e-06,-6.260610825847834e-05,9.202289948007092e-05
-0.00011731513222912326,5.603258978226222e-05,6.3945972215151414e-06,-5.4679421737091616e-05,8.699051977600902e-05
-0.00011605379404500127,7.368855585809797e-05,1.0902672329393681e-05,-5.05707721458748e-05,7.907277904450893e-05
-0.00010130183363799006,9.609469270799309e-05,1.4507533705909736e-05,-5.157930718269199e-05,6.92541798343882e-05
-7.049000123515725e-05,0.00011071831249864772,1.0582317372609396e-05,-5.132016303832643e-05,5.308850450091995e-05
-2.8340533390291966e-05,9.89955515251495e-05,-3.2395848847954767e-07,-4.344323315308429e-05,3.41136910719797e-05
1.2020484064123593e-05,3.6261597415432334e-05,-6.992817361606285e-06,-2.520958696550224e-05,2.180731826229021e-05
3.957424632972106e-05,-6.427375046769157e-05,-2.986285380757181e-06,8.870322858456348e-07,2.3553868231829256e-05
5.7072258641710505e-05,-0.0001377920270897448,1.0448770808579866e-05,2.7171578039997257e-05,3.204224776709452e-05
7.396381261060014e-05,-0.00014072952035348862,2.4212640710175037e-05,4.273916420061141e-05,3.947869117837399e-05
8.14401064417325e-05,-9.741145913721994e-05,2.7416217562858947e-05,3.555735383997671e-05,4.4286887714406475e-05
6.872706580907106e-05,-5.422660251497291e-05,1.936245826072991e-05,9.581893209542613e-06,4.669341797125526e-05
4.41864576714579e-05,-3.31307492160704e-05,7.469005595339695e-06,-2.042285086645279e-05,5.034697460359894e-05
1.6174555639736354e-05,-3.0890110792825e-05,-6.528813628392527e-06,-6.5785956394393e-05,5.8072764659300447e-05
-1.8597675079945475e-05,-3.462553286226466e-05,-2.3501923351432197e-05,-0.00015272412565536797,6.376543024089187e-05
-5.344105011317879e-05,-3.6973207897972316e-05,-4.1457038605585694e-05,-0.00025677771191112697,6.53543247608468e-05
-7.584939885418862e-05,-3.522484621498734e-05,-5.347860133042559e-05,-0.0003187583351973444,6.497956928797066e-05
-8.13010847195983e-05,-2.11437090911204e-05,-5.298486939864233e-05,-0.0003276010975241661,6.385254528140649e-05
-7.59618342272006e-05,1.3007581401325297e-05,-4.61491581518203e-05,-0.00029957146034576,6.426667096093297e-05
-5.9037687606178224e-05,5.2810013585258275e-05,-3.800468402914703e-05,-0.00023187321494333446,6.9094130594749e-05
-3.791687777265906e-05,7.381960313068703e-05,-2.8210408345330507e-05,-0.00013348828360904008,7.294480019481853e-05
-3.23009371641092e-05,6.474641850218177e-05,-1.3731587387155741e-05,-1.595757930772379e-05,6.24294116278179e-05
-4.197281305096112e-05,4.67261670564767e-05,6.171783297759248e-06,9.591154957888648e-05,4.662715582526289e-05
-4.6452096285065636e-05,4.156475552008487e-05,2.522441718610935e-05,0.00018265037215314806,4.210891711409204e-05
-3.6043711588718e-05,4.289321441319771e-05,4.4316082494333386e-05,0.0002421274984953925,4.87257020722609e-05
-7.346454367507249e-06,4.269163400749676e-05,6.38845085632056e-05,0.00027261333889327943,5.6769215007079765e-05
2.7157957447343506e-05,4.913966404274106e-05,8.269902173196897e-05,0.00028578867204487324,5.928039172431454e-05
4.2642430344130844e-05,5.2350296755321324e-05,8.940300176618621e-05,0.0002584951580502093,5.961291753919795e-05
3.0856339435558766e-05,2.8953962100786157e-05,7.372875552391633e-05,0.0001891621941467747,5.806445187772624e-05
2.936382315965602e-06,-1.1968733815592714e-05,4.680741039919667e-05,0.00011068022286053747,5.2904644689988345e-05
-2.2619271476287395e-05,-4.9942675104830414e-05,2.617170503071975e-05,5.6209137255791575e-05,4.267464828444645e-05
-4.347569483797997e-05,-5.7024197303690016e-05,1.7210169971804135e-05,2.4075465262285434e-05,3.232495146221481e-05
-5.793553282273933e-05,-2.479864087945316e-05,1.1979958799201995e-05,-1.2968060218554456e-05,2.6293706469004974e-05
-6.030472650309093e-05,1.3139024304109626e-05,4.254353825672297e-06,-5.867661093361676e-05,2.654327363416087e-05
-4.8345300456276163e-05,2.300307278346736e-05,-3.1168838177109137e-06,-9.300492092734203e-05,3.771283445530571e-05
-3.323327473481186e-05,1.1051432920794468e-05,-6.623570243391441e-06,-9.991564002120867e-05,5.4165389883564785e-05
-3.0730399885214865e-05,5.6927287914732005e-06,-9.724397386889905e-06,-8.871254976838827e-05,6.009313801769167e-05
-4.409718167153187e-05,2.3476237402064726e-05,-1.2767384760081768e-05,-6.949686940060928e-05,5.237605364527553e-05
-5.757809412898496e-05,5.718535976484418e-05,-1.0630664291966241e-05,-4.669592817663215e-05,4.7354897105833516e-05
-5.8036352129420266e-05,8.769280248088762e-05,-1.0412621804789524e-06,-2.485275035724044e-05,5.823178798891604e-05
-5.270570909488015e-05,0.00010318625572836027,7.826180080883205e-06,-1.4135405763227027e-05,7.481184729840606e-05
-5.5018255807226524e-05,0.00010118115460500121,1.0800698873936199e-05,-1.5227319636323955e-05,7.837898010620847e-05
-5.968382902210578e-05,9.3455622845795e-05,9.55554423853755e-06,-2.18726163438987e-05,6.805349403293803e-05
-5.403174873208627e-05,9.396196401212364e-05,7.320811164390761e-06,-2.0648918507504277e-05,5.748488547396846e-05
-4.3442581954877824e-05,0.00010124030086444691,9.585181032889523e-06,-1.37726055982057e-06,5.704462819267064e-05
-3.6416080547496676e-05,0.00010313900565961376,1.3856045370630454e-05,2.4822538762236945e-05,6.397701508831233e-05
-3.294553607702255e-05,0.00011229320080019534,1.3104373465466779e-05,3.8122623664094135e-05,6.530932296300307e-05
-2.5370663934154436e-05,0.00013317001867108047,9.648066225054208e-06,3.838434713543393e-05,6.18620979366824e-05
-1.4296416338765994e-05,0.00012494866678025573,4.8840392992133275e-06,2.751345164142549e-05,6.229596328921616e-05
-1.1305505722702947e-05,6.227596895769238e-05,-2.2766550955566345e-07,1.094304934667889e-05,6.0022095567546785e-05
-2.9198956326581538e-05,-2.067427703877911e-05,-1.1284274705758435e-06,-3.3269084269704763e-06,5.401311136665754e-05
-6.13693191553466e-05,-8.37098341435194e-05,-3.4341330774623202e-06,-1.958426582859829e-05,4.779199298354797e-05
-8.316645107697695e-05,-0.00010023675713455305,-1.0159193152503576e-05,-3.988057505921461e-05,5.1333576266188174e-05
-8.116023673210293e-05,-7.147539145080373e-05,-1.7868640497908928e-05,-5.490824696607888e-05,6.274385668803006e-05
-6.107125955168158e-05,-3.752650081878528e-05,-2.4094908440019935e-05,-5.6945318647194654e-05,7.194379577413201e-05
-3.5174889490008354e-05,-2.7084877729066648e-05,-2.1925103283138014e-05,-4.385969805298373e-05,7.518880011048168e-05
-1.120121123676654e-05,-3.718319203471765e-05,-1.1994736269116402e-05,-1.790259193512611e-05,7.545990229118615e-05
1.537406387797091e-05,-4.471822830964811e-05,-2.5395779630343895e-06,1.306494050368201e-05,7.484491652576253e-05
4.5098335249349475e-05,-3.855849718092941e-05,4.5347474042500835e-06,4.116450509172864e-05,7.189257303252816e-05
7.088258280418813e-05,-1.3876269804313779e-05,9.526147550786845e-06,5.728514224756509e-05,6.627401307923719e-05
8.398265345022082e-05,1.6343472452717833e-05,1.0408688467578031e-05,6.239248614292592e-05,5.799022255814634e-05
7.597202784381807e-05,3.103136987192556e-05,8.705851541890297e-06,5.986870019114576e-05,5.079119000583887e-05
5.769817653344944e-05,3.0623421480413526e-05,6.428955657611368e-06,4.6192748413886875e-05,4.6724657295271754e-05
5.049561514169909e-05,2.5404331609024666e-05,5.43743908565375e-06,2.285126902279444e-05,5.027782390243374e-05
5.380870425142348e-05,1.678593071119394e-05,6.358274731610436e-06,-4.243057901476277e-06,6.15067474427633e-05
4.541764792520553e-05,1.3037425560469273e-05,4.272044407116482e-06,-3.2335432479158044e-05,7.23552584531717e-05
1.6259875337709673e-05,3.158846448059194e-05,-4.516064564086264e-06,-5.802058876724914e-05,7.515178003814071e-05
-2.4615068468847312e-05,6.519949238281697e-05,-1.4777102478547022e-05,-7.790771633153781e-05,7.184097921708599e-05
-6.0984290030319244e-05,8.34357415442355e-05,-2.254628634545952e-05,-9.120402683038265e-05,6.634513556491584e-05
-7.853148417780176e-05,6.738547381246462e-05,-3.160377673339099e-05,-0.00011263148917350918,5.993304148432799e-05
-7.712466322118416e-05,2.851349017873872e-05,-4.12766748922877e-05,-0.0001534853654447943,5.408058495959267e-05
-6.49489666102454e-05,-1.3096831025904976e-05,-4.429547698237002e-05,-0.00017760711489245296,5.428647273220122e-05
-5.1280199841130525e-05,-3.833836308331229e-05,-3.8103371480247006e-05,-0.0001573575718794018,6.350353942252696e-05
-4.330312367528677e-05,-3.347334495629184e-05,-3.031521919183433e-05,-0.0001299708674196154,7.441669004037976e-05
-3.832004949799739e-05,-5.931187843088992e-07,-2.1389450921560638e-05,-0.0001117705469368957,7.524979446316138e-05
-2.8700555048999377e-05,3.218029814888723e-05,-6.495820343843661e-06,-7.740424189250916e-05,7.27993028704077e-05
-2.2388754587154835e-05,4.920348146697506e-05,5.8840309975494165e-06,-2.956958815047983e-05,7.344566256506369e-05
-2.089008194161579e-05,6.702288374071941e-05,1.3639403732668143e-05,1.1577611076063477e-05,7.248517795233056e-05
-1.4591750186809804e-05,7.887704123277217e-05,2.5936995371012017e-05,5.384245014283806e-05,6.691312592010945e-05
-1.0471527275512926e-05,7.597708463435993e-05,3.831622962024994e-05,8.884257840691134e-05,6.0560596466530114e-05
-1.2945869457325898e-05,7.866675150580704e-05,4.674407682614401e-05,0.00010252340871375054,5.700158726540394e-05
-2.151523221982643e-05,9.137060260400176e-05,5.3370731620816514e-05,0.000111183529952541,5.230476745055057e-05
-2.6968838938046247e-05,0.00010592756007099524,5.710464756703004e-05,0.0001232540380442515,4.540369991445914e-05
-2.4913148081395775e-05,0.00011026682477677241,5.606763079413213e-05,0.00013257810496725142,3.8919359212741256e-05
-2.0779969418072142e-05,0.00010130401642527431,4.999906013836153e-05,0.00013103759556543082,3.5574965295381844e-05
-1.6886135199456476e-05,8.729875116841868e-05,4.0865950722945854e-05,0.00011798120976891369,3.703823676914908e-05
-1.3901847523811739e-05,7.59994363761507e-05,3.4149914426961914e-05,9.581256017554551e-05,4.506067489273846e-05
-1.8781785911414772e-05,6.4490144723095e-05,2.9811597414663993e-05,7.17144794180058e-05,5.627022255794145e-05
-3.4389246138744056e-05,5.5015276302583516e-05,2.6165260351262987e-05,5.3660049161408097e-05,6.623675290029496e-05
-5.2581712225219235e-05,6.157353345770389e-05,2.6762802008306608e-05,5.071819759905338e-05,6.862789450678974e-05
-6.997884338488802e-05,7.972996536409482e-05,3.2551510230405256e-05,6.185717938933522e-05,6.536759610753506e-05
-8.545070886611938e-05,8.06074240244925e-05,3.801406637649052e-05,7.580052624689415e-05,6.864868919365108e-05
-9.758325904840603e-05,3.8511527236551046e-05,3.7771547795273364e-05,7.348319923039526e-05,8.453898772131652e-05
-0.00010769932123366743,-2.713370486162603e-05,3.0468845579889603e-05,4.1069022699957713e-05,9.879501885734499e-05
-0.00011925157014047727,-6.913849210832268e-05,1.8048938727588393e-05,-6.030407348589506e-06,9.177868196275085e-05
-0.00011764020018745214,-7.514878234360367e-05,8.049762072914746e-06,-4.044920933665708e-05,7.117511268006638e-05
-8.931837510317564e-05,-6.742149707861245e-05,6.64279650663957e-06,-5.4365194955607876e-05,6.0077371017541736e-05
-5.2655163017334417e-05,-4.883979636360891e-05,1.0232331078441348e-05,-5.889283784199506e-05,6.56869015074335e-05
-3.294723137514666e-05,-2.5258646928705275e-05,9.575620424584486e-06,-6.760114047210664e-05,7.88472025305964e-05
-3.0456481908913702e-05,-6.676875273115002e-06,2.799331241476466e-06,-7.946990081109107e-05,8.701546903466806e-05
-2.9505057682399638e-05,9.838205187406857e-06,-3.163059318467276e-06,-7.870860281400383e-05,8.986355533124879e-05
-1.8974507838720456e-05,1.6192572729778476e-05,-2.2778217498853337e-06,-6.626362301176414e-05,9.09966547624208e-05
-1.7641414160607383e-05,1.9163604520144872e-05,4.242139311827486e-06,-4.921970685245469e-05,8.549507765565068e-05
-3.830531204584986e-05,5.165358743397519e-05,8.194028850994073e-06,-2.9490767701645382e-05,7.36088550183922e-05
-6.852488877484575e-05,0.00011409452417865396,3.3188105135195656e-06,-1.1892625479958951e-05,6.103665509726852e-05
-8.738401811569929e-05,0.00015732221072539687,-4.953792540618451e-06,3.4012387004622724e-06,5.405476986197755e-05
-8.796697511570528e-05,0.00013896689051762223,-1.6249287000391632e-05,1.255056577065261e-05,4.901530337519944e-05
-7.421994087053463e-05,7.601166726090014e-05,-2.6083667762577534e-05,1.0433370334794745e-05,4.353309850557707e-05
-4.1019622585736215e-05,2.099984703818336e-05,-2.8544754968606867e-05,-3.915477577720594e-07,4.584354974213056e-05
-8.897010957298335e-06,-1.8113012174580945e-06,-2.420555756543763e-05,-1.467501169827301e-05,5.225607310421765e-05
2.909913973780931e-06,-4.345201432442991e-06,-1.747712849464733e-05,-2.4189637770177796e-05,5.610520383925177e-05
2.3375889668386662e-06,9.44664679991547e-06,-1.1436855857027695e-05,-2.9813387300237082e-05,5.2478873840300366e-05
1.1710966646205634e-05,1.088183398678666e-05,-2.932335746663739e-06,-3.4343403967795894e-05,4.5505177695304155e-05
3.6172907130094245e-05,-1.5165726836130489e-05,6.865407158329617e-06,-3.7629943108186126e-05,4.318783976486884e-05
6.0376787587301806e-05,-2.6879599317908287e-05,1.4695400750497356e-05,-4.184384670224972e-05,4.6955046855146065e-05
6.827563629485667e-05,-1.2774442438967526e-05,1.864484693214763e-05,-5.1972812798339874e-05,5.4927841119933873e-05
5.372133819037117e-05,-3.020597205249942e-06,1.9831448298646137e-05,-6.952779222046956e-05,6.0935730289202183e-05
2.3597973267897032e-05,-1.1002298379025888e-05,1.9655764845083468e-05,-8.835314656607807e-05,6.25165703240782e-05
-9.439426321478095e-06,-1.8570202882983722e-05,1.809579953260254e-05,-9.919019794324413e-05,6.20163045823574e-05
-3.5405955713940784e-05,-1.303459703194676e-05,1.3540491636376828e-05,-9.633598529035226e-05,5.9941598010482267e-05
-5.169526775716804e-05,5.7094271141977515e-06,8.008933036762755e-06,-8.390253788093105e-05,5.452412733575329e-05
-5.918501483392902e-05,2.4744282200117595e-05,4.014352725789649e-06,-6.892123201396316e-05,4.8859979870030656e-05
-6.065118941478431e-05,3.52630449924618e-05,2.625881052154e-06,-5.408501601777971e-05,4.650719711207785e-05
-5.638807488139719e-05,4.118201104574837e-05,5.685614723915933e-06,-3.7726826121797785e-05,4.754964538733475e-05
-4.8583318857708946e-05,4.448566687642597e-05,8.651436473883223e-06,-2.109098932123743e-05,4.8488851462025195e-05
-4.030035779578611e-05,4.7672412620158866e-05,5.1812771744153e-06,-1.7007890846798546e-06,4.745660044136457e-05
-3.0933009838918224e-05,5.514436270459555e-05,-4.690620698966086e-06,1.3253698853077367e-05,4.20664728153497e-05
-2.289152325829491e-05,6.546131044160575e-05,-1.1978229849773925e-05,7.1968820520851295e-06,3.235579788452014e-05
-2.0272973415558226e-05,8.011206227820367e-05,-1.4061323781788815e-05,-1.366663218504982e-05,2.588500501587987e-05
-2.4342241886188276e-05,9.861926810117438e-05,-1.5888286725385115e-05,-3.245339394197799e-05,2.839501939888578e-05
-2.0901143216178752e-05,0.00010427967936266214,-1.486973178543849e-05,-4.143979094806127e-05,3.702147660078481e-05
5.786644578620326e-06,8.346990216523409e-05,-1.6037551176850684e-05,-5.0602298870217055e-05,4.6687840949743986e-05
2.8850645321654156e-05,4.082891973666847e-05,-1.9752102161874063e-05,-6.365292210830376e-05,5.505257286131382e-05
2.2104528397903778e-05,-9.488498108112253e-06,-2.1859026674064808e-05,-6.862440932309255e-05,6.036759077687748e-05
-1.6909253872654517e-06,-3.734730853466317e-05,-2.0303568817325868e-05,-5.951394996372983e-05,5.7577235565986484e-05
-2.195384877268225e-05,-3.088806624873541e-05,-1.723505738482345e-05,-3.522306724335067e-05,5.0777824071701616e-05
-2.8445167117752135e-05,-7.659967195650097e-06,-1.3481576388585381e-05,-1.677458203630522e-05,4.6403802116401494e-05
-1.9353365132701583e-05,1.2258936294529121e-05,-1.0268327059748117e-05,-2.2587897547055036e-05,4.747595085063949e-05
-4.7700154937047046e-06,1.695232822385151e-05,-8.540653652744368e-06,-3.8834059523651376e-05,5.115037856739946e-05
7.151573299779557e-06,2.11950591619825e-05,-2.298472281836439e-06,-4.2315656173741445e-05,5.391430386225693e-05
1.1813755918410607e-05,4.642025669454597e-05,7.332480436161859e-06,-2.7332418540026993e-05,5.723683716496453e-05
1.9748122213059105e-06,8.514088403899223e-05,1.6548761777812615e-05,-1.424872152711032e-06,6.058314465917647e-05
-2.5450377506786026e-05,9.507114737061784e-05,2.0703157133539207e-05,2.3624530513188802e-05,6.405029125744477e-05
-6.044213296263479e-05,6.3257735746447e-05,2.1206738892942667e-05,4.3476440623635426e-05,6.482248863903806e-05
-8.678367885295302e-05,2.0516688891802914e-05,2.1483758246176876e-05,6.647282862104475e-05,6.484983168775216e-05
-9.528288501314819e-05,-3.3842711673059966e-06,2.485962068021763e-05,9.714364568935707e-05,6.544130883412436e-05
-8.863854600349441e-05,-8.183701538655441e-06,3.352728163008578e-05,0.0001242770958924666,6.35498872725293e-05
-7.405245560221374e-05,-5.93335698795272e-06,4.398148303152993e-05,0.0001302675373153761,5.92254800722003e-05
-5.9098005294799805e-05,-6.17632940702606e-06,4.915490353596397e-05,0.00011017948418157175,5.7239602028857917e-05
-5.3306644986150786e-05,-1.1836488738481421e-05,4.6889461373211816e-05,7.098373316694051e-05,5.6180764659075066e-05
-6.483276229118928e-05,-2.9978129532537423e-05,3.5143541026627645e-05,2.9855658794986084e-05,5.3315841796575114e-05
-8.843531395541504e-05,-6.480119918705896e-05,1.3735327229369432e-05,3.1005499749880983e-06,4.982746031600982e-05
-9.724735718918964e-05,-8.44060123199597e-05,-4.714836904895492e-06,-1.2486179002735298e-05,5.10964346176479e-05
-7.814271521056071e-05,-3.632434527389705e-05,-1.2888242963526864e-05,-4.0302569686900824e-05,5.710812547476962e-05
-4.029135743621737e-05,7.202189590316266e-05,-1.970809171325527e-05,-8.81420710356906e-05,6.354646029649302e-05
-2.8538204333017347e-06,0.00015993751003406942,-2.3947501176735386e-05,-0.00012458987475838512,6.460575241362676e-05
3.798978650593199e-05,0.0001895827444968745,-1.9716700990102254e-05,-0.00014365112292580307,5.767800030298531e-05
7.270622154464945e-05,0.00017592374933883548,-1.8643811927177012e-05,-0.00015758394147269428,5.405836782301776e-05
6.999608740443364e-05,0.00012014243111480027,-2.0341194613138214e-05,-0.00016031385166570544,5.7871922763297334e-05
4.088159039383754e-05,4.767867358168587e-05,-1.710287506284658e-05,-0.0001387344382237643,6.577935710083693e-05
2.7234209483140148e-05,2.779303031275049e-05,-1.2375644473650027e-05,-8.921205881051719e-05,7.309071952477098e-05
3.981564077548683e-05,3.207544796168804e-05,-7.0359928940888494e-06,-3.750366158783436e-05,7.868359534768388e-05
5.007642903365195e-05,-1.1794903002737556e-05,-1.53254518409085e-06,3.227683691875427e-06,8.094291115412489e-05
4.3680600356310606e-05,-7.399757305392995e-05,5.678953129972797e-06,4.0725673898123205e-05,7.902373181423172e-05
2.0729026800836436e-05,-8.140630961861461e-05,1.6717611288186163e-05,7.994788029463962e-05,7.296699186554179e-05
-8.247576261055656e-06,-2.0504116037045605e-05,2.486595076334197e-05,0.00010411270341137424,6.126506195869297e-05
-2.970288369397167e-05,4.722780067822896e-05,2.6387671823613346e-05,0.00011009304580511525,4.779850860359147e-05
-2.9538727176259272e-05,7.514697790611535e-05,2.8825794288422912e-05,0.00011080451076850295,3.649074642453343e-05
-8.939279723563232e-06,6.747891166014597e-05,3.1202565878629684e-05,0.00010650827607605606,3.43379688274581e-05
7.5684956755139865e-06,4.0015187551034614e-05,2.7671881980495527e-05,8.776222966844216e-05,4.253979568602517e-05
7.584698323626071e-06,-3.750816190972728e-08,1.94515087059699e-05,5.781326399301179e-05,5.463706474984065e-05
1.248200646841724e-06,-3.1127459806157276e-05,1.2949857591593172e-05,2.5234177883248776e-05,6.426886830013245e-05
-2.8122531148255803e-07,-4.118941069464199e-05,8.146190339175519e-06,-4.4679868551611435e-06,7.008411921560764e-05
-1.6497772321599768e-06,-4.611478289007209e-05,2.6809170776687097e-06,-2.00153881451115e-05,7.292624650290236e-05
-6.32594810667797e-06,-5.192730895942077e-05,4.558977906299333e-08,-1.4773314433114138e-05,7.42124393582344e-05
-4.912197709927568e-06,-4.951716255163774e-05,4.5909541768196505e-07,3.595753014451475e-06,7.315159018617123e-05
1.3703201148018707e-05,-4.395293944980949e-05,2.5327017283416353e-06,1.2597209206433035e-05,6.976437725825235e-05
4.012740828329697e-05,-4.4704538595397025e-05,5.255017640592996e-06,3.266059366069385e-06,6.650323484791443e-05
4.8149871872738004e-05,-4.594607526087202e-05,8.902849913283717e-06,-1.9922990759368986e-05,6.389807822415605e-05
2.6544887077761814e-05,-3.8275407860055566e-05,1.2189639164716937e-05,-4.563957190839574e-05,6.235145701793954e-05
1.7291731637669727e-06,-2.3557444364996627e-05,1.0794182344397996e-05,-5.9043351939180866e-05,6.0765480156987906e-05
-2.022637090703938e-06,-6.673020379821537e-06,9.228416274709161e-06,-5.118429544381797e-05,6.036657214281149e-05
9.52943264564965e-06,6.345815563690849e-06,1.1415255357860588e-05,-3.156133243464865e-05,6.3595492974855e-05
2.067913010250777e-05,1.794452873582486e-05,9.405955097463448e-06,-1.4654887309006881e-05,6.829536141594872e-05
1.5465286196558736e-05,4.50892694061622e-05,2.6871466616285034e-06,2.650390058533958e-07,7.33449196559377e-05
-2.515612868592143e-05,8.503185381414369e-05,5.659695716531132e-07,1.7352514987578616e-05,7.389471284113824e-05
-8.172629895852879e-05,0.00012040847650496289,5.504368346009869e-06,2.9799895855830982e-05,6.474931433331221e-05
-0.00011475032079033554,0.00013518867490347475,8.986395187093876e-06,3.1840823794482276e-05,5.661114482791163e-05
-0.00012279432849027216,0.00012775877257809043,6.588833457499277e-06,2.1208983525866643e-05,4.996435745852068e-05
-0.00011871169408550486,0.00010512990411370993,5.778786658083845e-07,7.635879228473641e-06,4.405638173921034e-05
-0.00010964028479065746,7.413437560899183e-05,-1.6766803128120955e-06,-2.5653309876361163e-06,4.36806985817384e-05
-9.172723366646096e-05,5.031656110077165e-05,8.063823315751506e-07,-8.589636308897752e-06,4.9864254833664745e-05
-6.91100794938393e-05,5.6638084060978144e-05,3.0681362659379374e-06,-1.558835901960265e-05,6.135224248282611e-05
-5.201129533816129e-05,8.4224775491748e-05,-3.599555782329844e-07,-2.7038282496505417e-05,7.13203553459607e-05
-4.683875522459857e-05,0.00010019508772529662,-6.143213340692455e-06,-3.732081313501112e-05,7.25274148862809e-05
-5.435271668829955e-05,9.25763524719514e-05,-1.0192378795181867e-05,-4.880270716967061e-05,6.526570359710604e-05
-7.080342038534582e-05,7.970414299052209e-05,-9.798621249501593e-06,-6.671493611065671e-05,5.657221481669694e-05
-8.56910046422854e-05,7.905324309831485e-05,-8.117849574773572e-06,-9.231430885847658e-05,4.802047988050617e-05
-9.119717287831008e-05,7.596684736199677e-05,-1.3467216376739088e-05,-0.00012048016651533544,3.952228871639818e-05
-8.290461119031534e-05,5.581249570241198e-05,-2.535767634981312e-05,-0.00014453385665547103,3.5572273191064596e-05
-5.962462819297798e-05,3.599871706683189e-05,-3.462571112322621e-05,-0.00014988762268330902,4.073156742379069e-05
-2.6301848265575245e-05,3.719714004546404e-05,-3.136168379569426e-05,-0.00012412061914801598,5.1533894293243065e-05
4.9722684707376175e-06,4.9347971071256325e-05,-1.4899660527589731e-05,-7.663222640985623e-05,6.115735595813021e-05
1.6191581380553544e-05,5.842963219038211e-05,5.340622919902671e-06,-3.183267472195439e-05,6.417028635041788e-05
3.8082978335296502e-06,7.115377229638398e-05,1.7450440282118507e-05,-1.0601752364891581e-06,5.924079232499935e-05
-1.5294581316993572e-05,9.130454418482259e-05,2.2584259568247944e-05,1.535133742436301e-05,5.327775579644367e-05
-2.7162472179043107e-05,0.0001006509701255709,2.367551132920198e-05,2.9241316951811314e-05,5.3906540415482596e-05
-4.537642962532118e-05,7.962223753565922e-05,2.3316784790949896e-05,5.825131665915251e-05,5.871340908925049e-05
-8.214253466576338e-05,3.141212073387578e-05,2.6271454771631397e-05,9.407887409906834e-05,5.978794433758594e-05
-0.00012631819117814302,-1.6045858501456678e-05,3.10987452394329e-05,0.00010358473082305863,5.598938878392801e-05
-0.00016709337069187313,-4.702675141743384e-05,3.132560959784314e-05,8.472616173094139e-05,5.2623705414589494e-05
-0.00019054215226788074,-6.972261326154694e-05,2.5874236598610878e-05,6.809932528994977e-05,5.271198460832238e-05
-0.00018070550868287683,-0.00010270574421156198,1.2772117770509794e-05,5.194104596739635e-05,5.727372263208963e-05
-0.0001450869458494708,-0.00012733452604152262,1.2866743190897978e-06,3.0393759516300634e-05,5.839557707076892e-05
-9.78640018729493e-05,-0.00011021256068488583,-3.2175025808101054e-06,5.12239648742252e-06,5.437436266220175e-05
-5.918750321143307e-05,-7.12278051651083e-05,-8.62124034028966e-06,-4.7045548853930086e-05,5.088500984129496e-05
-4.0365612221648917e-05,-1.7323340216535144e-05,-2.1242196453385986e-05,-0.00013982602104078978,5.2129536925349385e-05
-3.5142638807883486e-05,5.580097786150873e-05,-3.6683799407910556e-05,-0.00024932881933636963,5.858731674379669e-05
-2.7344218324287795e-05,0.00011283964704489335,-4.568696749629453e-05,-0.0003332959895487875,6.265298725338653e-05
-7.956172339618206e-06,0.00011716644075931981,-4.560859451885335e-05,-0.00036199906026013196,6.304958515102044e-05
2.279444015584886e-05,7.071904838085175e-05,-3.6547240597428754e-05,-0.00032574322540313005,6.402875442290679e-05
6.62449310766533e-05,1.0390801435278263e-05,-2.1750705855083652e-05,-0.00023858321947045624,6.8596018536482e-05
0.00011683896445902064,-2.1846481104148552e-05,-3.053297859878512e-06,-0.00011889734741998836,7.235285738715902e-05
0.00015940323646645993,6.707806278427597e-06,1.67632351804059e-05,2.592019700387027e-05,7.088926940923557e-05
0.00017393336747772992,7.20730604371056e-05,3.4885844797827303e-05,0.00018583532073535025,6.534472777275369e-05
0.00015810834884177893,0.00010756718984339386,5.0208789616590366e-05,0.00032516015926375985,5.829797009937465e-05
0.00012373107892926782,8.159737626556307e-05,6.349623436108232e-05,0.00040133247966878116,5.063154821982607e-05
8.325467933900654e-05,3.45367516274564e-05,7.04340054653585e-05,0.0004048319242428988,4.043041917611845e-05
4.141957833780907e-05,1.8533188267610967e-05,6.57185009913519e-05,0.00035768208908848464,2.9997161618666723e-05
5.360657837627514e-07,3.006107363034971e-05,5.0008635298581794e-05,0.00028528081020340323,2.5273673600167967e-05
-3.391650170669891e-05,3.640595969045535e-05,2.921497798524797e-05,0.0002053065982181579,3.000638935191091e-05
-5.2424562454689294e-05,1.9033419448533095e-05,1.4906894648447633e-05,0.00013056924217380583,4.034281300846487e-05
-5.18184679094702e-05,-1.7753483916749246e-05,1.2654799320443999e-05,6.81598176015541e-05,4.830896432395093e-05
-4.417884338181466e-05,-5.2096373110543936e-05,1.5920137229841202e-05,2.3445776605512947e-05,5.3825169743504375e-05
-4.188940147287212e-05,-6.974356801947579e-05,1.715594953566324e-05,-4.643598458642373e-06,5.886092912987806e-05
-4.010453267255798e-05,-7.415121945086867e-05,1.592782609804999e-05,-1.5866664398345165e-05,5.743854489992373e-05
-3.575842492864467e-05,-6.205034151207656e-05,1.7514188584755175e-05,-2.1638081307173707e-05,4.989312947145663e-05
-2.682176636881195e-05,-2.6029860237031244e-05,1.7459975424571894e-05,-3.498044316074811e-05,4.600863758241758e-05
-1.693942249403335e-05,2.1571569959633052e-05,1.1852018360514194e-05,-5.532083014259115e-05,4.874174919677898e-05
-1.3430868420982733e-05,5.341979340300895e-05,6.126186690380564e-06,-7.449340773746371e-05,5.159679494681768e-05
-1.655115556786768e-05,6.055308040231466e-05,3.3585902201593854e-06,-7.650830957572907e-05,5.08506600453984e-05
-2.986319850606378e-05,5.4525262385141104e-05,7.155465482355794e-06,-6.726229912601411e-05,4.674548108596355e-05
-4.933404125040397e-05,4.892141078016721e-05,1.2961428183189128e-05,-6.554786523338407e-05,4.022791108582169e-05
-7.452651334460825e-05,4.097867349628359e-05,1.1629713299043942e-05,-7.045660458970815e-05,4.113225077162497e-05
-9.769193275133148e-05,3.416233084863052e-05,5.072009116702247e-06,-6.911746459081769e-05,5.6638134992681444e-05
-0.00010734892566688359,3.818463665083982e-05,-3.0443320042650157e-07,-5.4428968724096194e-05,7.846431253710762e-05
-0.00010001626651501283,5.412672908278182e-05,-1.859668032011541e-06,-3.518883022479713e-05,9.093996050069109e-05
-9.096675785258412e-05,6.322118133539334e-05,-1.1223764886381105e-06,-2.174604742322117e-05,9.091497486224398e-05
-9.504813351668417e-05,5.326674727257341e-05,-1.2365343593501166e-07,-1.0390690476924647e-05,8.599108696216717e-05
-0.00010332196688978001,3.372902574483305e-05,4.5667951553696184e-07,5.489791874424554e-06,8.804264507489279e-05
-0.00010113531607203186,3.128975731669925e-05,1.9139279174851254e-06,1.6656729712849483e-05,0.00010019013279816136
-9.565315849613398e-05,5.1319737394806e-05,2.730187816268881e-06,1.089020133804297e-05,0.00010757132986327633
-0.00010274339001625776,7.17966104275547e-05,1.089237343876448e-06,-9.46115960687166e-06,9.802419663174078e-05
-0.00011686261859722435,9.187810064759105e-05,-2.797892875605612e-06,-3.837288750219159e-05,7.395029388135299e-05
-0.00012019109999528155,0.0001252567017218098,-6.475447662523948e-06,-6.649868009844795e-05,4.3866235500900075e-05
-0.00010371369717177004,0.00015436705143656582,-8.260776667157188e-06,-8.257115405285731e-05,2.0660476366174407e-05
-6.802043208153918e-05,0.00013295999087858945,-1.2848345249949489e-05,-8.578143751947209e-05,1.6857913578860462e-05
-1.3004549145989586e-05,5.21436013514176e-05,-1.9130615328322165e-05,-7.844684296287596e-05,3.3124462788691744e-05
4.563921902445145e-05,-3.8029342249501497e-05,-1.8471411749487743e-05,-5.895868889638223e-05,6.0399568610591814e-05
8.526878082193434e-05,-7.768967043375596e-05,-7.926551916170865e-06,-3.977260348619893e-05,8.608705684309825e-05
9.877607953967527e-05,-5.740761844208464e-05,3.1320871585194254e-06,-4.8179153964156285e-05,9.686568228062242e-05
9.252762538380921e-05,-1.0480038326932117e-05,5.384712494560517e-06,-8.435834752162918e-05,9.017661795951426e-05
6.732361362082884e-05,3.64429724868387e-05,3.835457391687669e-06,-0.00010794959962368011,7.867343811085448e-05
3.3618180168559775e-05,8.318353502545506e-05,9.190166565531399e-06,-9.386931196786463e-05,6.847521581221372e-05
1.8547001673141494e-05,0.00011394068860681728,2.2012733097653836e-05,-4.606613583746366e-05,6.580462650163099e-05
3.808799374382943e-05,0.00010455637675477192,3.216487675672397e-05,1.3432455489237327e-05,7.139010267565027e-05
6.513450352940708e-05,7.998666114872321e-05,3.635377288446762e-05,6.50085712550208e-05,7.421282498398796e-05
6.496628338936716e-05,7.564062980236486e-05,3.22682099067606e-05,0.0001026470199576579,6.79014774505049e-05
3.9337948692264035e-05,7.128738798201084e-05,2.0012968889204785e-05,0.0001091921585611999,5.91561256442219e-05
5.83844348511775e-06,5.993733793729916e-05,8.678567610331811e-06,7.93609578977339e-05,5.673463238053955e-05
-2.3788274120306596e-05,5.0351594836683944e-05,3.056138211832149e-06,3.472470416454598e-05,5.417143984232098e-05
-5.049820174463093e-05,4.247613105690107e-05,-1.1353801028235466e-06,3.3813630579970777e-06,4.895205347565934e-05
-7.241377170430496e-05,2.506259988876991e-05,-9.619136108085513e-06,-1.2494368093030062e-05,4.612136399373412e-05
-7.925741374492645e-05,-2.5537436158629134e-05,-1.6637011867715046e-05,-2.7709642381523736e-05,4.466544123715721e-05
-6.977049633860588e-05,-8.516191883245483e-05,-1.725109359540511e-05,-4.8497044190298766e-05,4.5421104005072266e-05
-5.585614053416066e-05,-9.99576150206849e-05,-7.966992598085199e-06,-6.728806329192594e-05,4.755359987029806e-05
-4.142153193242848e-05,-0.00010332783858757466,2.266559704366955e-06,-7.970089063746855e-05,4.962723687640391e-05
-2.370912625337951e-05,-0.0001327980717178434,4.012887075077742e-06,-8.864320261636749e-05,5.309422704158351e-05
-4.141828412684845e-06,-0.0001264141028514132,-1.7719162315188441e-06,-9.591409616405144e-05,5.6556124036433175e-05
1.2750732821587007e-05,-5.460945612867363e-05,-7.194664704002207e-06,-9.950605453923345e-05,5.769790368503891e-05
2.573864367150236e-05,2.6700996386352926e-05,-6.050102001609048e-06,-0.00010387858492322266,5.8719415392261e-05
3.350232873344794e-05,6.691335147479549e-05,-5.482871983986115e-06,-0.00011767443356802687,6.028806456015445e-05
3.5290384403197095e-05,7.181429828051478e-05,-9.365882760903332e-06,-0.0001301463635172695,5.977977707516402e-05
3.339202521601692e-05,6.377977115334943e-05,-1.1988434380327817e-05,-0.00011989814811386168,5.625696576316841e-05
3.0799761589150876e-05,5.843584585818462e-05,-8.291302947327495e-06,-8.16346364445053e-05,5.070834595244378e-05
2.627727917570155e-05,5.224944470683113e-05,-2.5559218101989245e-06,-3.5192537325201556e-05,4.460477066459134e-05
8.498891475028358e-06,4.523013922153041e-05,-3.2643554277456133e-06,-1.1242067557759583e-05,3.9833168557379395e-05
-2.6573052309686318e-05,4.443699071998708e-05,-1.5762690964038484e-05,-2.0902056348859333e-05,4.10935863328632e-05
-6.391856004483998e-05,5.591754961642437e-05,-2.7932024750043638e-05,-3.296219074400142e-05,5.096949826111086e-05
-7.85773663665168e-05,6.012940502841957e-05,-2.4545468477299437e-05,-1.8172240743297152e-05,6.597534957109019e-05
-7.074432505760342e-05,3.947549339500256e-05,-1.106143190554576e-05,9.974530257750303e-06,7.125315460143611e-05
-6.587705138372257e-05,1.2405407687765546e-05,4.842961971007753e-06,1.3841421605320647e-05,6.416268297471106e-05
-7.907113467808813e-05,-3.457938873907551e-06,1.3210015822551213e-05,-5.924572178628296e-06,5.426288043963723e-05
-9.562201012158766e-05,-9.651294931245502e-06,1.0631307304720394e-05,-1.4514734175463673e-05,5.10585232404992e-05
-9.33374758460559e-05,-1.272145254915813e-05,8.611258635937702e-06,-7.547378118033521e-06,5.326564860297367e-05
-7.884520891821012e-05,-5.973005499981809e-06,4.193012955511222e-06,1.070461166818859e-05,5.4971045756246895e-05
-6.633638258790597e-05,9.086622412723955e-06,3.218375468350132e-06,5.47363561054226e-05,5.53060817765072e-05
-5.912580309086479e-05,3.5506265703588724e-05,1.2025361684209201e-05,0.00011570631613722071,5.1741932111326605e-05
-5.068987957201898e-05,6.711129390168935e-05,2.8191689125378616e-05,0.00017176529217977077,4.790432285517454e-05
-3.320281393826008e-05,8.194517431547865e-05,4.325426198192872e-05,0.00020886307174805552,4.471423017093912e-05
-1.3167074030207004e-05,6.804046279285103e-05,4.8267091187881306e-05,0.00021962936443742365,4.6893601393094286e-05
-5.371450697566615e-06,4.188772072666325e-05,4.667854591389187e-05,0.0002063246356556192,5.223372136242688e-05
-2.016267717408482e-05,3.4665496059460565e-05,4.764628829434514e-05,0.00017917613149620593,5.7095487136393785e-05
-5.473008059198037e-05,4.328320937929675e-05,5.20551111549139e-05,0.00014439623919315636,6.205643148859963e-05
-8.8647058873903e-05,4.196222289465368e-05,5.291060369927436e-05,9.976029832614586e-05,6.383175787050277e-05
-0.00010265708260703832,2.372327071498148e-05,4.7929061111062765e-05,5.1097867981297895e-05,5.705097646568902e-05
-9.447276534046978e-05,2.4100970676954603e-06,3.699414082802832e-05,1.1438324690971058e-05,4.7032226575538516e-05
-7.161599205574021e-05,-1.0184825441683643e-05,2.535958083171863e-05,-1.3277444850245956e-05,4.690655259764753e-05
-4.67515601485502e-05,-8.7108292063931e-06,1.8967622963828035e-05,-2.767119622149039e-05,5.5565447837579995e-05
-3.108273449470289e-05,-5.678612069459632e-07,1.797788354451768e-05,-3.568775355233811e-05,6.45562176941894e-05
-2.6588517357595265e-05,5.3078219934832305e-06,1.611737570783589e-05,-3.904512777808122e-05,6.807853787904605e-05
-2.7831067200168036e-05,1.393328420817852e-05,1.4920786270522512e-05,-3.743411070900038e-05,6.821008719271049e-05
-2.995772592839785e-05,3.113974162261002e-05,1.928621895785909e-05,-3.15916768158786e-05,6.834427767898887e-05
-3.076114080613479e-05,6.025307811796665e-05,2.4458306143060327e-05,-2.3868160496931523e-05,6.926730566192418e-05
-2.3591788703924976e-05,9.632309956941754e-05,2.081435377476737e-05,-1.9924646039726213e-05,6.807708996348083e-05
-1.4669631127617322e-06,0.00012536563735920936,9.329675776825752e-06,-2.2685180738335475e-05,6.426180334528908e-05
2.466025216563139e-05,0.00015223650552798063,-5.993051217956236e-06,-2.912175295932684e-05,6.190088606672361e-05
2.6231855372316204e-05,0.00017063874111045152,-1.8559700038167648e-05,-4.206930680084042e-05,6.0092621424701065e-05
1.8047107914753724e-06,0.0001653312356211245,-2.5368291971972212e-05,-5.961723582004197e-05,5.631152089335956e-05
-1.5718696886324324e-05,0.00014767295215278864,-2.9021854061284102e-05,-6.754820788046345e-05,4.976158743374981e-05
-2.213165134890005e-05,0.00011483707930892706,-2.8709202524623834e-05,-7.096365879988298e-05,4.191758853266947e-05
-3.4295291698072106e-05,6.716972711728886e-05,-2.3839489585952833e-05,-7.356281275860965e-05,3.99304844904691e-05
-5.240561586106196e-05,1.93617361219367e-05,-1.3945512364443857e-05,-6.938505975995213e-05,4.203870412311517e-05
-6.714426126563922e-05,-1.588368286320474e-05,-4.80785138279316e-06,-6.694622425129637e-05,5.022293044021353e-05
-7.281643047463149e-05,-2.790973667288199e-05,-1.5962294810378808e-06,-7.899104821262881e-05,6.301506800809875e-05
-7.302965968847275e-05,-1.6065354429883882e-05,-7.376770099654095e-06,-0.00010064298840006813,7.428698154399171e-05
-6.881471199449152e-05,1.646132477617357e-05,-1.9867180526489392e-05,-0.00011230694508412853,8.508338214596733e-05
-5.531350689125247e-05,6.18140838923864e-05,-2.926717934315093e-05,-0.00010734696115832776,9.157862223219126e-05
-3.246007327106781e-05,0.00010912698780884966,-2.5931873096851632e-05,-8.721743506612256e-05,9.047023195307702e-05
4.512280611379538e-06,0.00015138938033487648,-1.2209926353534684e-05,-5.801794759463519e-05,8.336969040101394e-05
5.4104883020045236e-05,0.00017530092736706138,-2.122370915458305e-06,-2.7910953576792963e-05,7.716255640843883e-05
9.55260984483175e-05,0.00012576788139995188,-3.226351509511005e-06,-1.1910339026144356e-07,7.662065763724968e-05
0.00011377591727068648,-2.0750987459905446e-05,-8.50770538818324e-06,2.474153552611824e-05,7.971383456606418e-05
0.00011097067181253806,-0.00018047125195153058,-6.939813374629011e-06,3.250082954764366e-05,8.139110286720097e-05
9.601700003258884e-05,-0.0002645537897478789,-1.939956746355165e-06,1.2294300177018158e-05,8.140734280459583e-05
7.334504334721714e-05,-0.00027419885736890137,-1.436279035260668e-06,-1.6753130694269203e-05,7.723750604782254e-05
4.5083837903803214e-05,-0.00024242961080744863,-4.355216333351564e-06,-3.301217293483205e-05,6.563260103575885e-05
1.1963941688009072e-05,-0.0001808446686482057,-7.237209956656443e-06,-4.1355979192303494e-05,4.595912469085306e-05
-2.630772905831691e-05,-0.0001115449340431951,-7.3873188739526086e-06,-5.162908564670943e-05,2.6396770408609882e-05
-6.0243342886678874e-05,-6.0718335589626804e-05,-2.745588972175028e-06,-6.138897879282013e-05,1.6597394278505817e-05
-6.885404582135379e-05,-2.9525461286539212e-05,3.053800583074917e-06,-6.686959386570379e-05,1.8934653780888766e-05
-4.8498332034796476e-05,1.8481894130673027e-06,4.615673333319137e-06,-6.394618685590103e-05,2.680488978512585e-05
-1.4797064068261534e-05,2.7416015655035153e-05,1.1532565622474067e-06,-6.249527359614149e-05,3.113750790362246e-05
1.1739437468349934e-05,2.6277239157934673e-05,-3.970349098381121e-06,-6.618408224312589e-05,2.98592585750157e-05
1.643239738768898e-05,8.010564670257736e-06,-4.071559942531167e-06,-5.299030090100132e-05,2.771488288999535e-05
-3.150653128614067e-06,-5.343238171917619e-06,4.088487457920564e-06,-1.9733195586013608e-05,3.430003926041536e-05
-3.663464667624794e-05,6.140460754977539e-06,4.462405286176363e-06,1.5030529539217241e-05,4.850012555834837e-05
-6.027253402862698e-05,3.360165283083916e-05,-1.2380091902741697e-06,4.063776577822864e-05,6.227239646250382e-05
-6.710593879688531e-05,5.447003059089184e-05,6.893150157338823e-07,5.491537740454078e-05,6.672201561741531e-05
-6.760679389117286e-05,6.156510062282905e-05,5.433309070212999e-06,5.9656646044459194e-05,6.168350955704227e-05
-6.367341848090291e-05,6.398289406206459e-05,1.00911829576944e-05,5.5802880524424836e-05,5.434619743027724e-05
-5.37179148523137e-05,7.473037840100005e-05,1.1528607501531951e-05,4.428948523127474e-05,4.965034531778656e-05
-4.5720556954620406e-05,8.488260937156156e-05,1.2666089787671808e-05,2.5336959879496135e-05,4.7814839490456507e-05
-4.6267428842838854e-05,9.681216033641249e-05,1.0863953320949804e-05,-6.893776571814669e-07,4.888579132966697e-05
-5.045766374678351e-05,0.00011973260552622378,3.902004664269043e-06,-2.795002728817053e-05,5.363576201489195e-05
-5.604630496236496e-05,0.00014478045341093093,-5.637612503051059e-06,-4.6142951759975404e-05,5.8833189541473985e-05
-6.191768625285476e-05,0.00015450951468665153,-1.1141913091705646e-05,-4.9509624659549445e-05,6.0655474953819066e-05
-6.379267142619938e-05,0.00015334622003138065,-1.0642981578712352e-05,-3.959926834795624e-05,6.113748531788588e-05
-5.866393257747404e-05,0.00015596201410517097,-6.96965844326769e-06,-2.1392614144133404e-05,6.533182749990374e-05
-4.7689452912891284e-05,0.0001595208013895899,-4.400338639243273e-06,-1.869398602138972e-06,6.845546886324883e-05
-3.7952202546875924e-05,0.00014797681069467217,-1.909223556140205e-06,9.713805411593057e-06,6.810019112890586e-05
-3.482108149910346e-05,0.00011144292511744425,5.686795248038834e-06,1.064102070813533e-05,6.752038461854681e-05
-3.5865046811522916e-05,6.391912756953388e-05,1.551078457850963e-05,8.674924174556509e-06,6.66760461172089e-05
-3.673165701911785e-05,2.277631574543193e-05,2.3229700673255138e-05,1.0118917998624966e-05,6.510162347694859e-05
-4.3521937186596915e-05,-1.2403739674482495e-05,2.9663287932635285e-05,1.2525255442596972e-05,6.459333235397935e-05
-6.354256038321182e-05,-5.197662903810851e-05,3.572788409655914e-05,1.007947139441967e-05,6.639401544816792e-05
-8.546163007849827e-05,-9.345765283796936e-05,3.963272683904506e-05,3.8100022266007727e-06,6.959538586670533e-05
-8.866174903232604e-05,-0.0001248880580533296,3.936232315027155e-05,-4.935441779707617e-07,7.155784987844527e-05
-7.77419118094258e-05,-0.00013193479389883578,3.184687011525966e-05,-1.8594727180243353e-06,6.840598507551476e-05
-7.715503306826577e-05,-0.00010629741882439703,2.307797512912657e-05,-1.0600897439871915e-06,6.013399615767412e-05
-8.72633681865409e-05,-6.505157944047824e-05,1.5808051102794707e-05,2.845907147275284e-06,5.457068982650526e-05
-9.166750533040613e-05,-4.9287977162748575e-05,7.3275959948659874e-06,6.2874269133317284e-06,5.8908131904900074e-05
-8.272242121165618e-05,-2.7087835405836813e-05,-3.0393257475225255e-06,7.0332448558474425e-06,6.707059947075322e-05
-6.560901965713128e-05,4.38763527199626e-05,-1.2273455467948224e-05,4.295634880691068e-06,7.004141662037e-05
-4.850395635003224e-05,9.324544225819409e-05,-1.7234044207725674e-05,1.4475349416898098e-06,7.015616574790329e-05
-3.130870754830539e-05,8.14458035165444e-05,-1.4808203559368849e-05,3.4613181014719885e-06,6.81304736644961e-05
-2.135402974090539e-05,3.9414015191141516e-05,-9.208756637235638e-06,6.666185981885064e-06,6.574225699296221e-05
-1.856743256212212e-05,-3.2252924029307906e-06,-5.770947609562427e-06,2.582871502454509e-06,6.388453766703606e-05
-1.5595565855619498e-05,-2.7172700356459245e-05,-3.1196265126709477e-07,-6.741980541846715e-06,6.087548899813555e-05
-8.958653779700398e-06,-3.078637018916197e-05,1.3308320376381744e-05,-1.1646993698377628e-05,6.200422649271786e-05
-1.4749349475096096e-06,-8.734571565582883e-06,2.5710376576171257e-05,-1.5045357031340245e-05,6.711105379508808e-05
3.329254241180024e-06,3.0162713301251642e-05,2.8850505259470083e-05,-1.8670949430088513e-05,7.53752829041332e-05
9.858140401775017e-06,6.305317219812423e-05,2.5578614440746605e-05,-1.9615630662883632e-05,8.628625073470175e-05
1.6242456695181318e-05,8.845674165058881e-05,2.4804394342936575e-05,-1.604549106559716e-05,9.260189108317718e-05
1.2713613614323549e-05,0.00012059398432029411,2.740193849604111e-05,-1.3021211088926066e-05,8.560375863453373e-05
2.460807536408538e-06,0.00016244490689132363,2.576379120000638e-05,-1.5838597391848452e-05,7.288396591320634e-05
7.004523467912804e-06,0.00020504645362962037,1.80578172148671e-05,-2.0280374883441254e-05,6.767313607269898e-05
3.5141212720191106e-05,0.00021712186571676284,8.913818419387098e-06,-2.054027390840929e-05,6.941578612895682e-05
6.980723264859989e-05,0.00015510243247263134,4.603904926625546e-06,-1.6811038221931085e-05,7.140440720831975e-05
8.660375897306949e-05,3.194486635038629e-05,4.668121164286276e-06,-1.6840320313349366e-05,6.859430141048506e-05
7.31810723664239e-05,-6.668690184596926e-05,6.368946287693689e-06,-2.473673339409288e-05,6.434247916331515e-05
3.5216991818742827e-05,-7.6218020694796e-05,6.549562385771424e-06,-3.9712020225124434e-05,6.269568257266656e-05
-2.17305955629854e-06,-1.0159022167499643e-05,8.499737305101007e-06,-5.886295548407361e-05,6.133853457868099e-05
-1.4995798665040638e-05,6.433073576772586e-05,1.417825205862755e-05,-7.361503230640665e-05,5.7198987633455545e-05
-6.343443146761274e-06,8.276293374365196e-05,1.7198504792759195e-05,-7.234319491544738e-05,5.352756488719024e-05
1.5294895092665683e-06,4.64344811916817e-05,9.546959518047515e-06,-5.7809789723251015e-05,4.923714368487708e-05
-2.621358589749434e-06,2.152491333617945e-06,-2.3536113076261245e-06,-3.754144563572481e-05,4.439535769051872e-05
-1.220472768181935e-05,-1.3980476978758816e-05,-9.483663234277628e-06,-9.931590284395497e-06,4.457577961147763e-05
-1.7911837858264334e-05,-1.7275311847697594e-06,-9.949442755896598e-06,2.7859670808538795e-05,4.9083319026976824e-05
-1.572390647197608e-05,2.7887404939974658e-05,-7.831659786461387e-06,6.566481897607446e-05,5.793932723463513e-05
-2.1501031369552948e-05,6.0248232330195606e-05,-7.90208468970377e-06,8.13215083326213e-05,5.8334841014584526e-05
-5.7839060900732875e-05,8.518488903064281e-05,-1.0568537618382834e-05,6.827726610936224e-05,5.427116047940217e-05
-0.00011420375813031569,9.028049680637196e-05,-1.2820219126297161e-05,3.149525582557544e-05,5.9543461247812957e-05
-0.00016349150973837823,7.660986011615023e-05,-9.187870091409422e-06,-1.2388545655994676e-05,6.745814607711509e-05
-0.00019517641339916736,5.371893348637968e-05,-3.057042704313062e-06,-4.597214865498245e-05,6.851949001429603e-05
-0.00020906781719531864,3.10134346364066e-05,8.425224109487317e-07,-6.936791760381311e-05,5.982572110951878e-05
-0.0002063383290078491,3.335583096486516e-05,-1.215151542055537e-06,-8.450470340903848e-05,4.689324487117119e-05
-0.0001913504966069013,4.706031904788688e-05,-8.833025276544504e-06,-8.870314195519313e-05,3.39887774316594e-05
-0.0001588966988492757,5.214905831962824e-05,-1.3682784810953308e-05,-7.075329631334171e-05,3.633358937804587e-05
-0.0001141920147347264,5.045733996666968e-05,-1.3021585800743196e-05,-4.073759919265285e-05,5.9630499890772626e-05
-7.390756218228489e-05,6.132832641014829e-05,-8.373538548767101e-06,-1.9857479856000282e-05,8.632757817395031e-05
-3.912059037247673e-05,9.5742019766476e-05,-6.084702818043297e-06,-1.3410015526460484e-05,9.4458824605681e-05
2.5394127689537527e-08,0.00013480846246238798,-5.5756413530616555e-06,-1.2393183169479016e-05,8.298109605675563e-05
5.078578396933153e-05,0.00015034197713248432,-2.5547942641424015e-06,-8.464377060590778e-06,6.500243762275204e-05
0.00011781162902479991,0.00014532766363117844,2.943812887679087e-06,-2.4901878532546107e-06,5.4898991947993636e-05
0.00018815179646480829,0.0001267617626581341,7.983780960785225e-06,2.0982514570278e-07,5.7599900173954666e-05
0.0002201942988904193,6.954916170798242e-05,1.326289293501759e-05,-1.9282117591501446e-06,6.356003723340109e-05
0.00019801159214694053,-4.3972861021757126e-05,1.922959381772671e-05,-1.2884847819805145e-06,6.637015758315101e-05
0.0001596836664248258,-0.00020094518549740314,1.991321005334612e-05,4.260366040398367e-06,6.150813715066761e-05
0.00014417288184631616,-0.00033176018041558564,1.198414247483015e-05,2.7915864393435186e-06,4.989982699044049e-05
0.0001384086936013773,-0.00032934374758042395,-5.465064987220103e-07,-2.1160651158425026e-05,4.3013569666072726e-05
0.00011409684520913288,-0.00019091075228061527,-1.0386005669715814e-05,-5.639749360852875e-05,4.5705448428634554e-05
7.114404434105381e-05,-5.511578274308704e-05,-1.5302948668249883e-05,-7.317030394915491e-05,5.202661486691795e-05
2.0037268768646754e-05,-1.3671040505869314e-05,-1.6601748939137906e-05,-6.0989466874161735e-05,5.378908826969564e-05
-2.0982484784326516e-05,-1.818656710383948e-05,-1.3447760466078762e-05,-3.5545766877476126e-05,4.523810639511794e-05
-3.689259392558597e-05,-1.965935189218726e-05,-5.300507382344222e-06,-7.857302989577875e-06,3.634434688137844e-05
-3.2977768569253385e-05,-2.8614644179469906e-05,2.98933719022898e-06,2.94307064905297e-05,3.842979276669212e-05
-2.7108371796202846e-05,-3.084151103394106e-05,7.055416972434614e-06,7.296023250091821e-05,4.6074052079347894e-05
-3.273427500971593e-05,-1.4540050869982224e-05,1.4636414562119171e-05,0.00010535064211580902,4.5835742639610544e-05
