1.6451109331683256e-05,4.159697346040048e-05,6.4536552599747665e-06,-1.450815574344233e-07,7.164219277910888e-05
1.783942752808798e-05,-5.064912329544313e-07,2.7182602480024798e-06,-3.816600838035811e-06,7.145760901039466e-05
4.2762431462506356e-07,-4.412127236719243e-05,7.824025374247867e-07,-8.402703315368854e-06,6.536196451634169e-05
-1.8130978787667118e-05,-4.346375135355629e-05,4.327155238570413e-06,-8.769728992774617e-06,5.8479057770455256e-05
-2.6717520086094737e-05,-1.4326966265798546e-05,7.647186066606082e-06,-4.23534402216319e-06,5.722741116187535e-05
-2.494191903679166e-05,6.405689873645315e-06,7.352801731030922e-06,-2.035746859974097e-07,5.638824586640112e-05
-2.5957195248338394e-05,1.9533308659447357e-05,3.1415945613844087e-06,1.4022324421603116e-06,5.346134275896475e-05
-2.6779267500387505e-05,3.366060627740808e-05,1.9613344193203375e-06,1.0566866421868326e-06,5.4642860050080344e-05
-2.2174406694830395e-05,4.231477214489132e-05,6.15339877185761e-06,-4.104688855477434e-07,5.7685076171765104e-05
-1.2525181773526128e-05,4.5893008064012975e-05,1.003641136776423e-05,-2.9299335437826812e-06,5.780442006653175e-05
-2.6719283141574124e-06,4.3944077333435416e-05,1.0723056220740546e-05,-4.654419171856716e-06,5.573409725911915e-05
1.434318846804672e-06,3.112736521870829e-05,9.353695531899575e-06,-3.7620543480443303e-06,5.608271749224514e-05
-4.966497726854868e-06,1.235930722032208e-05,9.199639862345066e-06,-5.626056918117683e-06,5.7438082876615226e-05
-2.124641468981281e-05,6.3621937442803755e-06,1.1249258932366502e-05,-1.149222589447163e-05,5.6187607697211206e-05
-4.5444110583048314e-05,1.666858406679239e-05,1.317729038419202e-05,-1.66716145031387e-05,5.350997525965795e-05
-6.731201574439183e-05,2.925835724454373e-05,1.296721620747121e-05,-1.7405351172783412e-05,5.21003566973377e-05
-6.867507909191772e-05,3.6086981708649546e-05,1.0433610441396013e-05,-1.3308587767824065e-05,5.417890497483313e-05
-4.8434987547807395e-05,4.100340811419301e-05,6.079346803744556e-06,-7.92633909441065e-06,5.8125304349232465e-05
-2.6532658012001775e-05,5.2311392209958285e-05,1.4031238606548868e-06,-7.66447283240268e-06,5.96345380472485e-05
-1.7705473510432057e-05,6.747613952029496e-05,-1.6345712765541975e-06,-1.0519582247070502e-05,5.6404689530609176e-05
-1.8750150047708303e-05,7.713541708653793e-05,-8.170017622433079e-07,-9.193679034069646e-06,5.338350456440821e-05
-2.051734372798819e-05,8.227421494666487e-05,2.961085328934132e-06,-5.764221896242816e-06,5.477399463416077e-05
-1.653507752052974e-05,8.268823876278475e-05,7.425638614222407e-06,-4.2593937905621715e-06,6.098675657995045e-05
-1.0355568520026281e-05,7.154146442189813e-05,9.8765995062422e-06,-3.525610964061343e-06,6.598278559977189e-05
-8.778181836532895e-06,4.98822373629082e-05,7.976145752763841e-06,-6.836150078015635e-06,6.434418173739687e-05
-1.5273533790605143e-05,2.475954170222394e-05,5.26086250829394e-06,-1.2313428669585846e-05,5.890245665796101e-05
-2.556705476308707e-05,-3.4777635846694466e-06,1.7165176586786401e-06,-1.532056921860203e-05,5.2383646107045934e-05
-3.135059887426905e-05,-4.238622568664141e-05,-5.044633780926233e-06,-1.4683857443742454e-05,5.115320527693257e-05
-2.4755172489676625e-05,-6.0673402913380414e-05,-8.147068911057431e-06,-1.5054784853418823e-05,5.320349373505451e-05
-1.2343265552772209e-05,-4.048171831527725e-05,-5.556342330237385e-06,-1.5995790818124078e-05,5.610279185930267e-05
-5.133249487698777e-06,-8.200491720344871e-06,-1.1929827223866596e-06,-1.0980638762703165e-05,5.906671503908001e-05
-5.593526111624669e-06,1.4028642908670008e-05,2.032361862802645e-06,-3.9573246795043815e-06,5.8930258092004806e-05
-1.1096829439338762e-05,3.0193561997293727e-06,4.705148512584856e-06,2.6310635803383775e-07,5.7522807765053585e-05
-2.0627894627978094e-05,-1.8756809367914684e-05,6.304109774646349e-06,-2.9920388442405965e-06,5.40868059033528e-05
-2.929981565102935e-05,-1.4851029845885932e-05,1.0408528396510519e-05,-1.0331951671105344e-05,4.888120383839123e-05
-3.241369631723501e-05,9.431783837499097e-06,1.384824099659454e-05,-1.1006995919160545e-05,4.78757283417508e-05
-3.09701390506234e-05,2.8699867471004836e-05,1.417094699718291e-05,-5.146249804965919e-06,5.2115963626420125e-05
-2.6393992811790667e-05,3.299782838439569e-05,1.1600510333664715e-05,8.040014449761657e-07,5.6769116781651974e-05
-1.9654793504741974e-05,2.9452596209011972e-05,7.574811661470449e-06,2.7085065994469915e-06,5.74594596400857e-05
-1.6563591998419724e-05,2.013765879382845e-05,4.809833626495674e-06,1.8427089116812567e-06,5.468907329486683e-05
-1.909218008222524e-05,5.413008238974726e-06,5.107237029733369e-06,4.187788363196887e-06,5.433582919067703e-05
-2.0314217181294225e-05,-1.7549405129102524e-06,9.593622053216677e-06,1.0160115380131174e-05,5.726121162297204e-05
-1.9033921489608474e-05,7.495045338146156e-06,1.1279588761681225e-05,1.3454031432047486e-05,6.466000922955573e-05
-2.1832684069522657e-05,2.4441207642666996e-05,6.293112164712511e-06,1.1755115338019095e-05,7.563230610685423e-05
-2.7855494408868253e-05,3.621758150984533e-05,4.1695969343891193e-07,7.022033514658688e-06,8.40512293507345e-05
-2.6463276299182326e-05,3.9830854802858084e-05,-8.876368440269289e-08,1.1491603117974591e-06,8.717732271179557e-05
-1.4870373888697941e-05,3.876237678923644e-05,2.21728964788781e-06,-3.8841712921566796e-06,8.700361649971455e-05
-3.2348946206184337e-06,3.1238578230841085e-05,3.628011882028659e-06,-7.755409569654148e-06,8.392368908971548e-05
-6.104867225076305e-07,2.228905213996768e-05,2.8703743737423792e-06,-9.314722774433903e-06,8.027529838727787e-05
-5.057740963820834e-06,2.0490377210080624e-05,2.2683268525724998e-06,-1.0000569091062061e-05,7.396755972877145e-05
-1.6952526493696496e-05,2.2473981516668573e-05,9.044634339261393e-07,-1.2723435247607995e-05,6.533670239150524e-05
-3.246736014261842e-05,2.412427420495078e-05,-1.8924371261164197e-06,-1.5757139408378862e-05,6.155836308607832e-05
-4.180849646218121e-05,2.6119982067029923e-05,-1.2745965705107665e-06,-1.7997024770011194e-05,6.137308082543314e-05
-4.739673386211507e-05,2.1558496882789768e-05,5.765784862887813e-06,-1.730880467221141e-05,5.8050150983035564e-05
-6.029424912412651e-05,1.6449186659883708e-05,1.0926119102805387e-05,-1.5807501767994836e-05,5.456167127704248e-05
-7.131490565370768e-05,1.8379363609710708e-05,8.43716406961903e-06,-1.63093409355497e-05,5.843965118401684e-05
-6.740339449606836e-05,1.8275177353643812e-05,5.649280865327455e-06,-1.4943841051717754e-05,6.293164915405214e-05
-5.347247497411445e-05,1.592468652233947e-05,5.89153250984964e-06,-1.5178230569290463e-05,6.5345608163625e-05
-3.282034958829172e-05,1.8317996364203282e-05,5.564608272834448e-06,-1.7352120266878046e-05,6.617025064770132e-05
-5.096771474200068e-06,1.9805624106083997e-05,6.045456302672392e-06,-1.543864891573321e-05,6.370799383148551e-05
2.126462641172111e-05,1.6108237105072476e-05,7.782242391840555e-06,-1.312162567046471e-05,5.724566653952934e-05
3.5890552680939436e-05,1.399046232108958e-05,7.85619249654701e-06,-1.6823500118334778e-05,4.754268593387678e-05
4.059392449562438e-05,1.891905048978515e-05,3.585990270948969e-06,-2.0492547264439054e-05,4.3919437302974984e-05
4.6655444748466834e-05,2.6802459615282714e-05,-2.019480689341435e-06,-1.8083870600094087e-05,4.932555020786822e-05
5.913108179811388e-05,2.725064223341178e-05,-7.191131317085819e-06,-1.9233022612752393e-05,5.460870670503937e-05
6.284356641117483e-05,1.6799471268313937e-05,-9.752536243468057e-06,-2.323210719623603e-05,5.29931639903225e-05
2.735351154115051e-05,1.1460598216217477e-05,-1.0077152182930149e-05,-2.4222037609433755e-05,4.7713368985569105e-05
-5.3572188335238025e-05,2.6424464522278868e-05,-9.61490241024876e-06,-2.257892265333794e-05,4.5055843656882644e-05
-0.0001249751658178866,5.430434612208046e-05,-8.111440365610179e-06,-2.1245141397230327e-05,4.324695692048408e-05
-0.00013257341925054789,7.635125075466931e-05,-5.335786681825994e-06,-1.8240059944218956e-05,4.160868775215931e-05
-9.294644405599684e-05,8.409804286202416e-05,-4.14356509281788e-06,-1.2533873814390972e-05,4.306655682739802e-05
-5.478750972542912e-05,7.928363629616797e-05,-5.879868240299402e-06,-7.70279802964069e-06,4.652590359910391e-05
-3.615937748691067e-05,6.881715671624988e-05,-4.835096660826821e-06,-4.490984792937525e-06,5.133479498908855e-05
-2.818756729539018e-05,6.369589391397312e-05,6.2662576283401e-07,-3.971725163864903e-06,5.820520527777262e-05
-2.6546471417532302e-05,7.025278318906203e-05,7.911333341326099e-06,-6.6565285123942886e-06,6.396705430233851e-05
-3.4563261579023674e-05,8.477815572405234e-05,1.278646868740907e-05,-9.26981920201797e-06,6.523636693600565e-05
-5.452711775433272e-05,8.978747064247727e-05,1.293711375183193e-05,-9.97633469523862e-06,6.40516955172643e-05
-7.964069664012641e-05,7.573833863716573e-05,1.0638683306751773e-05,-1.1935968359466642e-05,6.30817812634632e-05
-9.227599366568029e-05,5.545840394916013e-05,1.218301804328803e-05,-1.1616300980676897e-05,6.251566810533404e-05
-8.85592307895422e-05,4.343404361861758e-05,1.5086977327882778e-05,-9.42170026974054e-06,5.9969559515593573e-05
-7.682410796405748e-05,3.56994460162241e-05,1.762074498401489e-05,-1.0939378626062535e-05,5.801515362691134e-05
-6.668520654784516e-05,3.1955431040842086e-05,1.9084747691522352e-05,-1.3826717804477084e-05,6.099394158809446e-05
-6.378507532645017e-05,4.21221338910982e-05,1.917868030432146e-05,-9.84268535830779e-06,6.263855175347999e-05
-6.673749157926068e-05,5.01802351209335e-05,1.989505108213052e-05,-5.965058562651393e-07,5.798046549898572e-05
-7.323711906792596e-05,3.1911888072500005e-05,2.1041698346380144e-05,3.6669111977971625e-06,5.0819155148928985e-05
-8.1160273111891e-05,-1.0642931556503754e-05,1.990905002458021e-05,-1.4648985597887076e-06,4.723788151750341e-05
-9.641418000683188e-05,-4.1050156141864136e-05,1.5364650607807562e-05,-9.914959264278878e-06,4.947581692249514e-05
-0.00011250630632275715,-3.681844464153983e-05,6.7586684053821955e-06,-1.370341306028422e-05,5.4283762437989935e-05
-0.00011179233842995018,-1.7230899175046943e-05,-1.796873334569682e-06,-1.2469285138649866e-05,6.0348291299305856e-05
-8.468576561426744e-05,-2.3666503068398015e-07,-6.0824781940027606e-06,-1.3185383068048395e-05,6.358884274959564e-05
-4.499192436924204e-05,7.0519340624741744e-06,-7.276574706338579e-06,-1.3394035704550333e-05,6.177335308166221e-05
-1.266371600650018e-05,1.6398918887716718e-05,-6.639181265200023e-06,-1.2319517736614216e-05,5.783027518191375e-05
1.1409101716708392e-05,3.144430957036093e-05,-5.013972440792713e-06,-1.228540622832952e-05,5.60365806450136e-05
3.546001244103536e-05,4.2133087845286354e-05,-1.9281931145087583e-06,-1.321167110290844e-05,5.736328603234142e-05
5.9079193306388333e-05,4.953624011250213e-05,2.8565200409502722e-06,-1.2909703400509898e-05,5.902941120439209e-05
8.281527698272839e-05,5.212312316871248e-05,8.235160748881754e-06,-9.778545063454658e-06,5.680656977347098e-05
0.00010345014015911147,3.790327173192054e-05,1.0957862286886666e-05,-6.1465157159545925e-06,5.325306483427994e-05
0.00010610996832838282,2.0601877622539178e-05,1.167120808531763e-05,-4.436613380676135e-06,5.4231848480412737e-05
8.598659042036161e-05,2.9228287530713715e-05,1.4832661690888926e-05,-6.757267783541465e-06,5.60319640499074e-05
6.278498040046543e-05,4.896072277915664e-05,1.616333975107409e-05,-1.1989201993856113e-05,5.628141661873087e-05
5.2709114243043587e-05,4.2859399400185794e-05,1.0613918675517198e-05,-1.5578591046505608e-05,5.717935709981248e-05
4.0179704228648916e-05,1.6146399502758868e-05,5.231285285844933e-06,-1.7194575775647536e-05,5.8374469517730176e-05
1.6706222595530562e-05,7.4509352998575196e-06,6.139709512353875e-06,-2.3775000954628922e-05,5.769559720647521e-05
-5.659357611875748e-06,2.7194872018299066e-05,1.212404004036216e-05,-3.104598363279365e-05,5.7828288845485076e-05
-1.7128559193224646e-05,5.151678487891331e-05,1.6535383110749535e-05,-3.02341504720971e-05,5.755125675932504e-05
-1.9659682948258705e-05,5.893980051041581e-05,1.560937744216062e-05,-2.206286444561556e-05,5.462101398734376e-05
-1.8066464690491557e-05,4.976640047971159e-05,1.1899371202162001e-05,-1.2832018001063261e-05,5.2415354730328545e-05
-1.4757845747226384e-05,3.9629485399927944e-05,9.753343874763232e-06,-7.704369636485353e-06,5.48319258086849e-05
-1.1568890840862878e-05,3.3521973819006234e-05,1.1438874025770929e-05,-7.44418457543361e-06,5.700596739188768e-05
-1.1010739399353042e-05,3.098614979535341e-05,1.561026874696836e-05,-5.404562671174062e-06,5.7618337450549006e-05
-1.7522997950436547e-05,2.8550817660288885e-05,1.8771675968309864e-05,-2.411124341961113e-06,6.05281675234437e-05
-3.573692447389476e-05,2.208987280027941e-05,1.6160747691174038e-05,-3.4347376640653238e-06,6.179852061904967e-05
-5.5901240557432175e-05,1.8839375115931034e-05,1.2699367289314978e-05,-5.526729637495009e-06,5.99984559812583e-05
-5.78817016503308e-05,1.774741213012021e-05,1.1873258699779399e-05,-5.855811195942806e-06,5.759814666816965e-05
-4.320136577007361e-05,1.8323124095331877e-05,8.981941391539294e-06,-7.469230240531033e-06,5.752846482209861e-05
-3.0012839488335885e-05,1.7174015738419257e-05,4.3890181586903054e-06,-7.4833624239545316e-06,5.795813194708899e-05
-2.3740813048789278e-05,1.2296197382966056e-05,2.785844515074132e-07,-5.31511113877059e-06,6.013194069964811e-05
-2.4999582819873467e-05,5.150468041392742e-06,-4.0875599438550125e-07,-3.590291271393653e-06,6.114747520769015e-05
-3.350076076458208e-05,2.072291408694582e-06,-5.541343170989421e-07,-8.041906767175533e-07,6.320432294160128e-05
-4.3870164518011734e-05,9.621659955882933e-06,-3.2114980967890006e-06,2.0223387764417566e-07,6.90346714691259e-05
-4.770378291141242e-05,2.09898644243367e-05,-7.688297046115622e-06,-2.4765904527157545e-06,7.24575002095662e-05
-4.1624582081567496e-05,2.1822344933752902e-05,-1.0006718184740748e-05,-5.24116376254824e-06,7.25730205886066e-05
-3.113389539066702e-05,1.0610588105919305e-05,-9.167525604425464e-06,-8.443129445367958e-06,7.230446499306709e-05
-2.5060930056497455e-05,-9.182522830997186e-07,-6.166775619931286e-06,-1.173464443127159e-05,7.225226727314293e-05
-2.7907040930585936e-05,-4.073113359481795e-06,-4.051833002449712e-06,-1.1503489076858386e-05,7.116141205187887e-05
-3.9628797821933404e-05,4.474647994356928e-06,-4.233280833432218e-06,-9.292709364672191e-06,6.838658737251535e-05
-5.417398642748594e-05,2.365605359955225e-05,-3.993857717432547e-06,-7.66545235819649e-06,6.548820965690538e-05
-6.419193232432008e-05,4.983220424037427e-05,-1.5018036947367364e-06,-7.058744813548401e-06,6.646550173172727e-05
-6.471599772339687e-05,7.468925468856469e-05,1.647113322178484e-06,-8.167136911652051e-06,6.953192496439442e-05
-4.9764672439778224e-05,8.67204726091586e-05,1.6236024293903029e-06,-1.103929662349401e-05,6.935840792721137e-05
-2.437090915918816e-05,8.079977123998106e-05,-1.7400172680481774e-07,-1.394525224895915e-05,6.209342245711014e-05
2.4401692826359067e-06,5.961354327155277e-05,-1.8403437707092962e-07,-1.4336875210574362e-05,5.6752029195195064e-05
2.5546793040120974e-05,2.4434257284156047e-05,2.0256866264389828e-06,-9.309182132710703e-06,5.927692836849019e-05
4.679153425968252e-05,6.548954388563288e-06,3.1046247386257164e-06,1.1177168062204146e-06,6.711231981171295e-05
5.99454106122721e-05,1.6196856449823827e-05,7.699875368416542e-07,9.327686711912975e-06,7.339535659411922e-05
5.1042126870015636e-05,2.3376880562864244e-05,5.379323511078837e-07,9.46740237850463e-06,7.075638131937012e-05
2.577727173047606e-05,2.08272449526703e-05,4.722114681499079e-06,5.740866527048638e-06,6.135775038274005e-05
-8.54823701956775e-06,7.731385267106816e-06,6.486996880994411e-06,2.2123606413515517e-06,5.327019243850373e-05
-4.1739567677723244e-05,-5.3401768127514515e-06,1.9295423498988384e-06,1.467735355475952e-08,4.9869959184434265e-05
-5.725962182623334e-05,-3.2524858397664502e-06,-5.686728400178254e-06,-6.8145905061101075e-06,5.144222086528316e-05
-5.3162781114224344e-05,1.3368388863455039e-05,-9.706195669423323e-06,-1.9474915461614728e-05,5.434367267298512e-05
-4.6287615987239406e-05,3.7847261410206556e-05,-1.1376707334420644e-05,-4.004100264864974e-05,5.0146194553235546e-05
-3.8795635191490874e-05,5.91932657698635e-05,-8.121734026644845e-06,-5.954984953859821e-05,4.29842657467816e-05
-1.801457801775541e-05,7.005769293755293e-05,-5.228117743172334e-07,-6.082533946027979e-05,3.970874968217686e-05
5.071237296760955e-07,7.248257315950468e-05,9.182931535178795e-06,-4.792893378180452e-05,4.178889867034741e-05
4.835525942326058e-06,6.895174738019705e-05,1.5409621482831426e-05,-3.801428829319775e-05,4.720578363048844e-05
5.062719878878852e-07,5.603469253401272e-05,1.6705253074178472e-05,-3.682110400404781e-05,5.141995279700495e-05
-2.63439414993627e-06,4.679734411183745e-05,1.7662423488218337e-05,-3.536392250680365e-05,5.2871208026772365e-05
-4.702587830252014e-06,5.485855581355281e-05,1.9581699234549887e-05,-2.4678496629348956e-05,5.392705861595459e-05
-1.9504457668517716e-05,6.889776705065742e-05,2.2035113943275064e-05,-7.25605559637188e-06,5.3805204515811056e-05
-6.582606874871999e-05,6.985777145018801e-05,2.256378320453223e-05,5.1281231208122335e-06,5.183088069316e-05
-0.00012963003246113658,5.67416354897432e-05,2.065273110929411e-05,3.1168262921710266e-06,4.981165693607181e-05
-0.0001596257061464712,4.250622805557214e-05,1.761903695296496e-05,-9.562197192281019e-06,4.664892185246572e-05
-0.0001339128502877429,3.047384598175995e-05,1.6702882930985652e-05,-1.7348127585137263e-05,4.5907567255198956e-05
-8.675013668835163e-05,6.175179350975668e-06,1.634445652598515e-05,-1.6302141375490464e-05,4.845977673539892e-05
-5.168330608285032e-05,-2.9724404157605022e-05,1.3356625458982307e-05,-1.3876961929781828e-05,5.152738594915718e-05
-3.6492561775958166e-05,-5.524792504729703e-05,8.494792382407468e-06,-1.3043947546975687e-05,5.434698687167838e-05
-3.7923080526525155e-05,-6.326808943413198e-05,7.157856543926755e-06,-1.2194302144052926e-05,5.5482527386629954e-05
-3.943663614336401e-05,-5.5146010708995163e-05,4.768290182255441e-06,-1.139029973273864e-05,5.2350245823618025e-05
-3.4560747735667974e-05,-3.8527476135641336e-05,5.738489505802136e-08,-1.2316791980993003e-05,4.50857805844862e-05
-2.3586020688526332e-05,-2.3821914510335773e-05,-1.4193425386110903e-06,-1.3853543350705877e-05,4.344447734183632e-05
-1.0331751582270954e-05,-1.1063240890507586e-05,1.8464321556166396e-06,-1.0256640962325037e-05,5.0045237003359944e-05
-5.1540860113163944e-06,1.4611115147999953e-05,5.070865427114768e-06,-1.8249220374855213e-06,5.870686436537653e-05
-9.70429118751781e-06,4.8133395466720685e-05,4.458898274606327e-06,1.8977742684000987e-06,6.389304326148704e-05
-2.145166217815131e-05,7.123630348360166e-05,2.1752412067144178e-06,-4.447697847353993e-06,6.38762503513135e-05
-4.8350579163525254e-05,7.125787669792771e-05,-3.6442083910515066e-06,-1.1600432117120363e-05,5.989469354972243e-05
-7.946474215714261e-05,4.2457897507119924e-05,-8.171669833245687e-06,-1.3933230547991116e-05,5.613359098788351e-05
-9.176439925795421e-05,1.2304734809731599e-05,-6.5501676544954535e-06,-9.604882507119328e-06,5.7218639994971454e-05
-8.290477126138285e-05,1.0125947483174969e-05,-1.0819062481459696e-06,-4.609602001437452e-06,5.8045035984832793e-05
-6.303896952886134e-05,3.615924288169481e-05,1.0867798891922575e-06,-7.633728273503948e-06,5.461653199745342e-05
-4.850748518947512e-05,5.831322050653398e-05,-3.228123205190059e-06,-1.3596692951978184e-05,5.2474395488388836e-05
-5.3282677981769666e-05,6.0827624110970646e-05,-7.330989774345653e-06,-1.6813222828204744e-05,5.2312920161057264e-05
-6.617266626562923e-05,5.683325798599981e-05,-8.617736057203729e-06,-1.3646485058416147e-05,5.025808422942646e-05
-6.496764399344102e-05,5.9486821555765346e-05,-9.01160001376411e-06,-7.193202236521756e-06,4.959349098498933e-05
-5.451164906844497e-05,5.8918638387694955e-05,-1.1872302820847835e-05,-3.921315965271788e-06,4.852277925238013e-05
-5.136930485605262e-05,4.19843454437796e-05,-1.5559609892079607e-05,-3.1800416309124557e-06,4.764429104398005e-05
-5.1100218115607277e-05,2.307494287379086e-05,-1.6762331142672338e-05,-2.2106883079686668e-06,5.076832894701511e-05
-4.2276828025933355e-05,2.1820926122018136e-05,-1.3646377738041338e-05,-6.473551366070751e-07,5.81729291297961e-05
-2.5819666916504502e-05,3.799461046583019e-05,-8.773389708949253e-06,-1.1684410310408566e-06,6.43425082671456e-05
-5.459150088427123e-06,5.3615331125911325e-05,-4.933228865411365e-06,-3.776443008973729e-06,6.540041067637503e-05
1.1758610526158009e-05,5.566559775616042e-05,-3.529681862346479e-07,-3.6131846172793303e-06,6.763789860997349e-05
1.4041503163753077e-05,4.287892807042226e-05,7.26255029803724e-06,2.3526133929863136e-07,7.270013156812638e-05
3.5228158594691195e-06,2.4713737730053253e-05,1.6369989680242725e-05,1.7512737713332172e-06,7.296526018762961e-05
-1.725938454910647e-05,6.7804894570144825e-06,2.2567208361579105e-05,7.479238206542504e-07,6.603686779271811e-05
-4.868204996455461e-05,-8.625222108094022e-06,2.4189086616388522e-05,2.1560183540714206e-06,6.049013609299436e-05
-8.056480874074623e-05,-1.1073901987401769e-05,2.3459380827262066e-05,2.086370841425378e-06,5.902698467252776e-05
-9.460248838877305e-05,7.74023101257626e-06,2.130612665496301e-05,-9.152674920187565e-07,5.5329790484393016e-05
-7.704725430812687e-05,3.0889113986631855e-05,1.9327013433212414e-05,-2.3653419702895917e-06,5.466416769195348e-05
-3.929159356630407e-05,3.897783608408645e-05,1.8657847249414772e-05,-2.022175749516464e-06,6.162359932204708e-05
3.1201700494420948e-06,3.428187483223155e-05,2.2318596165860072e-05,5.746819056184904e-07,6.711185415042564e-05
3.459698928054422e-05,3.2741900213295594e-05,2.7470512577565387e-05,4.13988664149656e-06,7.026871753623709e-05
5.062145282863639e-05,3.653689054772258e-05,2.5829882360994816e-05,3.901275249518221e-06,7.03194600646384e-05
5.563808008446358e-05,4.1118219087366015e-05,2.0787523681065068e-05,1.0113343478224124e-06,6.851417128928006e-05
5.0822243792936206e-05,4.315281330491416e-05,1.707427145447582e-05,-8.44239139041747e-07,6.610593118239194e-05
4.2948675400111824e-05,4.3224408727837726e-05,1.715251346467994e-05,3.260002131355577e-06,6.413340452127159e-05
2.729668267420493e-05,4.6288780140457675e-05,1.7048774680006318e-05,9.006450454762671e-06,6.357520760502666e-05
1.5105086959010805e-06,4.531259764917195e-05,1.546234852867201e-05,9.347136256110389e-06,6.0216862038942054e-05
-1.7275988284382038e-05,1.3572967873187736e-05,1.1848880603793077e-05,4.796685061592143e-06,5.434310151031241e-05
-1.2928617252327967e-05,-2.899347418860998e-05,8.816778063192032e-06,-2.635741793710622e-06,5.194179539103061e-05
5.2787754611927085e-06,-3.5788543755188584e-05,5.529465852305293e-06,-9.229849638359156e-06,5.374340616981499e-05
1.9827100913971663e-05,-1.2610476005647797e-05,3.4271495223947568e-06,-1.2130332834203728e-05,5.5560969485668465e-05
2.5368621209054254e-05,1.4951337107049767e-05,4.246486696501961e-06,-1.1758366781577934e-05,5.6085260439431295e-05
2.268601929245051e-05,3.0274824894149788e-05,5.991587840981083e-06,-9.902051715471316e-06,5.722721107304096e-05
1.2512954526755493e-05,3.82524449378252e-05,7.458026175299892e-06,-9.50203411775874e-06,5.806616900372319e-05
-6.159753411338897e-06,4.546183117781766e-05,7.44024464438553e-06,-1.2434024938556831e-05,5.74670011701528e-05
-3.218296478735283e-05,5.744589361711405e-05,7.315875791391591e-06,-1.2729838999803178e-05,5.932508429395966e-05
-5.735663580708206e-05,6.774620851501822e-05,4.450704636838054e-06,-6.228020993148675e-06,6.241133814910427e-05
-7.27783190086484e-05,6.823423609603196e-05,-9.973858823286719e-07,1.2039513421768788e-06,6.410007335944101e-05
-8.006065763765946e-05,5.6292545195901766e-05,-4.290031938580796e-06,2.388787834206596e-06,6.328224117169157e-05
-7.839668251108378e-05,3.6802222894039005e-05,5.781940330962243e-07,-6.842720612354469e-09,5.9778805734822527e-05
-6.729592860210687e-05,2.466362275299616e-05,9.571974260325078e-06,1.7077391021302901e-06,5.5233933380804956e-05
-5.8275585615774617e-05,2.92544937110506e-05,1.602827978786081e-05,4.951794380758656e-06,5.335438982001506e-05
-5.544476516661234e-05,4.009726762888022e-05,1.8228820408694446e-05,4.1667385630717035e-06,5.377654088078998e-05
-5.051626794738695e-05,3.854977694572881e-05,1.6951807992882095e-05,1.1750150008538185e-07,5.5906144552864134e-05
-4.02135010517668e-05,2.4751714590820484e-05,1.0519431270950008e-05,-3.209877831977792e-06,5.504342698259279e-05
-2.7555190172279254e-05,1.523399623692967e-05,6.258274879655801e-06,-1.6180872535187518e-06,5.226463690632954e-05
-1.6165331544470973e-05,8.982418876257725e-06,8.774375601205975e-06,-2.2512804207508452e-06,5.560850695474073e-05
-1.5653746231691912e-05,8.998495673040452e-07,9.864991625363473e-06,-6.375541488523595e-06,5.755905294790864e-05
-2.08067267521983e-05,-6.512917138934426e-07,9.600772500562016e-06,-7.383980573649751e-06,5.9879515902139246e-05
-2.161199154215865e-05,6.2705607888347e-06,1.0357771316193976e-05,-4.7867620196484495e-06,6.202833174029365e-05
-2.5094783268286847e-05,1.9469169274088927e-05,9.39902110985713e-06,-1.0635213811838184e-06,5.9730333305196837e-05
-3.0218399842851795e-05,2.9536025976995006e-05,5.697990218322957e-06,-4.942883720104874e-07,5.9023575886385515e-05
-3.348346217535436e-05,3.3948956115636975e-05,7.50627066281595e-07,-3.662989684016793e-06,5.9092024457640946e-05
-3.238474528188817e-05,3.792390998569317e-05,-3.7510237689275527e-06,-7.3637756941025145e-06,5.719726323150098e-05
-2.4538259822293185e-05,4.6136807213770226e-05,-6.13627526035998e-06,-1.1232366887270473e-05,5.200641317060217e-05
-1.215802512888331e-05,5.270822293823585e-05,-5.913060249440605e-06,-1.7113185094785877e-05,4.94220330438111e-05
1.310761099659885e-08,4.824364805244841e-05,-3.7563427213171963e-06,-2.3127717213355936e-05,5.1903960411436856e-05
6.968090019654483e-06,3.4502940252423286e-05,-3.268618442575644e-08,-2.457070877426304e-05,5.636744754156098e-05
7.777196515235119e-06,2.737876639002934e-05,2.1270050183375133e-06,-1.8755521523416974e-05,5.948490434093401e-05
4.165312475379324e-06,3.123729766230099e-05,3.7463953503902303e-06,-1.2206141946080606e-05,6.468799983849749e-05
-9.999874237109907e-06,3.241160447942093e-05,5.846110980201047e-06,-1.0006249794969335e-05,6.993689021328464e-05
-4.4483778765425086e-05,1.7895637938636355e-05,6.257873337744968e-06,-1.1414800610509701e-05,6.988659151829779e-05
-8.975878881756216e-05,-3.8023781598894857e-06,4.1848470573313534e-06,-1.374226212647045e-05,6.709737499477342e-05
-0.0001213212453876622,-1.4703350643685553e-05,1.6181685396077228e-06,-1.5817360690562055e-05,6.533527630381286e-05
-0.00012373302888590842,-1.4224413462216035e-05,-8.515717695445346e-07,-1.9393753973417915e-05,6.411656795535237e-05
-9.904606849886477e-05,-1.560012242407538e-05,-3.9498386286140885e-06,-2.5361307052662596e-05,6.124947685748339e-05
-5.623562537948601e-05,-1.8083806935464963e-05,-5.859646989847533e-06,-2.874377605621703e-05,6.228715210454538e-05
-6.628517439821735e-06,-9.678977221483365e-06,-5.704541763407178e-06,-2.6013143724412657e-05,7.171925972215831e-05
3.669528086902574e-05,1.7252274346901686e-06,-5.937080459261779e-06,-2.0343279174994677e-05,8.281048940261826e-05
6.602893699891865e-05,5.738111212849617e-06,-1.1107767022622284e-05,-1.8732489479589276e-05,8.761847129790112e-05
8.10384372016415e-05,1.1150316822750028e-05,-1.50728301377967e-05,-2.2145944967633113e-05,8.479612733935937e-05
8.4992716438137e-05,3.0178140150383115e-05,-1.177187732537277e-05,-2.1022511646151543e-05,7.763576286379248e-05
6.45887412247248e-05,4.9252277676714584e-05,-5.4873521548870485e-06,-1.4396162441698834e-05,7.341472519328818e-05
6.748219675500877e-06,5.12618717039004e-05,-6.119122275549671e-08,-6.334209956548875e-06,7.298522541532293e-05
-1.4946067494747695e-05,3.4710705222096294e-05,3.166023816447705e-06,-2.96090479423583e-06,7.583518890896812e-05
1.4384704627445899e-05,1.6908355974010192e-05,5.266973857942503e-06,-5.827137556480011e-06,8.01312125986442e-05
2.343753476452548e-05,1.8872351574827917e-05,6.419160399673274e-06,-1.1451472346379887e-05,8.120897109620273e-05
3.942443527193973e-06,3.398287299205549e-05,6.759801181033254e-06,-1.3891610251448583e-05,7.771659147692844e-05
-2.0383891751407646e-05,4.806436118087731e-05,7.194065346993739e-06,-1.304577017435804e-05,7.534012547694147e-05
-2.7904456146643497e-05,6.19822894805111e-05,5.145276645635022e-06,-1.2799562682630494e-05,7.081291551003233e-05
-2.8094575100112706e-05,8.8953718659468e-05,3.2248387924482813e-06,-1.247078489541309e-05,6.547378870891407e-05
-2.5784442186704837e-05,0.00011833841563202441,2.463022156007355e-06,-1.3506574759958312e-05,6.236362969502807e-05
-2.3286560463020578e-05,0.00012495106784626842,1.1983573813267867e-06,-1.5804418580955826e-05,6.071631287341006e-05
-2.336836223548744e-05,0.00011503270798129961,-8.475322488266102e-08,-2.2864223865326494e-05,6.03693988523446e-05
-2.3904342015157454e-05,0.00010610463505145162,-9.90016587820719e-07,-3.1891584512777627e-05,5.8582634665071964e-05
-1.7361440768581815e-05,8.985102613223717e-05,-1.3921862773713656e-06,-3.755578654818237e-05,5.608324136119336e-05
-7.926661055535078e-06,5.4486459703184664e-05,-1.432671410839248e-06,-3.7308025639504194e-05,5.3357540309662e-05
-6.881018180138199e-06,1.4371580618899316e-05,-2.707208977881237e-06,-3.387168180779554e-05,5.1957562391180545e-05
-1.5636089301551692e-05,-7.713413651799783e-06,-3.6748558613908244e-06,-3.386441676411778e-05,5.040350151830353e-05
-3.070147431571968e-05,1.5668008472857764e-06,-4.049300059705274e-06,-3.84896484320052e-05,4.935384276905097e-05
-4.8985370085574687e-05,2.570448850747198e-05,-4.03015837946441e-06,-4.1212962969439104e-05,4.805349453818053e-05
-6.303107511484995e-05,3.654161264421418e-05,-1.8386383544566343e-06,-3.7801706639584154e-05,4.891216667601839e-05
-6.409742491086945e-05,2.6920795789919794e-05,9.955845143849729e-07,-3.1489173125009984e-05,5.105522723169997e-05
-6.627885886700824e-05,1.1698098205670249e-05,2.8564986678247806e-06,-2.5250781618524343e-05,5.076951492810622e-05
-7.893877773312852e-05,5.095781489217188e-06,5.037388291384559e-06,-2.099480843753554e-05,5.044845602242276e-05
-8.728594548301771e-05,1.22669280244736e-05,7.151470981625607e-06,-1.8893957530963235e-05,5.1616392738651484e-05
-7.771880336804315e-05,2.762653457466513e-05,6.4888540691754315e-06,-1.760656050464604e-05,5.285673250909895e-05
-6.381951970979571e-05,4.351600000518374e-05,6.017824034643127e-06,-1.563779187563341e-05,5.253194831311703e-05
-5.3873292927164584e-05,6.0561407735804096e-05,6.5985636865661945e-06,-1.884396442619618e-05,4.947022534906864e-05
-4.733484820462763e-05,6.96494898875244e-05,5.259999852569308e-06,-2.374527139181737e-05,4.7050765715539455e-05
-4.2933752411045134e-05,6.247968121897429e-05,4.8386255002697e-06,-2.362894701946061e-05,4.753493340103887e-05
-4.382161205285229e-05,5.7211047533201054e-05,8.247938239946961e-06,-1.8683645976125263e-05,4.9157482862938195e-05
-4.1421324567636475e-05,5.931908526690677e-05,8.199259355023969e-06,-1.5123043340281583e-05,5.131677244207822e-05
-3.6093912058277056e-05,5.424580012913793e-05,4.587646344589302e-06,-1.2473029528337065e-05,5.3116385970497504e-05
-3.341796764289029e-05,3.648909478215501e-05,1.018326429402805e-06,-6.042055247235112e-06,5.5131786211859435e-05
-2.577532359282486e-05,1.3292927178554237e-05,4.379100744245079e-07,8.472629247080476e-07,5.611023152596317e-05
-9.013483577291481e-06,4.2944320739479735e-06,2.410771003269474e-06,2.7622606921795523e-06,5.418161890702322e-05
8.555340173188597e-06,1.0372807082603686e-05,4.262983566150069e-06,-7.184600008258712e-07,5.1999704737681895e-05
1.660937959968578e-05,1.9305674868519418e-05,6.413996743503958e-06,8.600319461038453e-07,5.114495434099808e-05
1.3130984370945953e-05,2.2626627469435334e-05,6.781509910069872e-06,3.981020654464373e-06,4.8910482291830704e-05
5.16771888214862e-06,2.292408316861838e-05,8.595249710197095e-06,3.5761797789746197e-06,4.704528328147717e-05
-1.710636638563301e-06,2.1568899683188647e-05,1.1943955541937612e-05,1.4659229918834171e-06,4.9282760301139206e-05
-9.93898356682621e-06,1.5818013707757927e-05,1.5741197785246186e-05,2.5706970063765766e-06,5.168876305106096e-05
-1.875690031738486e-05,7.404110874631442e-06,1.6554224202991463e-05,6.978992587391986e-06,5.2915540436515585e-05
-2.7809162929770537e-05,-1.2619123481272254e-05,1.5031854672997724e-05,8.268443707493134e-06,5.377461275202222e-05
-4.098275530850515e-05,-4.670854104915634e-05,1.4715948964294512e-05,3.8400289668061305e-06,5.235806747805327e-05
-5.9159523516427726e-05,-7.331364031415433e-05,1.3884284271625802e-05,-2.9647985684277955e-06,4.9591631977818906e-05
-7.206350710475817e-05,-7.239220576593652e-05,1.2564662938530091e-05,-7.1733388722350355e-06,4.643178544938564e-05
-7.272754737641662e-05,-5.058273745817132e-05,1.4370066310220864e-05,-6.334045338007854e-06,4.584111593430862e-05
-6.572221900569275e-05,-2.565311842772644e-05,1.7779913832782768e-05,-3.4305253393540625e-06,5.04315466969274e-05
-5.852793765370734e-05,-9.550125469104387e-06,2.025314279308077e-05,-3.70262682736211e-06,5.536383469006978e-05
-5.256065196590498e-05,-5.263713774183998e-06,2.092026625177823e-05,-1.2202248171888641e-06,5.67890347156208e-05
-5.124683229951188e-05,-3.475703920230444e-07,1.98378929781029e-05,4.0851455196389e-06,5.745999806094915e-05
-5.383905227063224e-05,1.1020914826076478e-05,1.9012786651728675e-05,7.128364359232364e-06,5.7665787608129904e-05
-5.240042446530424e-05,2.0502719053183682e-05,1.642077404540032e-05,4.120327048440231e-06,5.7655641285236925e-05
-4.458682451513596e-05,2.580768159532454e-05,1.5214638551697135e-05,-3.4324607440794352e-06,5.905432044528425e-05
-3.596531678340398e-05,2.838695036189165e-05,1.564270132803358e-05,-1.1408646059862804e-05,5.8476318372413516e-05
-2.8898008167743683e-05,3.4395437978673726e-05,1.8183967767981812e-05,-1.4089887372392695e-05,5.831739690620452e-05
-2.711452907533385e-05,4.2060422856593505e-05,1.7047797882696614e-05,-7.966394150571432e-06,6.407804175978526e-05
-2.2523499865201302e-05,4.25829020969104e-05,1.1226283277210314e-05,-2.7870216854353203e-06,7.209694012999535e-05
-1.123873698816169e-05,4.1062015952775255e-05,7.85971678851638e-06,-2.839723038050579e-06,7.636736700078472e-05
4.660337253881153e-06,3.978630047640763e-05,9.51408947003074e-06,-3.3411142794648185e-06,7.172126788645983e-05
2.1829262550454587e-05,3.5351840779185295e-05,1.4464713785855565e-05,-3.5599548482423415e-06,6.344202120089903e-05
2.886361107812263e-05,2.7855305233970284e-05,1.300111398450099e-05,-5.078822596260579e-06,5.788475027657114e-05
2.8141550501459278e-05,2.4408713215962052e-05,6.141605808807071e-06,-4.523250481724972e-06,5.7552366342861205e-05
2.465832221787423e-05,2.738021248660516e-05,2.3835775664338144e-06,-8.781194082985166e-07,5.980607238598168e-05
1.9627632354968227e-05,2.9433274903567508e-05,4.357054876891198e-06,2.8080071388103534e-06,6.172484427224845e-05
1.2117860933358315e-05,3.135924998787232e-05,9.062471690413076e-06,1.5694114381403779e-06,6.34092211839743e-05
1.6423697388745495e-06,3.4815442631952465e-05,1.0557519999565557e-05,-6.6586558205017354e-06,6.477052374975756e-05
-1.480003720644163e-05,3.6786750570172444e-05,7.0283426794048864e-06,-1.5079004697327036e-05,6.55164330964908e-05
-3.530061076162383e-05,3.0626099032815546e-05,1.6002346683308133e-06,-1.95849370356882e-05,6.480802403530106e-05
-4.955428812536411e-05,1.799258461687714e-05,-1.8109435586666223e-06,-2.140765900549013e-05,6.294093327596784e-05
-4.972354872734286e-05,1.4879065929562785e-05,-3.003809752044617e-06,-2.217645669588819e-05,6.082449181121774e-05
-3.905591438524425e-05,2.6551244445727207e-05,-2.8102283522457583e-06,-2.0393730665091425e-05,5.906028673052788e-05
-2.9474163966369815e-05,3.9616537833353505e-05,-1.3897519011152326e-06,-1.935131695063319e-05,5.5865475587779656e-05
-2.2113634258857928e-05,4.902105138171464e-05,6.195286346155626e-07,-2.020017745962832e-05,5.582370067713782e-05
-1.4760103113076184e-05,5.632681131828576e-05,8.660163643980923e-07,-1.9228309611207806e-05,6.049170406186022e-05
-1.3398371265793685e-05,5.711068297387101e-05,-2.6002143727055227e-07,-1.602637166797649e-05,6.5282714786008e-05
-2.2875950890011154e-05,5.35389335709624e-05,-1.7253408941542148e-06,-1.1871517017425504e-05,6.755104550393298e-05
-3.737985753105022e-05,5.405496995081194e-05,-6.107261015131371e-06,-1.1101449672423769e-05,6.844276504125446e-05
-4.702869773609564e-05,6.252618186408654e-05,-1.1670801541185938e-05,-1.4299022041086573e-05,6.795519584557042e-05
-5.153094025445171e-05,6.798294634791091e-05,-1.4207767890184186e-05,-1.7193222447531298e-05,6.646610563620925e-05
-5.251627953839488e-05,5.752883953391574e-05,-1.3990706065669656e-05,-1.929743302753195e-05,6.489337829407305e-05
-4.4447067921282724e-05,3.8587935705436394e-05,-9.822205356613267e-06,-1.9315692043164745e-05,6.532245606649667e-05
-3.3143776818178594e-05,8.27795793156838e-06,-3.834160793303454e-07,-1.839877586462535e-05,6.701743404846638e-05
-3.0961229640524834e-05,-2.819170731527265e-05,7.035648650344228e-06,-2.01837501663249e-05,6.668795685982332e-05
-3.148661198792979e-05,-2.9646867915289477e-05,1.121846344176447e-05,-1.9583267203415744e-05,6.418373232008889e-05
-2.8446378564694896e-05,6.738121555827092e-06,1.2929999684274662e-05,-1.6308733393088914e-05,6.337962986435741e-05
-2.3084661734174006e-05,4.8357080231653526e-05,1.258849624719005e-05,-1.617747693671845e-05,6.256651977309957e-05
-1.4754899893887341e-05,7.665938755962998e-05,1.1679891940730158e-05,-1.6120593500090763e-05,5.95673882344272e-05
-9.19491230888525e-06,8.576381515013054e-05,1.2485021215979941e-05,-1.0915228813246358e-05,5.6883371144067496e-05
-6.570248842763249e-06,7.68366371630691e-05,1.3666141057910863e-05,-6.093434421927668e-06,5.6167631555581465e-05
-2.341068466193974e-06,6.140123878140002e-05,1.2661207620112691e-05,-7.505048415623605e-06,5.8526806242298335e-05
-6.01942758748919e-07,4.288676063879393e-05,1.1134812666568905e-05,-1.188725855172379e-05,5.980800779070705e-05
-4.375396656541852e-06,1.5307570720324293e-05,1.0161878890357912e-05,-1.3434373613563366e-05,5.6817898439476267e-05
-8.464786333206575e-06,-1.0055077837023418e-05,9.777530976862181e-06,-1.1012786671926733e-05,5.3781412134412676e-05
-1.5783913113409653e-05,-1.834666727518197e-05,9.66948937275447e-06,-8.715946933079977e-06,5.535190211958252e-05
-3.0744497053092346e-05,-1.4132251635601278e-05,1.0114320502907503e-05,-1.050137507263571e-05,5.841145684826188e-05
-4.4662385334959254e-05,-6.038916126271943e-06,7.962112249515485e-06,-1.6081698049674742e-05,5.852574031450786e-05
-5.1753726438619196e-05,4.176700713287573e-06,3.102157506873482e-06,-2.2066862584324554e-05,5.6387016229564324e-05
-5.418988803285174e-05,1.162047828984214e-05,-4.05920303592211e-07,-2.3267430151463486e-05,5.489844625117257e-05
-5.20088906341698e-05,1.3599098565464374e-05,1.1056431503675412e-06,-1.8660748537513427e-05,5.240678001428023e-05
-4.289743083063513e-05,1.7288753952016123e-05,6.143244718259666e-06,-1.2875240827270318e-05,4.970626832800917e-05
-3.036134148715064e-05,3.182171349180862e-05,9.670637155068107e-06,-7.944561730255373e-06,4.877805258729495e-05
-1.4022464711160865e-05,4.805105345440097e-05,9.644895726523828e-06,-1.5150477565839537e-06,4.8898946261033416e-05
7.248448582686251e-06,5.514143776963465e-05,8.487469131068792e-06,4.540920599538367e-06,4.822617120225914e-05
2.4821769329719245e-05,5.481209882418625e-05,5.932285148446681e-06,3.829525212495355e-06,4.6432483941316605e-05
3.340926195960492e-05,5.243068517302163e-05,3.734081928996602e-06,-2.4715106974326773e-06,4.774411354446784e-05
4.1245697502745315e-05,5.207076537772082e-05,4.089947651664261e-06,-1.2467955457395874e-05,5.0599708629306406e-05
4.997335418011062e-05,5.278618118609302e-05,4.799645012099063e-06,-2.555683022364974e-05,5.038462768425234e-05
4.100484511582181e-05,5.0446760724298656e-05,3.053031150557217e-06,-3.359191759955138e-05,4.938949496136047e-05
-2.568840682215523e-05,4.2481238779146224e-05,3.2363057016482344e-06,-3.330417530378327e-05,4.644450018531643e-05
-0.00010045937960967422,2.900772051361855e-05,8.499270734318998e-06,-2.8415823180694133e-05,4.28378043579869e-05
-0.00010068019037134945,1.3952375411463436e-05,9.618173862691037e-06,-2.4909351850510575e-05,4.2052015487570316e-05
-6.216222391230986e-05,5.904882073082263e-06,7.65413096814882e-06,-2.0335712179075927e-05,4.576404171530157e-05
-3.5330889659235254e-05,1.0419258615002036e-05,6.4033965827547945e-06,-1.50313289850601e-05,5.3602045227307826e-05
-2.6133981009479612e-05,2.0985322407796048e-05,7.803646440152079e-06,-8.672527656017337e-06,5.8953552070306614e-05
-1.825640538299922e-05,2.9965814974275418e-05,8.571865691919811e-06,-7.117246241250541e-07,6.152769492473453e-05
-1.2720806807919871e-05,3.7729576433775946e-05,4.1560647332516965e-06,4.14910527979373e-06,6.342884444165975e-05
-1.69203121913597e-05,3.90538370993454e-05,-1.4373060253092262e-07,6.308135198196396e-06,6.498979200841859e-05
-3.361601193319075e-05,3.04008735838579e-05,-1.4081088011153042e-06,4.904600245936308e-06,6.776747613912448e-05
-5.271874033496715e-05,2.0628565835068002e-05,-1.2577977486216696e-06,1.5265563888533507e-06,7.105883560143411e-05
-5.985003008390777e-05,1.540171797387302e-05,-2.1201151412242325e-06,-2.1630792161886347e-06,6.97592695360072e-05
-5.728893302148208e-05,1.1499882930365857e-05,-2.0927269872572651e-07,-4.887403065367835e-06,6.472213863162324e-05
-5.7981425925390795e-05,8.771661669015884e-06,3.919369646609994e-06,-1.1686363905027974e-05,6.044489418854937e-05
-6.810615741414949e-05,1.3091826986055821e-05,6.922748525539646e-06,-2.238531487819273e-05,5.7363329688087106e-05
-7.524653483415022e-05,2.830212179105729e-05,1.0269388440065086e-05,-2.9108965463819914e-05,5.6597793445689604e-05
-7.205168367363513e-05,4.758302748086862e-05,1.600970972504001e-05,-2.672641676326748e-05,6.073398981243372e-05
-6.00434432271868e-05,5.194068580749445e-05,1.9455184883554466e-05,-1.9760807845159434e-05,6.734945782227442e-05
-4.49609178758692e-05,2.9572467610705644e-05,1.7848222341854125e-05,-1.4091104276303668e-05,7.175377686508e-05
-2.783934905892238e-05,-2.630140443216078e-06,1.2213252375659067e-05,-1.158239865617361e-05,7.095450564520434e-05
-1.2644932212424465e-05,-1.8569686289993115e-05,5.389104444475379e-06,-1.1350644854246639e-05,6.613996083615348e-05
-4.2468127503525466e-06,-1.3333409697224852e-05,1.2451534985302715e-06,-1.2214822163514327e-05,6.237503112060949e-05
-5.57359680897207e-06,-2.05996070690162e-06,1.3302581010066206e-06,-1.3161270544514991e-05,6.032911915099248e-05
-1.1567718502192292e-05,7.767525858071167e-06,4.565831659419928e-06,-1.1606490261328872e-05,6.084178312448785e-05
-1.9069937479798682e-05,1.8435550373396836e-05,6.5323520175297745e-06,-9.169481927528977e-06,6.26458931947127e-05
-2.566086004662793e-05,2.7271204089629464e-05,3.5635364383779233e-06,-5.7036513680941425e-06,6.202849908731878e-05
-3.0056286050239578e-05,3.2417163311038166e-05,-2.119383907484007e-06,-1.0374295698056812e-06,5.904725912841968e-05
-2.8632639441639185e-05,4.1309351217933e-05,-3.6982380606787046e-06,7.943861533021845e-07,5.3900585044175386e-05
-2.035645957221277e-05,5.923074786551297e-05,-9.199972623719077e-07,1.3931013427281869e-06,5.016322757001035e-05
-1.4451737115450669e-05,7.352669490501285e-05,2.691025656531565e-06,8.217535878429771e-07,5.055093060946092e-05
-1.5687410268583335e-05,8.19743872852996e-05,3.5724820008908864e-06,-7.422761996167537e-07,5.229178350418806e-05
-2.2382639144780114e-05,8.771152351982892e-05,2.734995632636128e-06,-9.941079497366445e-07,5.3321007726481184e-05
-2.950239104393404e-05,9.075859998119995e-05,-5.788257908534433e-07,-2.936752707682899e-06,5.4964239097898826e-05
-2.867186049115844e-05,9.140127804130316e-05,-1.6558875586270005e-06,-3.5751602354139322e-06,5.7946326705859974e-05
-2.4087443307507783e-05,8.26756950118579e-05,-8.218518843250422e-08,-4.135049948672531e-06,5.919115574215539e-05
-2.730087908275891e-05,6.923577166162431e-05,1.2645327842619736e-06,-6.415081315935822e-06,5.620070805889554e-05
-4.0866787458071485e-05,6.3725994550623e-05,1.3937363974036998e-06,-1.2043384231219534e-05,5.13192753714975e-05
-5.5175867601064965e-05,6.90048182150349e-05,-3.9989679123664246e-08,-1.816319127101451e-05,5.171851080376655e-05
-5.960167618468404e-05,7.548050052719191e-05,1.4839222330920165e-06,-2.0459063307498582e-05,5.530415000976063e-05
-5.151467848918401e-05,6.780720286769792e-05,4.723847268905956e-06,-1.9225888536311686e-05,5.626748679787852e-05
-3.574330185074359e-05,4.061995423398912e-05,5.729033546231221e-06,-1.6561822121730074e-05,5.524666266865097e-05
-1.9178458387614228e-05,6.0392089835659135e-06,3.2279690458381083e-06,-1.377965872961795e-05,5.435140337795019e-05
-8.296289706777316e-06,-1.9176093701389618e-05,1.4858793520033942e-06,-1.0983176252921112e-05,5.316684109857306e-05
-9.955218956747558e-06,-2.3524036805611104e-05,2.262918542328407e-06,-9.792488526727539e-06,5.138664710102603e-05
-2.3376296667265706e-05,-1.389252702210797e-05,5.757900908065494e-06,-8.724288818484638e-06,4.800953684025444e-05
-3.570810440578498e-05,-8.23342998046428e-06,7.081532203301322e-06,-6.710924481012626e-06,4.6006625780137256e-05
-2.7708976631402038e-05,-1.2475718904170208e-05,2.8764318358298624e-06,-7.531703886343166e-06,4.8636033170623705e-05
-1.9552417143131606e-06,-1.1347519830451347e-05,-1.1779778787968098e-06,-1.367696313536726e-05,5.290227272780612e-05
2.106453393935226e-05,3.395253997950931e-06,1.1603701750573236e-06,-1.9199742382625118e-05,5.761752981925383e-05
3.0084673198871315e-05,1.9428749510552734e-05,7.766439011902548e-06,-1.9278242689324543e-05,6.249072612263262e-05
2.8745203962898813e-05,2.1530546291614883e-05,1.2163359315309208e-05,-1.662941576796584e-05,6.505790224764496e-05
2.1986790670780465e-05,8.885854185791686e-06,1.1254462151555344e-05,-1.5232579244184308e-05,6.627375114476308e-05
1.0073777957586572e-05,-3.706797997438116e-06,7.610206012031995e-06,-1.4852046660962515e-05,6.672563904430717e-05
-6.771017069695517e-06,-8.360278116015252e-06,6.5753406488511246e-06,-1.3136595953255892e-05,6.344068242469802e-05
-1.9491171769914217e-05,-9.567575034452602e-06,7.973741048772354e-06,-9.854300515144132e-06,6.024630056344904e-05
-3.175447272951715e-05,-7.665988960070536e-06,7.581103545817314e-06,-9.350783329864498e-06,6.078668593545444e-05
-4.1264687752118334e-05,-4.766389338328736e-06,8.035952305363026e-06,-7.598286174470559e-06,6.318279338302091e-05
-3.479684892226942e-05,-4.712787529115303e-07,9.390073500981089e-06,2.4362955173273804e-06,6.503346230601892e-05
-1.8982485926244408e-05,1.0917934559984133e-05,9.295441486756317e-06,1.5196733329503331e-05,6.364122236846015e-05
-8.767923645791598e-06,1.9460618204902858e-05,5.9782041716971435e-06,2.1405017832876183e-05,5.869942106073722e-05
-6.175235739647178e-06,1.943045026564505e-05,3.501342860090517e-07,2.3881646484369412e-05,5.3710977226728573e-05
-6.459956694016e-06,1.5267056369339116e-05,8.288342456808095e-08,2.3323884306591935e-05,4.988930231775157e-05
-4.7748703764227685e-06,1.3889261026633903e-05,1.1486598623378086e-06,1.8458475096849725e-05,5.004425474908203e-05
-8.118073537843884e-07,2.127009975083638e-05,5.392091679823352e-07,1.351776700175833e-05,5.0372509576845914e-05
-6.480664978880668e-06,3.3722815715009347e-05,5.347050091586425e-07,8.793344022706151e-06,4.5231758122099563e-05
-2.1297615603543818e-05,3.999311593361199e-05,3.5835960261465516e-06,3.588659865272348e-06,4.048679693369195e-05
-3.8409205444622785e-05,3.7088466342538595e-05,8.809405699139461e-06,6.627521429436456e-07,4.496506153373048e-05
-5.49772557860706e-05,3.085279240622185e-05,1.172093197965296e-05,-3.8469372043437033e-07,5.287796739139594e-05
-6.538930028909817e-05,3.092221595579758e-05,9.291875358030666e-06,-3.0168907869665418e-06,5.270803740131669e-05
-6.26765177003108e-05,3.8953836337896064e-05,2.5808578811847838e-06,-5.162622983334586e-06,4.664371590479277e-05
-5.008751031709835e-05,4.550721496343613e-05,-4.157704552198993e-06,-4.884282134298701e-06,4.474083470995538e-05
-3.833222945104353e-05,4.261194771970622e-05,-7.471045591955772e-06,-4.526121301751118e-06,4.7894198360154405e-05
-3.135907172691077e-05,3.1242194381775334e-05,-7.432605798385339e-06,-4.859431555814808e-06,5.382623930927366e-05
-2.7499832867761143e-05,2.134673559339717e-05,-6.094137461332139e-06,-3.7907564092165558e-06,6.196299364091828e-05
-2.614970253489446e-05,1.9006909496965818e-05,-2.883464730984997e-06,-2.299618927281699e-06,6.72042224323377e-05
-2.708933607209474e-05,2.5041283151949756e-05,1.9861406599375186e-06,-2.517234861443285e-06,6.927933281986043e-05
-2.7011266865883954e-05,3.584407750167884e-05,5.565421361097833e-06,-2.9884072318964172e-06,6.959265738260001e-05
-2.598494575067889e-05,4.3507639929885045e-05,8.754308510106057e-06,-3.7743348002550192e-06,6.631061842199415e-05
-2.8681408366537653e-05,4.6414570533670485e-05,1.3406469406618271e-05,-6.1994896896067075e-06,6.032684905221686e-05
-3.3730171708157286e-05,4.921000436297618e-05,1.3314116586116143e-05,-8.11967493064003e-06,5.844100451213308e-05
-3.187037509633228e-05,5.414319093688391e-05,1.1345282473484986e-05,-7.683694093429949e-06,6.087574001867324e-05
-2.26294832827989e-05,5.865463026566431e-05,1.3478970686264802e-05,-8.57489703776082e-06,6.531052349600941e-05
-1.7812229998526163e-05,5.9657846577465534e-05,1.345460805168841e-05,-1.223350136569934e-05,6.814036169089377e-05
-1.9249937395215966e-05,5.846736894454807e-05,1.015127418213524e-05,-1.3533323908632156e-05,6.435140676330775e-05
-2.821550333464984e-05,3.7452027754625306e-05,7.5847651714866515e-06,-1.2570732906169724e-05,6.148751708678901e-05
-4.117784192203544e-05,6.883523838041583e-06,2.9805069061694667e-06,-1.2117828191549052e-05,6.209959974512458e-05
-4.503799573285505e-05,4.189214905636618e-06,2.5312285742984386e-06,-1.3079127711534966e-05,6.247744022402912e-05
-3.6305566027294844e-05,2.2441950932261534e-05,7.096884019119898e-06,-1.1658992661978118e-05,6.20101418462582e-05
-1.7935926734935492e-05,3.6709985579364e-05,8.172744855983183e-06,-9.096210305870045e-06,6.12432777415961e-05
-2.9201182769611478e-06,3.933676998713054e-05,8.243253432738129e-06,-9.789732757781167e-06,6.118285818956792e-05
9.225055919159786e-08,3.487212961772457e-05,7.84914391260827e-06,-1.2792876987077761e-05,5.850450907018967e-05
-7.870087756600697e-06,2.7005291485693306e-05,6.418935299734585e-06,-1.3540049621951766e-05,5.597816561930813e-05
-1.4921268302714452e-05,2.105948078678921e-05,6.061974545445992e-06,-1.2073626749042887e-05,5.4170170187717304e-05
-1.5258477105817292e-05,2.041621155512985e-05,7.0109235821291804e-06,-8.327877367264591e-06,5.289259206620045e-05
-1.535732371849008e-05,2.4793867851258256e-05,6.392957857315196e-06,-5.237763161858311e-06,5.431442696135491e-05
-2.2643162083113566e-05,3.2240535801975057e-05,2.2187471131474013e-06,-5.433946171251591e-06,5.6687455071369186e-05
-3.4265696740476415e-05,3.861757795675658e-05,-8.703484581928933e-07,-7.446296422131127e-06,5.6529403082095087e-05
-3.857768388115801e-05,4.124693077756092e-05,2.6012578473455505e-06,-1.0576047316135373e-05,5.672490078723058e-05
-3.690322409966029e-05,4.357631041784771e-05,9.12741325009847e-06,-1.2936136954522226e-05,5.9217454690951854e-05
-3.831852154689841e-05,4.742010423797183e-05,1.1179929970239755e-05,-1.2892626727989409e-05,6.2283877923619e-05
-4.409568282426335e-05,4.79818663734477e-05,1.0077181286760606e-05,-9.6583735285094e-06,6.361937266774476e-05
-4.4984190026298165e-05,4.208896280033514e-05,7.653011380170938e-06,-7.116577762644738e-06,6.28135894658044e-05
-4.294898462831043e-05,3.4526870877016336e-05,1.833159217312641e-06,-7.63123625802109e-06,6.583815411431715e-05
-4.661273123929277e-05,2.9139600883354433e-05,-1.8872267446568003e-06,-1.2253399290784728e-05,7.142472895793617e-05
-5.0427010137354955e-05,2.7311829398968257e-05,2.2416957108362112e-06,-1.521388185210526e-05,7.193799683591351e-05
-4.371755858301185e-05,3.633858432294801e-05,7.799279956088867e-06,-1.3736666005570441e-05,7.228027243399993e-05
-3.0514898753608577e-05,5.2681021770695224e-05,1.033507396641653e-05,-1.1490416909509804e-05,7.727061893092468e-05
-2.4031329303397797e-05,6.207585101947188e-05,1.1714056199707557e-05,-1.1040200661227573e-05,8.1837315519806e-05
-2.342219522688538e-05,4.806552897207439e-05,9.484057954978198e-06,-7.661142262804788e-06,7.799944432917982e-05
-1.1336734132783022e-05,2.3976483134902082e-05,3.1768215649208287e-06,-2.6640877877071034e-06,7.039601769065484e-05
2.4786691938061267e-05,9.423365554539487e-06,-2.3598513507749885e-06,-3.578081532396027e-06,6.620703788939863e-05
6.96161441737786e-05,1.4125156667432748e-05,-3.1895328902464826e-06,-7.3547680585761555e-06,6.229665450518951e-05
9.173555736197159e-05,3.765059955185279e-05,-1.900232973639504e-06,-9.428217708773445e-06,6.078583828639239e-05
7.942216325318441e-05,5.456952567328699e-05,-2.8287271902627253e-07,-1.0688304428185802e-05,5.794715616502799e-05
5.3204759751679376e-05,5.8543766499496996e-05,2.721715418374515e-06,-1.3168814803066198e-05,5.629576844512485e-05
3.522549741319381e-05,5.3990552260074764e-05,5.267396772978827e-06,-1.1247032489336561e-05,5.755258825956844e-05
9.82209894573316e-06,4.701658690464683e-05,8.518284630554263e-06,-6.214384484337643e-06,5.976374450256117e-05
-4.834060382563621e-05,3.5017914342461154e-05,1.0779211152112111e-05,-6.897671937622363e-06,6.000175926601514e-05
-0.00011896029900526628,1.579964919073973e-05,9.552500159770716e-06,-1.0973989446938504e-05,6.0677153669530526e-05
-0.00014261601609177887,-5.443360464596481e-07,6.693959676340455e-06,-1.5879331840551458e-05,6.094280252000317e-05
-0.00011682491458486766,-8.23890877654776e-06,4.9866275730892085e-06,-2.0722009139717557e-05,6.0236099670873955e-05
-9.031152148963884e-05,-1.025804795062868e-05,4.628050191968214e-06,-2.2262405764195137e-05,6.056206257198937e-05
-8.856359636411071e-05,-7.269389243447222e-06,4.280476332496619e-06,-1.8133147023036145e-05,5.8715304476208985e-05
-0.00010184272105107084,5.121434696775395e-06,4.706028903456172e-06,-1.3724651580560021e-05,5.296299423207529e-05
-0.00011152085789944977,1.6758163837948814e-05,4.230796548654325e-06,-1.441793665435398e-05,4.966851702192798e-05
-0.00011099232506239787,1.4799368727835827e-05,5.1033543968515005e-06,-1.638957837712951e-05,5.1758343033725396e-05
-0.00010302350710844621,3.983635906479321e-06,9.979409696825314e-06,-1.688925112830475e-05,5.3643001592718065e-05
-9.407648030901328e-05,-3.105415999016259e-06,1.3781153938907664e-05,-1.8003160221269354e-05,5.5101278121583164e-05
-8.633932884549722e-05,-6.402045983122662e-06,1.1877566066686995e-05,-1.8715507394517772e-05,5.562449950957671e-05
-7.886798994150013e-05,-8.681982762936968e-06,5.479323135659797e-06,-1.590519786986988e-05,5.405927004176192e-05
-6.430734356399626e-05,-1.0329047654522583e-05,-3.195190402038861e-06,-9.453388884139713e-06,4.946539775119163e-05
-4.4301297748461366e-05,-2.6443644856044557e-06,-7.72225121181691e-06,-3.0087392133282265e-06,4.561284004012123e-05
-2.7362768378225155e-05,1.6700027117622085e-05,-7.158526386774611e-06,-1.5872991525611724e-06,4.544458715827204e-05
-2.0476820282055996e-05,3.333359563839622e-05,-4.990745765098836e-06,-6.83705547999125e-06,4.953305688104592e-05
-1.922653245856054e-05,3.7825298932148144e-05,-3.953605016704387e-07,-1.4403071872948203e-05,5.542526560020633e-05
-1.389150111208437e-05,3.913021646440029e-05,5.2177583711454645e-06,-1.7096584997489117e-05,6.177146860864013e-05
-4.947552497469587e-06,4.4717911805491894e-05,1.3311510883795563e-05,-1.686289942881558e-05,6.515485438285396e-05
1.4736484672539518e-06,5.1475126383593306e-05,1.8258779164170846e-05,-1.8594315406517126e-05,6.772228516638279e-05
4.664374046114972e-06,5.371004226617515e-05,1.9876681108144112e-05,-2.09483623621054e-05,6.93342590238899e-05
3.1020920232549543e-06,4.1043527744477615e-05,2.1003834262955934e-05,-2.1347876099753194e-05,6.482263415819034e-05
-5.1502806854841765e-06,2.4146982468664646e-05,2.0845223843934946e-05,-2.131069231836591e-05,5.769019844592549e-05
-1.418765532434918e-05,1.9606417481554672e-05,1.999398591578938e-05,-2.0634523025364615e-05,5.685886208084412e-05
-1.8653683582670055e-05,2.3021917513688095e-05,1.5886045730439946e-05,-2.282401328557171e-05,6.22588413534686e-05
-1.9304503439343534e-05,2.4157568986993283e-05,1.2782063095073681e-05,-2.6995858206646517e-05,6.947234942344949e-05
-1.963555951078888e-05,2.2988258933764882e-05,1.3591858987638261e-05,-2.7019055778509937e-05,7.269011257449165e-05
-2.1887915863771923e-05,2.269899778184481e-05,1.6167949070222676e-05,-2.2859585442347452e-05,7.130218000384048e-05
-2.1925452529103495e-05,3.0637122108601034e-05,1.6369194781873375e-05,-2.0594170564436354e-05,6.746657891198993e-05
-2.0675630366895348e-05,5.078054527984932e-05,1.5512130630668253e-05,-2.0868539650109597e-05,6.117387238191441e-05
-2.1339268641895615e-05,7.445336814271286e-05,1.4305620425147936e-05,-1.882664582808502e-05,5.74722871533595e-05
-2.4726148694753647e-05,9.239165956387296e-05,1.3490709534380585e-05,-1.4311126506072469e-05,5.8443445595912635e-05
-2.762702752079349e-05,0.00010077401384478435,1.362752118438948e-05,-1.1351042303431313e-05,6.062288230168633e-05
-2.856699029507581e-05,0.00010327644849894568,1.471335781388916e-05,-1.1016747521352954e-05,6.0202837630640715e-05
-3.002862649736926e-05,0.00010010095138568431,1.4633230421168264e-05,-8.66249501996208e-06,5.6126878916984424e-05
-2.9792716304655187e-05,8.325191447511315e-05,1.0436611773911864e-05,-6.608145213249372e-06,5.074494401924312e-05
-2.665441388671752e-05,4.65176890429575e-05,3.675275820569368e-06,-8.912595149013214e-06,5.0488979468354955e-05
-2.113889786414802e-05,7.3395517574681435e-06,-8.25526385028752e-08,-1.2811890883313026e-05,5.665158823831007e-05
-1.4846846170257777e-05,-2.044213397311978e-05,-6.230110329852323e-07,-1.3404186574916821e-05,6.191615102579817e-05
-1.0677603313524742e-05,-4.6655743062729016e-05,-3.983579063060461e-06,-1.558688200020697e-05,6.085003406042233e-05
-1.2548809536383487e-05,-7.62200215831399e-05,-6.84401675243862e-06,-2.1001615095883608e-05,5.7349872804479674e-05
-2.1130779714439996e-05,-0.00010069510608445853,-6.43024395685643e-06,-2.6141868147533387e-05,5.6396998843410984e-05
-2.4517130441381596e-05,-0.0001145841451943852,-5.032687568018446e-06,-2.997946648974903e-05,5.595837137661874e-05
-1.7325830413028598e-05,-0.00011873937910422683,-5.040443284087814e-06,-2.8546592147904448e-05,5.428619624581188e-05
-7.4198023867211305e-06,-0.00010624515562085435,-6.177983777888585e-06,-2.2442734916694462e-05,5.3596442739944905e-05
1.6904145923035685e-06,-7.435595762217417e-05,-5.995832452754257e-06,-1.604270983079914e-05,5.6516095355618745e-05
4.19462276113336e-06,-1.8596309018903412e-05,-6.02016507400549e-06,-1.1437859939178452e-05,5.852932372363284e-05
4.35055153502617e-06,5.3180494433036074e-05,-9.43515533435857e-06,-6.674609721812885e-06,5.485286965267733e-05
5.363540367397945e-06,0.00010809183731907979,-1.3879198377253488e-05,-7.391935469058808e-06,5.5103839258663356e-05
4.854652615904342e-06,0.00013008437235839665,-1.68033511727117e-05,-1.2825426892959513e-05,5.9249712649034336e-05
6.439997832785593e-06,0.00012187612446723506,-1.5243817870214116e-05,-1.2122797670599539e-05,6.326833681669086e-05
1.2731520655506756e-05,0.00010125025437446311,-1.1565228305698838e-05,-4.05212949772249e-06,6.454838876379654e-05
1.7662205209489912e-05,8.840850932756439e-05,-9.331378350907471e-06,4.497174813877791e-06,6.439445860451087e-05
1.9375353076611646e-05,8.628473005956039e-05,-7.779742190905381e-06,9.153493920166511e-06,6.563647912116721e-05
1.4575500244973227e-05,8.78474602359347e-05,-3.1669396776123904e-06,1.3756574844592251e-05,6.760488031432033e-05
3.3824196634668624e-06,7.518559141317382e-05,2.458099515934009e-06,1.8695880498853512e-05,6.864807073725387e-05
-8.753409929340705e-06,4.88978112116456e-05,6.631657015532255e-06,2.0231538655934855e-05,6.867299089208245e-05
-2.202614996349439e-05,4.043010267196223e-05,8.419201549259014e-06,1.463434182369383e-05,6.83177204336971e-05
-3.951013786718249e-05,6.6606946347747e-05,6.8367321546247695e-06,3.7539030017796904e-06,6.719391967635602e-05
-5.607693310594186e-05,9.227950067725033e-05,4.162356162851211e-06,-5.671490271197399e-06,6.531459075631574e-05
-6.10934803262353e-05,7.771025411784649e-05,3.2002963052946143e-06,-7.686211574764457e-06,6.328851304715499e-05
-5.905441503273323e-05,2.636993485793937e-05,4.045120476803277e-06,-5.479706487676594e-06,5.951995626674034e-05
-5.737992250942625e-05,-2.633030635479372e-05,4.1372913983650506e-06,-4.5777524064760655e-06,5.4993899539113045e-05
-5.430374585557729e-05,-4.713521047960967e-05,4.130799879931146e-06,-3.1222978122968925e-06,5.285699444357306e-05
-4.3863470637006685e-05,-2.820591180352494e-05,7.730842298769858e-06,3.118519316558377e-06,5.451250763144344e-05
-3.101491165580228e-05,7.602345249324571e-06,1.3210739780333824e-05,1.4465898857451975e-05,5.98395818087738e-05
-2.5038245439645834e-05,2.8942207791260444e-05,1.4434715012612287e-05,2.3535596483270638e-05,6.0471054894151166e-05
-2.4044657038757578e-05,2.5323377485619858e-05,1.477819932915736e-05,2.3297998268390074e-05,5.55006590730045e-05
-1.9151642845827155e-05,1.7639989891904406e-05,1.6897765817702748e-05,1.5180484297161456e-05,5.423367110779509e-05
-5.9774752116936725e-06,2.3696817152085714e-05,1.7895559722092003e-05,8.181011253327597e-06,6.0150861827423796e-05
1.0113397365785204e-05,2.7694666641764343e-05,1.6770352885941975e-05,2.9501209155569086e-06,6.627771654166281e-05
1.7936041331267916e-05,2.5950137569452636e-05,1.593245360709261e-05,-9.349693755211774e-06,7.126872515073046e-05
3.3553230878169416e-06,2.7420812330092303e-05,9.567798770149238e-06,-2.1610230760416016e-05,7.087936683092266e-05
-2.9553015338024125e-05,3.4809789212886244e-05,-3.5032433061132906e-06,-2.759362178039737e-05,6.621698412345722e-05
-5.367646008380689e-05,3.814277806668542e-05,-1.4706450201629195e-05,-3.50149130099453e-05,6.238599598873407e-05
-5.5592143326066434e-05,2.925934677477926e-05,-1.772836913005449e-05,-4.144317426835187e-05,6.042311724741012e-05
-4.4595133658731356e-05,2.376561678829603e-05,-1.2965570931555703e-05,-4.252360304235481e-05,5.982567381579429e-05
-3.8015685277059674e-05,3.2533935154788196e-05,-6.025758466421394e-06,-3.7925005017314106e-05,5.997257540002465e-05
-4.077011544723064e-05,4.523041570791975e-05,-3.243439095967915e-06,-3.264825136284344e-05,5.927130769123323e-05
-5.0773360271705315e-05,4.915432873531245e-05,-1.2785297940354212e-06,-2.9194250600994565e-05,5.8036039263242856e-05
-5.4301613999996334e-05,4.407002415973693e-05,4.985302439308725e-06,-2.466079968144186e-05,5.91305251873564e-05
-4.426550003699958e-05,3.706631105160341e-05,1.2479779798013624e-05,-1.8990964235854335e-05,6.192844739416614e-05
-2.962585313071031e-05,2.8034584829583764e-05,1.6545849575777538e-05,-1.244675695488695e-05,6.384738662745804e-05
-1.8908274796558544e-05,1.3947323168395087e-05,1.674419218034018e-05,-3.6181818359182216e-06,6.343407585518435e-05
-1.200775477627758e-05,9.865979109235923e-07,1.7390542780049145e-05,7.5844886850973126e-06,6.281432433752343e-05
-7.385209755739197e-06,-4.799450721293397e-07,2.1173567802179605e-05,1.5120961506909225e-05,6.329076859401539e-05
-6.513768767035799e-06,8.603699825471267e-06,2.7288117053103633e-05,1.5409354091389105e-05,6.604781083296984e-05
-8.803234777587932e-06,1.8355611246079206e-05,3.0203067581169307e-05,1.0124964319402352e-05,6.959185702726245e-05
-1.51092526721186e-05,2.362305167480372e-05,2.6796735255629756e-05,1.9510036963765742e-06,6.813757499912754e-05
-2.3387956389342435e-05,2.4991128157125786e-05,1.8906155673903413e-05,-5.959159807389369e-06,6.0526144807226956e-05
-2.9930459277238697e-05,2.052527997875586e-05,1.141860684583662e-05,-1.2602199603861663e-05,5.5988351959967986e-05
-2.9836308385711163e-05,1.1725722288247198e-05,8.151241672749165e-06,-1.726274422253482e-05,5.793827222078107e-05
-2.956447315227706e-05,4.4040298234904185e-06,1.1052494301111437e-05,-1.824293394747656e-05,6.107354420237243e-05
-3.3404601708753034e-05,3.222041868866654e-06,1.5065767911437433e-05,-1.7097221643780358e-05,6.27690606052056e-05
-3.843330341624096e-05,1.0288871635566466e-05,1.3856965779268648e-05,-1.6444235370727256e-05,6.322534318314865e-05
-4.3481632019393146e-05,2.2507736503030173e-05,1.0362636203353759e-05,-1.6451431292807683e-05,6.136031879577786e-05
-4.584275666275062e-05,3.281077079009265e-05,1.0751105946837924e-05,-1.6619385860394686e-05,5.896484071854502e-05
-3.8940048398217186e-05,3.297590228612535e-05,1.0732285772974137e-05,-1.8797765733324923e-05,5.9496953326743096e-05
-2.5883216949296184e-05,3.134803773718886e-05,6.112536539149005e-06,-2.0570318156387657e-05,6.0833466704934835e-05
-1.952887760126032e-05,3.698495129356161e-05,2.59429111792997e-06,-1.957116910489276e-05,6.042658424121328e-05
-2.360335383855272e-05,4.063151209265925e-05,2.7985045107925544e-06,-1.729281575535424e-05,6.123148341430351e-05
-2.8223110348335467e-05,3.8630612834822387e-05,6.221814146556426e-06,-1.706483271846082e-05,6.153295544208959e-05
-2.918104473792482e-05,3.748207745957188e-05,7.55428254706203e-06,-1.9910023183911107e-05,5.8899462601402774e-05
-2.9648022973560728e-05,3.489103619358502e-05,5.555998086492764e-06,-1.9586521375458688e-05,5.459798558149487e-05
-3.039110561076086e-05,3.144758738926612e-05,5.023534413339803e-06,-1.631212762731593e-05,4.8956262617139146e-05
-3.394194573047571e-05,2.8403374017216265e-05,6.9617822191503365e-06,-1.4978200852056034e-05,4.5257860620040447e-05
-3.923927215510048e-05,2.641766877786722e-05,8.609424185124226e-06,-1.6621548638795502e-05,4.755749978357926e-05
-4.4194010115461424e-05,2.9155706215533428e-05,7.2963262027769815e-06,-1.6907397366594523e-05,5.140369830769487e-05
-4.9749283789424226e-05,4.1065519326366484e-05,3.4793665690813214e-06,-1.4217207535693888e-05,5.215136116021313e-05
-5.200919258641079e-05,6.519192538689822e-05,-4.707731875441823e-07,-1.1024022569472436e-05,5.066687299404293e-05
-4.996815914637409e-05,9.00671147974208e-05,4.488004776703747e-07,-1.0039130756922532e-05,5.077557943877764e-05
-4.51264604635071e-05,9.864958701655269e-05,6.088392183301039e-06,-1.1322006685077213e-05,5.370412327465601e-05
-4.0195103792939335e-05,8.742765930946916e-05,1.0096026016981341e-05,-1.2936946404806804e-05,5.567347034229897e-05
-3.803682193392888e-05,6.802227289881557e-05,7.998313776624855e-06,-1.4800943063164596e-05,5.615697227767669e-05
-4.038988481624983e-05,4.8212179535767063e-05,4.754562723974232e-06,-1.764724584063515e-05,5.666298602591269e-05
-4.280776920495555e-05,2.888547896873206e-05,3.905345693056006e-06,-2.041001062025316e-05,5.573198359343223e-05
-3.740697866305709e-05,1.1569093658181373e-05,2.5661909148766426e-06,-2.190856685047038e-05,5.3378760640043765e-05
-2.689091706997715e-05,1.261189197521162e-08,4.703763423208329e-08,-2.3353877622867003e-05,5.382650488172658e-05
-1.8703976820688695e-05,-5.887212410016218e-06,4.752515678774216e-07,-2.254744504170958e-05,5.697563028661534e-05
-1.1164013812958729e-05,-1.4174417628964875e-05,6.236117542357533e-07,-2.2019734387868084e-05,6.009104254189879e-05
4.000539490789379e-07,-2.8766406103386544e-05,-5.436107130663004e-06,-2.3505641365773045e-05,6.173112342366949e-05
1.1204394468222745e-05,-3.4676493669394404e-05,-7.389885013253661e-06,-2.350739850953687e-05,5.99969680479262e-05
2.082359787891619e-05,-1.9065209926338866e-05,-2.929210722868447e-06,-2.1000420019845478e-05,5.5022406741045415e-05
3.0249570045270957e-05,1.083950246538734e-05,-2.4436344574496616e-06,-1.7044181731762365e-05,5.1338618504814804e-05
3.174344601575285e-05,4.122433529119007e-05,-6.641968866460957e-06,-1.6247076928266324e-05,5.294340735417791e-05
2.3020558728603646e-05,5.3690248023485765e-05,-8.826506018522196e-06,-1.691112083790358e-05,5.7474371715215966e-05
1.0639289030223154e-05,3.763468703255057e-05,-6.9931315920257475e-06,-1.8059185094898567e-05,5.8246165281161666e-05
-5.087990757601801e-06,1.8045302567770705e-05,-3.35350887326058e-06,-2.1668414774467237e-05,5.525844971998595e-05
-2.1994143025949597e-05,6.124539595475653e-06,8.965289453044534e-07,-2.3066892026690766e-05,5.2977884479332715e-05
-3.133782229269855e-05,-5.100965836390969e-07,3.335736892040586e-06,-2.2153677491587587e-05,5.415946361608803e-05
-2.713837784540374e-05,3.508857616907335e-06,5.331566171662416e-06,-1.9631632312666625e-05,5.396354754338972e-05
-2.185482117056381e-05,1.0550513252383098e-05,8.675026037963107e-06,-1.462581531086471e-05,5.066822632215917e-05
-2.41258239839226e-05,2.306687383679673e-05,1.2794660506187938e-05,-7.82693132350687e-06,4.689539855462499e-05
-2.6378836992080323e-05,3.591980930650607e-05,1.7852957171271555e-05,-5.184451310924487e-06,4.5107841287972406e-05
-2.207766920037102e-05,4.274726961739361e-05,2.2562177036888897e-05,-7.635875590494834e-06,4.740725125884637e-05
-1.5105933925951831e-05,4.140304372413084e-05,2.5686184017104097e-05,-1.0861089322133921e-05,4.937164339935407e-05
-1.2853241969423834e-05,3.679540168377571e-05,2.5466735678492114e-05,-1.182939377031289e-05,4.9898328143171966e-05
-1.5074595467012841e-05,3.669108627946116e-05,2.3388996851281263e-05,-1.034781689668307e-05,5.076059460407123e-05
-2.15885738725774e-05,4.172945045866072e-05,2.0807150576729327e-05,-1.1740416084649041e-05,5.311001950758509e-05
-3.285562706878409e-05,4.423251448315568e-05,1.8606602679938078e-05,-1.5813844584045e-05,5.282807978801429e-05
-4.959714715369046e-05,4.1620867705205455e-05,1.6516150935785845e-05,-1.7824533642851748e-05,4.987758438801393e-05
-6.380741251632571e-05,4.002696005045436e-05,1.3000130820728373e-05,-1.4844634279143065e-05,4.728635758510791e-05
-6.605648377444595e-05,4.0928218368208036e-05,8.665148016007151e-06,-9.003347258840222e-06,4.62720199720934e-05
-5.567437983700074e-05,4.390702451928519e-05,5.321865046425955e-06,-3.5480841233948013e-06,4.9811427743406966e-05
-4.33581844845321e-05,4.4719537982018664e-05,5.3822686822968535e-06,-1.8977315221491153e-06,5.6105611292878166e-05
-3.832647780654952e-05,4.193182394374162e-05,7.2198367888631765e-06,-2.802235712806578e-06,6.063028558855876e-05
-3.908598228008486e-05,3.917200228897855e-05,4.878034815192223e-06,-3.2673838177288417e-06,6.31793009233661e-05
-3.838296470348723e-05,4.0074617572827265e-05,-1.5030974509500084e-06,-2.6491845801501768e-06,6.40910366200842e-05
-3.19036771543324e-05,4.584424095810391e-05,-5.980411515338346e-06,-1.1832206325834704e-07,6.365973968058825e-05
-2.4167209630832076e-05,5.246947330306284e-05,-1.2406344467308372e-05,3.226095486752456e-06,6.288232543738559e-05
-2.4902281438698992e-05,5.182817767490633e-05,-2.0294201021897607e-05,6.74085458740592e-06,6.285079143708572e-05
-3.477011705399491e-05,5.002536636311561e-05,-2.1890558855375275e-05,7.309605734917568e-06,6.520957686007023e-05
-4.4604141294257715e-05,5.1450653700158e-05,-1.5723100659670308e-05,3.962405116908485e-06,6.423651211662218e-05
-5.062769923824817e-05,5.4393065511249006e-05,-1.0101157386088744e-05,2.3521492948930245e-06,6.174363079480827e-05
-5.1955787057522684e-05,5.887657607672736e-05,-1.020189120026771e-05,2.40087342717743e-06,6.158984615467489e-05
-4.946967965224758e-05,5.935824810876511e-05,-8.701048500370234e-06,7.72330110976327e-07,6.465100886998698e-05
-4.2751908040372655e-05,4.416290175868198e-05,-4.7094337674025155e-07,-2.7448581931821536e-06,6.652140291407704e-05
-3.330805338919163e-05,1.2952387805853505e-05,7.354736681008944e-06,-7.884924343670718e-06,6.413154915207997e-05
-2.543462505855132e-05,-1.782906474545598e-05,5.509276888915338e-06,-1.633326792216394e-05,6.144351209513843e-05
-2.106416468450334e-05,-2.4220515115302987e-05,4.467196049517952e-06,-2.6505967980483547e-05,5.935128137934953e-05
-1.848401916504372e-05,-3.4541897093731677e-06,8.269917088910006e-06,-3.187876791344024e-05,6.124140054453164e-05
-2.0086070435354486e-05,2.295707236044109e-05,1.2813961802748963e-05,-3.077091969316825e-05,6.360199768096209e-05
-2.6304398488719016e-05,3.7138441257411614e-05,1.540589437354356e-05,-2.6026535124401562e-05,6.669249705737457e-05
-2.6876559786614962e-05,4.0029623050941154e-05,1.726527261780575e-05,-2.0559462427627295e-05,6.851094076409936e-05
-1.509527373855235e-05,4.100669320905581e-05,1.839109609136358e-05,-1.3923994629294612e-05,6.655151082668453e-05
2.247728190241105e-07,4.081137012690306e-05,1.5949583030305803e-05,-8.09833454695763e-06,6.340647814795375e-05
8.485337275487836e-06,3.642796218628064e-05,1.0649545401975047e-05,-4.12637473345967e-06,6.170767301227897e-05
8.493574569001794e-06,2.6188119591097347e-05,4.581439043249702e-06,2.2988256205280777e-06,6.173772271722555e-05
3.853136149700731e-06,1.4099632608122192e-05,2.054125843642396e-06,1.0766664672701154e-05,6.377806857926771e-05
-5.6684684750507586e-06,3.5621164897747803e-06,4.9584100452193525e-06,1.653576509852428e-05,6.616412429139018e-05
-1.9777455236180685e-05,-4.3576883399509825e-06,1.1683149750751909e-05,1.8708813513512723e-05,6.635475438088179e-05
-3.287060098955408e-05,-1.0701929568313062e-05,1.3463798495649826e-05,1.9704762962646782e-05,6.343830318655819e-05
-4.5151686208555475e-05,-2.0411054720170796e-05,1.0887960343097802e-05,1.9834844351862557e-05,5.9232239436823875e-05
-5.684933785232715e-05,-3.361558265169151e-05,7.598137017339468e-06,1.6119880456244573e-05,5.5823995353421196e-05
-6.547746306750923e-05,-2.7870670237462036e-05,3.6411179280548822e-06,5.982288257655455e-06,5.123451410327107e-05
-6.811401544837281e-05,1.8103268075719825e-06,1.162717012448411e-06,-7.5690804806072265e-06,4.85114251205232e-05
-6.382619903888553e-05,2.6585899831843562e-05,4.544317562249489e-07,-1.583658013259992e-05,5.0005670345854014e-05
-5.1738141337409616e-05,3.619528797571547e-05,1.8834403192613536e-07,-1.7592459698789753e-05,5.43296555406414e-05
-3.79534212697763e-05,3.6927762266714126e-05,3.890851530741202e-06,-1.671050995355472e-05,5.5680116929579526e-05
-3.1779429264133796e-05,3.889272556989454e-05,7.64067044656258e-06,-1.565797174407635e-05,5.7196433772332966e-05
-3.137654493912123e-05,4.8234593123197556e-05,5.57601288164733e-06,-1.8084871044266038e-05,6.0903654230060056e-05
-3.089784877374768e-05,5.393240280682221e-05,9.56837652665854e-07,-1.9224265997763723e-05,6.385579035850242e-05
-2.9063578040222637e-05,4.545652700471692e-05,-5.211804364080308e-06,-1.6963345842668787e-05,6.13439260632731e-05
-3.0588598747272044e-05,3.3717515179887414e-05,-9.160870831692591e-06,-1.435623926226981e-05,5.784605673397891e-05
-2.650990973052103e-05,3.985787043347955e-05,-8.28329302748898e-06,-8.504154720867518e-06,5.911559492233209e-05
-1.6103618690976873e-05,6.513844709843397e-05,-4.971281668986194e-06,-2.8109975573897827e-06,6.142303755041212e-05
-1.0644055691955145e-05,8.655626879772171e-05,1.0014753115683561e-06,-1.7451312714911182e-06,6.259467045310885e-05
-7.4717031566251535e-06,8.184205216821283e-05,5.131717898620991e-06,-1.42887506626721e-06,6.133698479970917e-05
-1.7473441857873695e-06,6.0198533901711926e-05,5.091809271107195e-06,7.463719953193504e-07,5.843534745508805e-05
1.3767322570856777e-06,3.845070750685409e-05,3.018598135895445e-06,2.297293576702941e-06,5.484441135195084e-05
-1.4229104863261455e-06,2.735587077040691e-05,4.0813811210682616e-06,2.084237991084592e-07,5.3677740652346984e-05
-3.688983497340814e-06,2.7799898816738278e-05,4.151334906055126e-06,-1.7920783648150973e-06,5.7939632824854925e-05
-5.9992680689902045e-06,3.3468735637143254e-05,5.00725036545191e-07,-1.771713755260862e-06,6.489201768999919e-05
-7.840586476959288e-06,3.4525332011980936e-05,-6.67717472424556e-08,-1.7036801409631153e-06,6.849662167951465e-05
-7.630819709447678e-06,2.091929673042614e-05,2.7564331048779422e-06,-3.7903334941802314e-06,6.718366785207763e-05
-7.1576823756913655e-06,-2.774486574708135e-06,3.1597348879586207e-06,-7.199115771072684e-06,6.37185585219413e-05
-9.962163858290296e-06,-2.15759027923923e-05,-2.25707559309285e-08,-1.0034864317276515e-05,5.87944668950513e-05
-1.167913887911709e-05,-2.4670494894962758e-05,-1.7964417793336906e-06,-9.375424269819632e-06,5.405582851381041e-05
-1.7395570466760546e-05,-1.290434920520056e-05,-2.3842892460379517e-06,-6.6631973822950386e-06,5.124917515786365e-05
-3.5146156733389944e-05,5.789759597973898e-06,-2.2384747353498824e-06,-6.9896227614663076e-06,4.823828930966556e-05
-4.9832480726763606e-05,2.437912189634517e-05,-2.0137840692768805e-06,-7.722250302322209e-06,4.612743578036316e-05
-4.5611242967424914e-05,4.6919398300815374e-05,-7.968592967699806e-07,-9.45609099289868e-06,4.670886119129136e-05
-3.525471402099356e-05,7.121125236153603e-05,3.406075393286301e-06,-1.4288557395047974e-05,4.9741716793505475e-05
-2.9694047043449245e-05,8.773108129389584e-05,6.149810815259116e-06,-1.636390334169846e-05,5.442315887194127e-05
-2.854223203030415e-05,9.337555820820853e-05,7.363149052252993e-06,-1.4226424355001654e-05,6.1035036196699366e-05
-3.445219044806436e-05,8.172950765583664e-05,9.266928827855736e-06,-1.3682890312338714e-05,6.426284380722791e-05
-4.478181290323846e-05,4.556811472866684e-05,4.88094201500644e-06,-1.6699657862773165e-05,5.825930566061288e-05
-5.199050792725757e-05,1.8427183022140525e-05,-1.891045258162194e-06,-2.162827513529919e-05,5.031469481764361e-05
-5.026411236030981e-05,1.5853138393140398e-05,-6.548655164806405e-06,-2.42795158555964e-05,5.022869663662277e-05
-4.7393674321938306e-05,1.5818674000911415e-05,-8.186328159354161e-06,-2.3761613192618825e-05,5.508962567546405e-05
-4.177803930360824e-05,9.867486369330436e-06,-5.473150849866215e-06,-2.2163245375850238e-05,6.094485070207156e-05
-3.104882125626318e-05,-2.5005019779200666e-06,-2.858553898477112e-06,-2.317988946742844e-05,6.440561992349103e-05
-1.729610448819585e-05,-1.6577119822613895e-05,-3.7430297084029007e-07,-2.3795751985744573e-05,6.379600381478667e-05
-3.971081241616048e-06,-3.104665665887296e-05,6.237391062313691e-06,-2.3111095288186334e-05,6.131467671366408e-05
5.092793799121864e-06,-3.363610085216351e-05,1.3118217793817166e-05,-2.1066944100311957e-05,6.052725439076312e-05
6.419259079848416e-06,-1.8821232515620068e-05,1.7089398170355707e-05,-1.4997223843238316e-05,6.223291711648926e-05
4.37384096585447e-06,-5.600766144198133e-06,1.8105676645063795e-05,-6.808154466853011e-06,5.9797795984195545e-05
7.289785116881831e-06,1.6618962490611011e-06,1.8838005416910164e-05,9.081496727958438e-07,5.2916515414835885e-05
1.5774752682773396e-05,1.623964635655284e-05,1.8977929357788526e-05,4.578947027766844e-06,4.90958227601368e-05
2.274875805596821e-05,4.132926551392302e-05,1.9667306332848966e-05,5.616632734017912e-06,5.538325058296323e-05
2.9696477213292383e-05,7.186590664787218e-05,2.2087053366703913e-05,4.366390840004897e-06,6.358193786581978e-05
3.689828372444026e-05,9.264777327189222e-05,2.2977112166699953e-05,1.930947746586753e-06,6.396434037014842e-05
3.281266617705114e-05,8.762983634369448e-05,2.0448667783057317e-05,-1.8332802937948145e-06,5.987627446302213e-05
8.35857372294413e-06,5.9266050811856985e-05,1.5234844795486424e-05,-5.753978712164098e-06,5.533587682293728e-05
-4.392170740175061e-05,2.3240021619130857e-05,9.201567991112825e-06,-8.04866613179911e-06,5.02607217640616e-05
-0.00010561712406342849,-7.349047791649355e-06,6.06269168201834e-06,-1.0363714864070062e-05,4.5225588110042736e-05
-0.00012624493683688343,-2.945264714071527e-05,9.251297342416365e-06,-1.0685736015147995e-05,4.5495882659452036e-05
-9.401460556546226e-05,-4.547761636786163e-05,1.1137921319459565e-05,-9.188531294057611e-06,5.255941505311057e-05
-5.4498268582392484e-05,-4.8952646466204897e-05,1.0930734788416885e-05,-1.0866405318665784e-05,6.0115988162579015e-05
-3.8521011447301134e-05,-3.7291425542207435e-05,1.028325186780421e-05,-1.2663199413509574e-05,6.204067904036492e-05
-3.405338793527335e-05,-2.4859371478669345e-05,8.70992062118603e-06,-9.510168638371397e-06,5.9304453316144645e-05
-2.261369809275493e-05,-1.616296503925696e-05,7.672428182559088e-06,-3.991171979578212e-06,6.090113311074674e-05
-1.1462726433819626e-05,-4.220243226882303e-06,1.0578650289971847e-05,-1.8721439118962735e-06,6.65648840367794e-05
-1.1573645679163747e-05,8.91055697138654e-06,1.5514686310780235e-05,-4.149014330323553e-06,6.758494419045746e-05
-1.3125404620950576e-05,2.039252285612747e-05,1.4904039744578768e-05,-4.543200248008361e-06,6.572122947545722e-05
-8.122960025502834e-06,2.870213211281225e-05,1.354948562948266e-05,-5.8121154324908275e-06,6.212636071722955e-05
-7.443592039635405e-06,2.7650345145957544e-05,1.5016581528470851e-05,-6.703909548377851e-06,5.679899550159462e-05
-8.622670975455549e-06,2.3783795768395066e-05,1.1122684554720763e-05,-4.888701823801966e-06,5.348969716578722e-05
-1.1503775567689445e-05,2.3648508431506343e-05,4.1995745050371625e-06,-4.0729260035732295e-06,5.328384941094555e-05
-1.3725674762099516e-05,3.0790866730967537e-05,1.9146373233525082e-06,-3.1205777304421645e-06,5.451328252092935e-05
-1.7636783013585955e-05,4.8909292672760785e-05,1.5310743037844077e-06,-3.072341087317909e-06,5.5138993047876284e-05
-3.4546759707154706e-05,7.260916754603386e-05,2.215797252347329e-07,-5.011357188777765e-06,5.2766034059459344e-05
-5.733795478590764e-05,0.00010138805373571813,9.994545280278544e-08,-8.451080248050857e-06,4.818857632926665e-05
-6.831743667135015e-05,0.0001262683217646554,4.6711124923604075e-07,-1.0451684829604346e-05,4.55468543805182e-05
-6.6289198002778e-05,0.00013304772437550128,-1.2982966381969163e-06,-9.740839232108556e-06,4.8088364565046504e-05
-6.382057472364977e-05,0.00012150147085776553,-6.9997286118450575e-06,-8.827902092889417e-06,5.3602871048497036e-05
-6.405193562386557e-05,9.985715587390587e-05,-9.158562534139492e-06,-9.722166396386456e-06,5.820617298013531e-05
-6.198437040438876e-05,7.512111187679693e-05,-4.731459284812445e-06,-9.093819244299084e-06,5.939872789895162e-05
-5.696090011042543e-05,4.703645390691236e-05,-1.6672559866037773e-07,-8.51768345455639e-06,5.856142161064781e-05
-5.394997788243927e-05,2.049946124316193e-05,-1.6978741541606723e-06,-1.0956200640066527e-05,5.802125815534964e-05
-5.337463881005533e-05,7.071098480082583e-06,-7.267917226272402e-06,-1.3659408068633638e-05,5.565251558437012e-05
-5.23654161952436e-05,9.527004294795915e-06,-1.0174670023843646e-05,-1.2465799954952672e-05,5.390165460994467e-05
-4.538140638032928e-05,1.3682971257367171e-05,-6.545848464156734e-06,-6.116013992141234e-06,5.685225914930925e-05
-3.4094609873136505e-05,8.06518437457271e-06,1.338953211416083e-06,-4.67653876512486e-07,6.0874222981510684e-05
-2.762338590400759e-05,-1.9540395896910923e-06,7.5841403486265335e-06,1.716644760563213e-06,6.0656941059278324e-05
-2.702711572055705e-05,-1.156272628577426e-05,9.373482498631347e-06,6.959796223782178e-07,5.935367153142579e-05
-2.3876404156908393e-05,-3.09177121380344e-05,4.4520174924400635e-06,-1.6473788946314016e-06,5.959001646260731e-05
-1.4106874004937708e-05,-5.035237700212747e-05,-4.848247954214457e-06,-5.564763227994263e-07,6.289939483394846e-05
-4.892183014248985e-08,-3.6554418329615146e-05,-1.1059979442507029e-05,4.271007867373555e-07,6.828485493315384e-05
6.598354048037436e-06,1.4204333638190292e-06,-1.140254971687682e-05,-5.049694209446898e-06,7.021505007287487e-05
1.9241369955125265e-06,3.07088193949312e-05,-7.405638825730421e-06,-1.6885858713067137e-05,6.49434732622467e-05
-3.078849431403796e-06,4.043027001898736e-05,-5.2975601647631265e-06,-2.5821193048614077e-05,5.76162310608197e-05
8.27690413984783e-08,3.861837467411533e-05,-6.616608061449369e-06,-2.620172563183587e-05,5.419560693553649e-05
6.277718512137653e-06,2.81841912510572e-05,-4.350574272393715e-06,-2.4888277039281093e-05,5.687375960405916e-05
1.0595535059110261e-05,1.3074258276901674e-05,-3.3251515674237453e-07,-2.5840676244115457e-05,6.178346666274592e-05
1.0548589671088848e-05,7.1528279477206524e-06,6.5360286498616915e-06,-2.7493375455378555e-05,6.283786933636293e-05
1.1726669981726445e-05,8.646900823805481e-06,1.0413170457468368e-05,-2.6266370696248487e-05,6.298152584349737e-05
1.5777921362314373e-05,2.032563315879088e-05,1.1886204447364435e-05,-2.3086478904588148e-05,6.18400881648995e-05
1.9583396351663396e-05,4.087485285708681e-05,1.2340779903752264e-05,-2.1465681129484437e-05,5.959831833024509e-05
1.4191794434736948e-05,5.450163735076785e-05,1.0997499884979334e-05,-2.334435521333944e-05,5.543808947550133e-05
-5.697782853530953e-06,5.9351001254981384e-05,1.1918605196115095e-05,-2.3208998754853383e-05,5.1649953093146905e-05
-2.6342924684286118e-05,6.253711762838066e-05,1.5130347492231522e-05,-2.2651740437140688e-05,5.004031118005514e-05
-3.513791671139188e-05,6.283783295657486e-05,1.7669892258709297e-05,-2.349692840653006e-05,5.091453203931451e-05
-3.2377625757362694e-05,6.0820970247732475e-05,1.7764628864824772e-05,-2.368467175983824e-05,5.6747288908809423e-05
-2.8105505407438613e-05,5.8875342801911756e-05,1.7248225049115717e-05,-2.1284513422870077e-05,6.281280366238207e-05
-2.7729824068956077e-05,5.606368722510524e-05,1.507030628999928e-05,-1.719722058624029e-05,6.382040010066703e-05
-2.9158452889532782e-05,5.3859344916418195e-05,1.2237298506079242e-05,-1.4262617696658708e-05,6.223507079994306e-05
-2.8716178348986432e-05,5.2069106459384784e-05,1.225664254889125e-05,-1.0403857231722213e-05,6.132919224910438e-05
-2.7472919100546278e-05,5.145434261066839e-05,1.2676795449806377e-05,-5.09880374011118e-06,6.210419815033674e-05
-2.9469269065884873e-05,5.5208067351486534e-05,6.458314146584598e-06,-1.5677097735533607e-06,6.256806955207139e-05
-3.776639641728252e-05,6.38705023447983e-05,-7.563990038761403e-07,-1.9908641206711764e-06,6.117983866715804e-05
-4.4855511077912524e-05,6.903456232976168e-05,-2.3456118469766807e-06,-4.858241936744889e-06,6.0912450862815604e-05
-4.075342803844251e-05,6.039563595550135e-05,-8.837441782816313e-07,-1.0535158253333066e-05,6.276291242102161e-05
-2.869956733775325e-05,4.176066067884676e-05,3.1254076020559296e-06,-1.6583291653660126e-05,6.617401959374547e-05
-2.6132016500923783e-05,3.17546036967542e-05,7.868023203627672e-06,-2.087484608637169e-05,6.725452112732455e-05
-3.0288649213616736e-05,3.764213033718988e-05,9.975881766877137e-06,-2.2529888155986555e-05,6.571586709469557e-05
-3.2646443287376314e-05,4.0045746573014185e-05,1.17068457257119e-05,-2.4643200958962552e-05,6.524805212393403e-05
-3.13870950776618e-05,3.289106098236516e-05,1.064268326445017e-05,-2.5010314857354388e-05,6.448784552048892e-05
-2.8250271498109214e-05,4.1118044464383274e-05,7.989307050593197e-06,-2.2764032109989785e-05,6.547237717313692e-05
-2.9309472665772773e-05,5.939638504059985e-05,9.723258699523285e-06,-1.5433492080774158e-05,6.501079769805074e-05
-4.036656901007518e-05,6.268010474741459e-05,1.2824261830246542e-05,-5.844080533279339e-06,6.14862292422913e-05
-6.099696838646196e-05,6.085135828470811e-05,1.4011759958520997e-05,-3.893694611178944e-06,6.28823836450465e-05
-7.7155462349765e-05,7.594795897603035e-05,1.411777611792786e-05,-7.236909823404858e-06,6.519043381558731e-05
-8.10732162790373e-05,9.342419070890173e-05,1.4046298019820824e-05,-1.0801242751767859e-05,6.679601938230917e-05
-7.363464828813449e-05,9.090083767659962e-05,1.5452405932592228e-05,-1.3305807442520745e-05,6.413985829567537e-05
-6.583598587894812e-05,5.184880137676373e-05,1.2491824236349203e-05,-1.9620829334598966e-05,6.020123328198679e-05
-6.18751291767694e-05,-8.326303941430524e-06,5.416950443759561e-06,-2.7905694878427312e-05,5.623752804240212e-05
-5.8162004279438406e-05,-3.5932771424995735e-05,4.720445190287137e-07,-2.814772233250551e-05,5.422722460934892e-05
-5.346697071217932e-05,-2.9435770557029173e-05,5.20809237514186e-07,-2.1325678972061723e-05,5.589998545474373e-05
-4.986400017514825e-05,-1.9011118638445623e-05,2.043613676505629e-06,-1.580750904395245e-05,5.822850653203204e-05
-4.677910328609869e-05,-1.30559583340073e-05,4.38509596278891e-06,-1.5196555068541784e-05,6.167042010929435e-05
-4.277678090147674e-05,-7.658856702619232e-06,7.765755071886815e-06,-1.5261955923051573e-05,6.363137072185054e-05
-3.725069836946204e-05,-9.09687423700234e-06,7.778862709528767e-06,-1.2744611012749374e-05,6.40557991573587e-05
-2.8560754799400456e-05,-1.2043768947478384e-05,5.676039563695667e-06,-9.994139873015229e-06,6.280186062213033e-05
-2.001959910558071e-05,-1.7253986470677773e-06,3.1545966976409545e-06,-8.848583092913032e-06,6.0167800256749615e-05
-1.1543957043613773e-05,1.6902089555514976e-05,1.1078635679950821e-06,-8.428050023212563e-06,5.873483314644545e-05
-3.4425088415446226e-06,2.0630151993827894e-05,-1.4165229345053376e-07,-1.082656945072813e-05,6.173039582790807e-05
1.7633267361816252e-06,-1.4771030691917986e-06,-1.0811529591592262e-06,-2.1019497580709867e-05,6.441702134907246e-05
5.476244496094296e-06,-3.446152913966216e-05,-5.282224265101831e-06,-3.5782963095698506e-05,6.404436862794682e-05
6.571827270818176e-06,-6.407310138456523e-05,-1.228185101354029e-05,-4.6981480409158394e-05,6.210786523297429e-05
7.612959052494261e-06,-9.067043720278889e-05,-1.7758547983248718e-05,-4.74953449156601e-05,6.0890492022736e-05
2.0096231310162693e-05,-0.00010931430733762681,-1.6554702597204596e-05,-3.654865577118471e-05,6.004592069075443e-05
3.579720942070708e-05,-0.00010019039473263547,-1.1043182894354686e-05,-2.5628716684877872e-05,6.070609379094094e-05
3.757856029551476e-05,-6.592337012989447e-05,-4.870243174082134e-06,-1.6993180906865746e-05,5.988034536130726e-05
2.690370638447348e-05,-2.189691258536186e-05,-4.872497356700478e-07,-1.5822981822566362e-06,5.705521471099928e-05
1.6927477190620266e-05,2.349966234760359e-05,3.665046733658528e-06,1.8762622858048417e-05,5.508554386324249e-05
1.3123813914717175e-05,6.540933827636763e-05,1.1696004548866767e-05,3.8886500988155603e-05,5.9332822274882346e-05
1.4984557310526725e-05,8.227062789956108e-05,1.9252443962614052e-05,4.9933129048440605e-05,6.785925506846979e-05
1.8810687834047712e-05,6.383458821801469e-05,2.3639444407308474e-05,5.1207385695306584e-05,7.475775055354461e-05
1.4106092748988885e-05,4.155745409661904e-05,2.4648337785038166e-05,4.8393168981419876e-05,7.52829946577549e-05
5.8127161537413485e-06,3.8690570363542065e-05,2.6397845431347378e-05,4.417052696226165e-05,6.636776379309595e-05
1.96205132851901e-06,5.147505726199597e-05,2.887732262024656e-05,4.2946008761646226e-05,5.5520191381219774e-05
4.908226856059628e-07,5.54592625121586e-05,2.7242229407420382e-05,3.9322640077443793e-05,5.142573718330823e-05
-4.583880127029261e-06,3.0265480745583773e-05,1.946715019585099e-05,2.9424563763313927e-05,5.2085040806559846e-05
-1.957136373675894e-05,-6.880749424453825e-06,8.099397746264003e-06,1.595606045157183e-05,5.2633688028436154e-05
-3.21467850881163e-05,-9.090510502574034e-06,1.009065954349353e-06,3.5002135518880095e-06,5.77362188778352e-05
-3.196963371010497e-05,3.568466127035208e-05,-1.5830531765459455e-06,-4.166499365965137e-06,6.883910100441426e-05
-3.067422949243337e-05,8.9416338596493e-05,-7.341174068642431e-07,-4.681791324401274e-06,8.040339889703318e-05
-4.130559682380408e-05,0.00011421590897953138,8.4929814647694e-07,-4.010288193967426e-06,8.386171975871548e-05
-6.059080988052301e-05,0.00010654870129656047,1.675270823398023e-06,-6.476474482042249e-06,7.92884748079814e-05
-7.552609895356e-05,8.162451558746397e-05,2.7498751933308085e-06,-6.936321369721554e-06,7.453739817719907e-05
-7.922017539385706e-05,4.949020512867719e-05,5.7302827372041065e-06,-2.969587512779981e-06,7.343123434111476e-05
-7.592708425363526e-05,2.039932951447554e-05,8.357663318747655e-06,7.195597504505713e-07,7.29292951291427e-05
-7.117421773727983e-05,9.610396773496177e-06,8.324281225213781e-06,-5.10649101670424e-07,7.037441537249833e-05
-6.225684774108231e-05,2.1344958440749906e-05,8.597829037171323e-06,-5.536664957617177e-06,6.761145778000355e-05
-5.014751150156371e-05,3.4265471185790375e-05,1.141301527241012e-05,-7.5699376793636475e-06,6.566555384779349e-05
-4.116634954698384e-05,3.617658148868941e-05,1.669282755756285e-05,4.266920683448916e-08,6.410388596123084e-05
-3.674990148283541e-05,3.326845762785524e-05,1.8343898773309775e-05,9.348799721919931e-06,6.4127154473681e-05
-3.3344531402690336e-05,3.537063457770273e-05,1.6715996025595814e-05,1.0488217412785161e-05,6.408295303117484e-05
-2.6951893232762814e-05,4.9311918701278046e-05,1.7938995370059274e-05,7.826743967598304e-06,6.345865404000506e-05
-2.1788458980154246e-05,7.058706978568807e-05,1.985611925192643e-05,8.877847903931979e-06,5.8760862884810194e-05
-1.4950095646781847e-05,9.075587877305225e-05,2.0332057829364203e-05,8.074077413766645e-06,4.8876881919568405e-05
-2.812128741425113e-06,9.91732522379607e-05,1.867022911028471e-05,1.8920850379799958e-06,4.145939237787388e-05
2.842938556568697e-06,9.814280201680958e-05,1.163694560091244e-05,-1.0398605809314176e-05,3.65263331332244e-05
1.6243292293438572e-06,9.092082473216578e-05,2.273372729177936e-06,-3.0846022127661854e-05,3.442008892307058e-05
1.4900765563652385e-06,6.052632670616731e-05,-5.824493200634606e-06,-5.7051831390708685e-05,3.7745863664895296e-05
7.909037776698824e-06,1.4939536413294263e-05,-8.981132850749418e-06,-7.338551222346723e-05,3.945540083805099e-05
1.3121190931997262e-05,-1.3652320376422722e-05,-8.936118319979869e-06,-6.60964724374935e-05,3.8657482946291566e-05
8.922479537432082e-06,-1.1162282135046553e-05,-6.149825821921695e-06,-5.087269164505415e-05,4.016062666778453e-05
-1.5855280253163073e-06,-2.5164704311464448e-06,-1.0694573120417772e-06,-4.541689486359246e-05,4.42901837232057e-05
-1.3560517800215166e-05,-6.798737103963504e-06,1.4718565353177837e-06,-4.4857173634227365e-05,4.682837243308313e-05
-2.786570621537976e-05,-1.3446232514979783e-05,1.8896849951488548e-07,-3.8220543501665816e-05,4.694617018685676e-05
-4.024358349852264e-05,-6.862058398837689e-06,-1.5482549997614115e-06,-2.7970861992798746e-05,4.7018256736919284e-05
-4.217965397401713e-05,7.062095846777083e-06,-1.8398382053419482e-06,-2.2837610231363215e-05,4.731940134661272e-05
-3.550135807017796e-05,1.5737165085738525e-05,-5.019853688281728e-07,-2.1896792532061227e-05,4.943961539538577e-05
-2.785677497740835e-05,2.228451194241643e-05,1.6976661072476418e-06,-1.9361405065865256e-05,5.280611730995588e-05
-2.5375691620865837e-05,3.022372766281478e-05,2.274613052577479e-06,-1.722718843666371e-05,5.381959635997191e-05
-3.128287062281743e-05,3.597418253775686e-05,1.4973981024013483e-06,-1.9820761735900305e-05,5.265893923933618e-05
-4.7270223149098456e-05,3.619830749812536e-05,2.046577719738707e-06,-2.4959954316727817e-05,5.1667990192072466e-05
-6.67634594719857e-05,3.2665968319633976e-05,5.956189397693379e-06,-2.7713680537999608e-05,5.201046587899327e-05
-7.849213579902425e-05,2.6296547730453312e-05,1.1201332199561875e-05,-2.631554707477335e-05,5.271346162771806e-05
-7.486482354579493e-05,2.237566513940692e-05,1.3771539670415223e-05,-2.1129249944351614e-05,5.389866782934405e-05
-6.170042615849525e-05,2.6303814593120478e-05,1.1115277629869524e-05,-1.466260710003553e-05,5.674574276781641e-05
-4.8426871217088774e-05,3.504392589093186e-05,6.1152177295298316e-06,-1.1784494745370466e-05,5.814938776893541e-05
-4.05471510021016e-05,4.1218791011488065e-05,-5.933729880780447e-07,-1.5557294318568893e-05,5.535182936000638e-05
-3.3589822123758495e-05,4.6531240514013916e-05,-9.169105396722443e-06,-2.1695315808756277e-05,4.976153650204651e-05
-2.462535849190317e-05,5.041299300501123e-05,-1.78886330104433e-05,-2.149274223484099e-05,4.764327240991406e-05
-2.1595962607534602e-05,5.154638711246662e-05,-2.0819225028390065e-05,-1.9610144590842538e-05,5.143661837792024e-05
-2.1149389795027673e-05,4.747912680613808e-05,-1.588921804795973e-05,-2.255321123811882e-05,5.3686206229031086e-05
-1.5830381016712636e-05,4.298738713259809e-05,-1.0905551789619494e-05,-2.582952583907172e-05,5.28434720763471e-05
-7.253400326590054e-06,4.143582918914035e-05,-8.580456778872758e-06,-2.502995812392328e-05,5.666609649779275e-05
-5.855087238160195e-06,3.896269845427014e-05,-6.585548362636473e-06,-1.9085518943029456e-05,6.027283598086797e-05
-1.4658432519354392e-05,2.8483420464908704e-05,-5.8502419051364996e-06,-1.2536689609987661e-05,5.688373857992701e-05
-1.9930044800275937e-05,1.563439036544878e-05,-3.620963525463594e-06,-1.0832179214048665e-05,5.024475831305608e-05
-1.9694141883519478e-05,1.728879942675121e-05,4.925435632685549e-07,-1.5299045116989873e-05,4.789547165273689e-05
-2.1382857084972784e-05,3.292916153441183e-05,-9.8146788474196e-09,-1.9042156054638326e-05,5.132777368999086e-05
-3.116998414043337e-05,4.928541966364719e-05,-2.144643076462671e-06,-1.8545995772001334e-05,5.585352482739836e-05
-4.4483029341790825e-05,6.005123577779159e-05,-9.528858981866506e-07,-1.6218877135543153e-05,5.4733238357584924e-05
-5.286182204145007e-05,6.485827179858461e-05,2.7991864044452086e-06,-1.4322760762297548e-05,5.1476054068189114e-05
-5.456787403090857e-05,6.093011688790284e-05,4.522007657214999e-06,-1.4297719644673634e-05,5.125470852362923e-05
-5.336263347999193e-05,4.9048943765228614e-05,6.453233254433144e-06,-1.555775452288799e-05,5.3915598982712254e-05
-5.096409222460352e-05,3.506686698528938e-05,1.0507506885915063e-05,-1.6617939763818868e-05,5.8201585488859564e-05
-4.4226457248441875e-05,2.5957533580367453e-05,1.4407446542463731e-05,-1.6071742720669135e-05,5.9707817854359746e-05
-3.813641887973063e-05,2.159442738047801e-05,1.723245622997638e-05,-1.2985330613446422e-05,5.942727511865087e-05
-4.535232073976658e-05,1.9152195818605833e-05,1.721550870570354e-05,-7.748539246676955e-06,6.163752550492063e-05
-6.679768557660282e-05,1.6324758689734153e-05,1.4240556083677802e-05,-4.456316219147993e-06,6.351666525006294e-05
-8.496765804011375e-05,1.470056304242462e-05,1.067152334144339e-05,-6.1973869378562085e-06,6.276898056967184e-05
-8.624960173619911e-05,1.6453222997370176e-05,8.035332029976416e-06,-1.1795785212598275e-05,6.380841659847647e-05
-7.107685814844444e-05,2.2309270207188092e-05,7.654542969248723e-06,-1.42077751661418e-05,6.689666770398617e-05
-4.818723755306564e-05,2.832114478223957e-05,1.0658788596629165e-05,-9.857076292973943e-06,6.802455027354881e-05
-2.3603181034559384e-05,2.7774049158324488e-05,1.2252095984877087e-05,-2.1664859559678007e-06,6.593695434276015e-05
-2.769794264168013e-06,2.5907493181875907e-05,1.1783349691540934e-05,5.520523700397462e-06,6.774665234843269e-05
1.206503020512173e-05,3.417994957999326e-05,1.1110567356809042e-05,1.1310435183986556e-05,7.243378058774397e-05
2.2158710635267198e-05,4.863469075644389e-05,1.1527879905770533e-05,8.172637535608374e-06,7.671528874197975e-05
2.3087102817953564e-05,5.4941625421633944e-05,9.444350325793494e-06,-2.01699504032149e-06,7.607032603118569e-05
1.3949122148915194e-05,4.8795558541314676e-05,9.601406418369152e-06,-6.993483111727983e-06,7.106039993232116e-05
3.512217290335684e-06,4.151932807872072e-05,1.4614706742577255e-05,-5.9881813285755925e-06,6.814287917222828e-05
-1.0204247701040003e-05,3.781457053264603e-05,1.93307514564367e-05,-3.394517761989846e-06,6.684905383735895e-05
-1.891875763249118e-05,3.297743387520313e-05,2.122265323123429e-05,-1.110641051127459e-06,6.785375444451347e-05
-2.0427589333849028e-05,2.2760616047889926e-05,1.9758197595365345e-05,2.6178945518040564e-06,6.72752721584402e-05
-1.9165539924870245e-05,1.3692206266568974e-05,1.6893158317543566e-05,9.113683518080506e-06,6.659742939518765e-05
-5.077844207335147e-07,1.705129943729844e-05,1.0827609912666958e-05,1.428762698196806e-05,6.586404924746603e-05
2.576726365077775e-05,2.6700119633460417e-05,6.154787115519866e-06,1.376263753627427e-05,6.423251761589199e-05
4.090946094947867e-05,3.366332020959817e-05,6.85962186253164e-06,6.9332363636931404e-06,6.407427281374112e-05
4.4920281652593985e-05,3.084893978666514e-05,1.066605545929633e-05,-2.0770271476067137e-06,6.07690672040917e-05
4.332823300501332e-05,1.9818586224573664e-05,1.4279885363066569e-05,-6.877667601656867e-06,5.652209074469283e-05
3.3892327337525785e-05,1.5246921975631267e-05,1.7170206774608232e-05,-4.80059270557831e-06,5.314488589647226e-05
4.515394266491057e-06,2.449449493724387e-05,1.7841926819528453e-05,1.2273275160623598e-06,4.881307904724963e-05
-4.705940227722749e-05,3.5175300581613556e-05,1.5161873307079077e-05,3.1995550671126693e-06,4.609648749465123e-05
-9.030817454913631e-05,2.69307511189254e-05,1.1561585779418238e-05,2.649301222845679e-07,4.734091999125667e-05
-9.746475552674383e-05,1.45719718602777e-06,8.460786375508178e-06,-1.451302182431391e-06,4.948397690895945e-05
-7.9769866715651e-05,-2.2990860088611953e-05,4.828612418350531e-06,-1.102558371712803e-06,5.256457734503783e-05
-5.956596942269243e-05,-4.128448199480772e-05,-3.950739113633972e-08,4.80092353427608e-07,5.6174860219471157e-05
-4.7784054913790897e-05,-5.120765490573831e-05,-3.843025297101121e-06,1.8370905081610545e-06,5.98557417106349e-05
-4.977192293154076e-05,-4.0568022086517885e-05,-3.2530620046600234e-06,1.490387148805894e-06,6.358971586450934e-05
-6.288728764047846e-05,-1.2559703463921323e-05,6.765196758351522e-07,-1.15204636585986e-06,6.740901881130412e-05
-7.643344724783674e-05,1.154247274826048e-05,5.494653123605531e-06,-2.816415872075595e-06,7.549832662334666e-05
-8.280359179480001e-05,1.4330960766528733e-05,1.0006495358538814e-05,-3.2030459351517493e-06,8.203157631214708e-05
-7.887919491622597e-05,-8.102081210381584e-07,8.766807695792522e-06,-4.60954470327124e-06,7.774267578497529e-05
-6.950346141820773e-05,-1.2345640243438538e-05,2.117249778166297e-06,-4.555451596388593e-06,6.742421828676015e-05
-5.780152787338011e-05,-8.965162123786286e-06,-2.0970619516447186e-06,-2.59409102909558e-06,6.020077125867829e-05
-4.8336056352127343e-05,3.6350115806271788e-06,2.388482300830219e-07,-2.7673020213114796e-06,5.718009197153151e-05
-4.4271826482145116e-05,1.680815694271587e-05,5.6347839745285455e-06,-8.402555977227166e-06,5.4684074711985886e-05
-4.64955264760647e-05,2.7749931177822873e-05,6.111814855103148e-06,-1.7922899132827297e-05,5.24623210367281e-05
-4.9508198571857065e-05,4.3776657548733056e-05,3.2527645998925436e-06,-2.2982971131568775e-05,5.5292388424277306e-05
-4.907668335363269e-05,7.008606917224824e-05,2.5052245291590225e-06,-1.9452527340035886e-05,6.154259608592838e-05
-5.225241693551652e-05,9.071559179574251e-05,1.0758870985227986e-06,-1.5935789633658715e-05,6.308748561423272e-05
-5.622383832815103e-05,9.580319601809606e-05,-2.941195134553709e-06,-1.851168963185046e-05,5.7127825130010024e-05
-5.53547652089037e-05,9.052205859916285e-05,-9.328352462034672e-06,-2.63515848928364e-05,5.0026370445266366e-05
-4.4977412471780553e-05,8.520729898009449e-05,-1.716633778414689e-05,-3.1897689041215926e-05,4.699095370597206e-05
-3.154126170556992e-05,8.824560063658282e-05,-2.1220661437837407e-05,-3.1786836188985035e-05,4.77392713946756e-05
-2.172910717490595e-05,9.155799489235505e-05,-1.6539857824682258e-05,-3.295570058980957e-05,5.007983054383658e-05
-1.761871317285113e-05,8.376365440199152e-05,-8.595246072218288e-06,-3.523481063893996e-05,5.2172192226862535e-05
-1.5503455870202743e-05,6.978019519010559e-05,-4.816065484192222e-06,-3.554577415343374e-05,5.4366722906706855e-05
-8.369941497221589e-06,5.8075842389371246e-05,-5.20415687788045e-06,-3.462757740635425e-05,5.693563070963137e-05
9.598309134162264e-07,4.122763857594691e-05,-4.806558990821941e-06,-3.224980173399672e-05,5.813439202029258e-05
6.425736955861794e-06,1.3696666428586468e-05,-3.839110831904691e-06,-2.7068444978795014e-05,5.822666935273446e-05
6.689659130643122e-06,-1.2799187970813364e-05,-3.6416495277080685e-06,-1.9268050891696475e-05,5.893702109460719e-05
4.168825853412272e-06,-1.9338242054800503e-05,-1.2881213251603185e-06,-1.1916479706997052e-05,6.389255577232689e-05
-1.4682323126180563e-06,-1.1486932635307312e-05,4.503772288444452e-06,-7.608966825500829e-06,7.057473703753203e-05
-8.08331424195785e-06,-1.1035786883439869e-05,1.2855080058216117e-05,-5.614955171040492e-06,7.528640708187595e-05
-9.627144208934624e-06,-2.0875711925327778e-05,2.1177645976422355e-05,-2.2251974769460503e-06,7.536729390267283e-05
-7.005316433605913e-07,-2.762837721093092e-05,2.6070700187119655e-05,3.5130522064719116e-06,6.87439096509479e-05
1.255849110748386e-05,-2.6470559532754123e-05,2.463859345880337e-05,7.778759027132764e-06,5.9326117479940876e-05
2.3023128960630856e-05,-1.9866212824126706e-05,2.1622896383632906e-05,8.75834757607663e-06,5.4635715059703216e-05
2.975227835122496e-05,-1.0810257663251832e-05,2.2876965886098333e-05,7.808013833709992e-06,5.465855065267533e-05
2.912008494604379e-05,-8.464189704682212e-06,2.3140171833802015e-05,1.5495572824875126e-06,5.573153976001777e-05
1.8022581571131013e-05,-1.2429640264599584e-05,1.7048056179191917e-05,-7.331466804316733e-06,5.496897574630566e-05
5.430080818769056e-06,-1.148678256868152e-05,8.449626875517424e-06,-8.68095230543986e-06,4.920105493511073e-05
-2.2838084134946257e-07,7.65510594646912e-06,4.230533249938162e-06,7.556753303106234e-07,4.3062067561550066e-05
-1.3702749129151925e-05,4.48030696134083e-05,6.131682312116027e-06,1.3309583664522506e-05,4.8351503210142255e-05
-4.769004954141565e-05,7.200130494311452e-05,1.050703303917544e-05,1.4411526535695884e-05,5.7006749557331204e-05
-8.110845374176279e-05,8.35733299027197e-05,1.2827638784074225e-05,6.623053650400834e-06,5.5682019592495635e-05
-8.813956083031371e-05,8.468078158330172e-05,1.3292216863192152e-05,2.502329721210117e-07,5.3881511121289805e-05
-7.45354118407704e-05,7.07923318259418e-05,1.5874384189373814e-05,-3.0613864510087296e-06,5.6534972827648744e-05
-6.466828926932067e-05,4.8860631068237126e-05,1.7574588127899915e-05,-6.8585131884901784e-06,5.983995652059093e-05
-6.472264067269862e-05,3.5456392652122304e-05,1.6084875824162737e-05,-1.0573219697107561e-05,6.009424396324903e-05
-6.349467003019527e-05,4.9099227908300236e-05,1.332465762970969e-05,-6.298583230091026e-06,6.24135573161766e-05
-5.174068428459577e-05,8.001572132343426e-05,1.5335872376454063e-05,3.7972752124915132e-06,6.537562148878351e-05
-3.307417136966251e-05,0.00010189649037783965,1.937873639690224e-05,8.879052074917126e-06,6.452850357163697e-05
-1.549115768284537e-05,0.00010217677481705323,2.1152292902115732e-05,7.2733155320747755e-06,6.008948912494816e-05
-1.57080398821563e-06,7.549751171609387e-05,1.9409939341130666e-05,4.299106876715086e-06,5.9857302403543144e-05
1.3190132449381053e-05,2.3628896087757312e-05,1.4582550647901371e-05,1.1963244617163582e-07,6.521203613374382e-05
2.771419531200081e-05,-1.8235981769976206e-05,9.372710337629542e-06,-4.203290245641256e-06,7.11983084329404e-05
3.201007712050341e-05,-2.3216591216623783e-05,6.816102086304454e-06,-5.154384780325927e-06,7.465296221198514e-05
2.6854333555093035e-05,2.6128363970201463e-06,6.608063813473564e-06,-5.1547385737649165e-06,7.517812628066167e-05
2.2100577552919276e-05,4.201330739306286e-05,5.826777396578109e-06,-9.970256542146672e-06,7.308589556487277e-05
2.2789577997173183e-05,7.128871948225424e-05,7.270618880284019e-06,-1.7078751625376754e-05,6.845372990937904e-05
2.2212831026990898e-05,6.0566901083802804e-05,1.0167778782488313e-05,-2.2471120246336795e-05,6.292773468885571e-05
1.5425513993250206e-05,1.3829869203618728e-05,8.982101462606806e-06,-2.498146568541415e-05,5.74197547393851e-05
3.7852171317354077e-06,-2.3491889805882238e-05,1.156466737484152e-06,-2.4659744667587802e-05,5.452689219964668e-05
-1.1526029993547127e-05,-3.296442810096778e-05,-8.672913281770889e-06,-2.5375728000653908e-05,5.174465331947431e-05
-2.784879325190559e-05,-3.1360890716314316e-05,-1.2840978342865128e-05,-2.8785891117877327e-05,4.618583989213221e-05
-3.9087895856937394e-05,-2.8088361432310194e-05,-1.1387982340238523e-05,-3.0084323952905834e-05,3.838969860225916e-05
-4.5837143261451274e-05,-1.8663917217054404e-05,-8.73217959451722e-06,-2.487849815224763e-05,3.5810757253784686e-05
-4.9242906243307516e-05,-2.402810878265882e-06,-2.80401445706957e-06,-1.6703002984286286e-05,3.8817488530185074e-05
-4.742520832223818e-05,-4.684164650825551e-06,9.137177698903542e-07,-9.005615538626444e-06,4.541169619187713e-05
-4.193795030005276e-05,-4.7981186071410775e-05,-3.3422704746044474e-06,-1.0361695785832126e-05,5.173580575501546e-05
-3.3501895813969895e-05,-9.402879368280992e-05,-9.545703505864367e-06,-1.7771164493751712e-05,5.134404273121618e-05
-1.9990900909760967e-05,-8.813491876935586e-05,-1.2152056115155574e-05,-2.007691546168644e-05,4.5157765271142125e-05
-1.0191741239395924e-05,-4.3853313400177285e-05,-1.1736397937056608e-05,-1.887069083750248e-05,4.468706174520776e-05
-9.89153704722412e-06,-8.961279490904417e-06,-7.975771040946711e-06,-1.551778223074507e-05,4.893678124062717e-05
-1.0532337000768166e-05,8.931664524425287e-06,-3.858720447169617e-06,-1.3397764632827602e-05,5.275174407870509e-05
-9.028284694068134e-06,2.1732017557951622e-05,-6.372580401148298e-07,-1.2460081052267924e-05,5.511089329957031e-05
-7.760344487905968e-06,3.487889625830576e-05,-4.2136623079613855e-08,-1.2457167031243443e-05,5.6291944929398596e-05
-1.2153691386629362e-05,4.326458292780444e-05,-5.603728823189158e-07,-1.2789646461897064e-05,5.761599459219724e-05
-2.076821147056762e-05,5.1072849601041526e-05,-2.477052930771606e-06,-1.4556379937857855e-05,5.816811608383432e-05
-2.4648454200359993e-05,6.654978642472997e-05,-3.077430847042706e-06,-1.601262374606449e-05,6.0055961512262e-05
-2.3745325961499475e-05,8.263159543275833e-05,-9.804716682992876e-07,-1.4294745596998837e-05,6.199104245752096e-05
-2.2325086320051923e-05,9.024171595228836e-05,-1.388373448207858e-06,-1.0389844646851998e-05,6.346679583657533e-05
-2.4790302632027306e-05,8.957523823482916e-05,-5.040600626671221e-06,-6.861045221739914e-06,6.152267451398075e-05
-3.3539705327712e-05,8.793763117864728e-05,-7.510622253903421e-06,-7.94447805674281e-06,5.853376933373511e-05
-4.531908416538499e-05,8.915243233786896e-05,-5.494336619449314e-06,-1.3654379472427536e-05,6.006427793181501e-05
-5.021705146646127e-05,8.519605762558058e-05,-7.567616080450534e-07,-1.734212855808437e-05,6.526474317070097e-05
-4.0645627450430766e-05,6.614634912693873e-05,3.4239026263094274e-06,-1.3867599591321778e-05,6.977910379646346e-05
-2.3062448235577904e-05,4.3745149014284834e-05,9.257733495360299e-07,-1.1124192496936303e-05,7.140323577914387e-05
-1.1024625564459711e-05,3.196967372787185e-05,-3.2449938771605957e-06,-1.4457427823799662e-05,7.241431740112603e-05
-8.850724952935707e-06,2.549504097260069e-05,-8.757758109823044e-07,-1.8410568372928537e-05,7.547517452621832e-05
-1.595574212842621e-05,1.9589777366491035e-05,4.722962330561131e-06,-1.7815606042859145e-05,7.836009172024205e-05
-2.8906728402944282e-05,1.8993909179698676e-05,5.392999810283072e-06,-1.4011203347763512e-05,7.63056959840469e-05
-3.693898906931281e-05,2.6774916477734223e-05,1.212296979247185e-06,-1.0279961315973196e-05,6.893862882861868e-05
-3.706660936586559e-05,3.936075518140569e-05,5.295242431202496e-07,-8.545168384443969e-06,5.936334127909504e-05
-3.46258602803573e-05,4.60604605905246e-05,5.465578396979254e-06,-7.953940439620055e-06,5.511071503860876e-05
-3.223546445951797e-05,4.3066571379313245e-05,9.938930816133507e-06,-5.55492397324997e-06,5.848786167916842e-05
-3.105003634118475e-05,3.866588667733595e-05,1.1349092346790712e-05,-1.2838562497563544e-06,6.174434383865446e-05
-3.164794179610908e-05,3.703404945554212e-05,9.505890375294257e-06,-3.5683949590747943e-06,6.333912460831925e-05
-3.7331690691644326e-05,3.718469088198617e-05,6.6108718783652876e-06,-9.14004249352729e-06,6.115434371167794e-05
-4.740087388199754e-05,3.8274945836747065e-05,4.384896783449221e-06,-1.3649571883433964e-05,5.3770956583321095e-05
-5.234398122411221e-05,4.219260154059157e-05,3.5881307667295914e-06,-1.7143287550425157e-05,4.9593872972764075e-05
-5.394138861447573e-05,5.1541286666179076e-05,3.2559973988099955e-06,-1.7335714801447466e-05,5.4023061238694936e-05
-5.1455011998768896e-05,6.125609070295468e-05,4.5282545215741266e-06,-1.6878839232958853e-05,5.802520172437653e-05
-4.234439620631747e-05,6.503010081360117e-05,2.3901727672637207e-06,-1.8806627849698998e-05,5.643587792292237e-05
-3.226592525606975e-05,5.5089829402277246e-05,5.109315566187433e-07,-2.0483210391830653e-05,5.13422091898974e-05
-3.1025025236885995e-05,2.579067222541198e-05,1.1562799500097753e-06,-1.8190175978816114e-05,4.7430701670236886e-05
-3.4215259802294895e-05,2.834442227594991e-07,5.837287631038635e-07,-1.5604768123012036e-05,4.913912562187761e-05
-3.5159187973476946e-05,2.867590183086577e-06,-1.554300865791447e-06,-1.5855872334213927e-05,5.1977851398987696e-05
-3.533862764015794e-05,2.4486018446623348e-05,-3.400368996153702e-06,-2.088001201627776e-05,5.1396407798165455e-05
-3.363776340847835e-05,4.258676926838234e-05,-1.3884100553696044e-06,-2.847157884389162e-05,4.8701142077334225e-05
-3.055435081478208e-05,4.5896711526438594e-05,3.4102693007298512e-06,-3.387593824299984e-05,4.866307062911801e-05
-2.9996263037901372e-05,4.002232162747532e-05,6.055464382370701e-06,-3.5902710806112736e-05,5.1021786930505186e-05
-3.4183187381131575e-05,3.203815867891535e-05,4.933932814310538e-06,-3.477555947029032e-05,5.2424999012146145e-05
-4.039465784444474e-05,2.6272029572282918e-05,7.056693448248552e-06,-2.8184544135001488e-05,5.4174310207599774e-05
-5.019405216444284e-05,2.8460774046834558e-05,1.28853889691527e-05,-1.8275259208166972e-05,5.861833778908476e-05
-5.5456755944760516e-05,4.093559618922882e-05,1.8875947716878727e-05,-9.50066987570608e-06,6.284741539275274e-05
-4.90394959342666e-05,5.4080592235550284e-05,2.0904217308270745e-05,-4.503761829255382e-06,6.318916712189093e-05
-3.583698708098382e-05,5.345847239368595e-05,2.0333449356257915e-05,-2.7393086838856107e-06,5.8544104831526056e-05
-2.6298268494429067e-05,3.7258276279317215e-05,1.959928522410337e-05,-8.274149081444193e-07,5.546197644434869e-05
-2.2935020751901902e-05,3.916112473234534e-05,1.4420943443838041e-05,1.915989514600369e-06,5.8024481404572725e-05
-2.2242142222239636e-05,6.777399539714679e-05,3.44918930750282e-06,5.495492587215267e-06,6.110023241490126e-05
-2.425975071673747e-05,8.531250932719558e-05,-5.4573683883063495e-06,7.757004823361058e-06,6.203337397892028e-05
-2.328479604329914e-05,7.80955160735175e-05,-7.399041805911111e-06,-2.069318497888162e-06,5.928964674239978e-05
-1.967225398402661e-05,5.448786760098301e-05,-4.8247602535411716e-06,-1.8618116882862523e-05,5.718624743167311e-05
-1.9155611880705692e-05,2.596092781459447e-05,-4.1623778201937967e-07,-2.5625009584473446e-05,5.816093471366912e-05
-2.06745789910201e-05,1.4016618479217868e-05,2.463340706526651e-06,-1.906462784972973e-05,5.796623008791357e-05
-2.8420383387128823e-05,1.5360157703980803e-05,8.632287062937394e-07,-9.046095328812953e-06,5.5709664593450725e-05
-4.8624013288645074e-05,9.570485417498276e-06,-9.024795417644782e-07,-9.450207471672911e-06,4.596430517267436e-05
-7.315004768315703e-05,-7.788127049934701e-07,-2.776404699034174e-06,-1.3130830666341353e-05,3.6878191167488694e-05
-7.90693738963455e-05,-1.1428955076553393e-05,-1.8933856154035311e-06,-4.313049885240616e-06,3.793508221860975e-05
-6.522588228108361e-05,-1.4711935364175588e-05,4.980242010788061e-06,1.6902407878660597e-05,4.628052920452319e-05
-4.73995205538813e-05,-5.315195267030504e-06,1.5949466614983976e-05,3.582047429517843e-05,5.774507008027285e-05
-3.058289803448133e-05,1.7324360669590533e-05,2.2560156139661558e-05,4.573915430228226e-05,6.43711318843998e-05
-1.4361316971189808e-05,4.158994124736637e-05,2.5854455088847317e-05,4.609874667949043e-05,6.268855213420466e-05
-3.3562105272721965e-06,5.4625685152132064e-05,3.01663330901647e-05,4.427475141710602e-05,5.845253690495156e-05
-1.9497376797517063e-06,5.203618638915941e-05,3.2375548471463844e-05,4.6590372221544385e-05,5.795487231807783e-05
-5.481947937369114e-06,3.986638694186695e-05,3.032819222426042e-05,5.1893151976400986e-05,5.9643498389050364e-05
-1.2031389815092552e-05,2.5276704036514275e-05,2.629102709761355e-05,5.78763683733996e-05,6.064347326173447e-05
-2.0875002519460395e-05,6.587431926163845e-06,2.177050191676244e-05,6.257847417145967e-05,6.0768059483962134e-05
-3.128064054180868e-05,-1.5625524611095898e-05,1.6679421605658717e-05,6.416739779524505e-05,5.87206995987799e-05
-4.352479299996048e-05,-3.272106187068857e-05,1.5898520359769464e-05,5.9938149206573144e-05,5.438443986349739e-05
-5.801895531476475e-05,-3.086911601712927e-05,1.698796586424578e-05,4.996655115974136e-05,4.981056918040849e-05
-6.738637603120878e-05,-1.4357384316099342e-05,1.2838596376241185e-05,3.0883646104484797e-05,4.8469999455846846e-05
-6.501850293716416e-05,3.2738309982960345e-06,7.2570742304378655e-06,-2.4258062580884143e-07,5.1621984312077984e-05
-5.6923301599454135e-05,1.4227156498236582e-05,8.8659062384977e-06,-4.045026798848994e-05,5.71147320442833e-05
-4.672595241572708e-05,2.0077719455002807e-05,1.3509911696019117e-05,-6.170263077365234e-05,6.505628698505461e-05
-2.70814161922317e-05,2.6570074624032713e-05,1.556923598400317e-05,-4.963414539815858e-05,6.885696348035708e-05
3.3181045182573143e-06,4.239937334205024e-05,1.4533568901242688e-05,-3.11234180117026e-05,6.86750136082992e-05
3.2700980227673426e-05,6.93418551236391e-05,1.68416208907729e-05,-2.414103437331505e-05,7.143605034798384e-05
5.0250531785422936e-05,9.837372635956854e-05,2.0808400222449563e-05,-2.8490510885603726e-05,7.706361793680117e-05
5.00244896102231e-05,0.00010622360423440114,2.2262462152866647e-05,-3.396971806068905e-05,8.044599235290661e-05
3.8397898606490344e-05,9.470615623285994e-05,2.1771380488644354e-05,-3.720689346664585e-05,8.029531454667449e-05
2.31978756346507e-05,7.150119927246124e-05,1.8047932826448232e-05,-3.368782199686393e-05,7.815996650606394e-05
-9.094436791201588e-06,2.6209663701592945e-05,7.720822395640425e-06,-2.5166995328618214e-05,7.194202771643177e-05
-5.308018808136694e-05,-2.7846717784996144e-05,-3.01705404126551e-06,-2.1538327928283252e-05,6.505566125269979e-05
-7.246592576848343e-05,-6.65662155370228e-05,-1.0915447091974784e-05,-2.1100348021718673e-05,6.0410911828512326e-05
-5.8703106333268806e-05,-7.25047430023551e-05,-1.460048952139914e-05,-2.084240986732766e-05,5.6793571275193244e-05
-3.780653059948236e-05,-4.488957711146213e-05,-1.4399540305021219e-05,-1.663753755565267e-05,5.709546894649975e-05
-2.8787542760255747e-05,-7.825410648365505e-07,-1.4917956832505297e-05,-1.4591936633223668e-05,5.9749097999883816e-05
-3.121169356745668e-05,3.477217614999972e-05,-1.8142833141610026e-05,-1.6569301806157455e-05,6.199689960340038e-05
-3.5338267480256036e-05,5.2962637710152194e-05,-2.044693064817693e-05,-2.0468241928028874e-05,6.489438965218142e-05
-3.735993959708139e-05,5.726353992940858e-05,-1.953355604200624e-05,-2.1454503439599648e-05,6.867957563372329e-05
-4.18794370489195e-05,5.581689765676856e-05,-1.8948534489027224e-05,-2.205246164521668e-05,7.269371417351067e-05
-4.69329024781473e-05,5.601049997494556e-05,-1.643299765419215e-05,-2.52423469646601e-05,7.1849295636639e-05
-4.269849159754813e-05,5.597672497970052e-05,-1.3156685781723354e-05,-2.8088750696042553e-05,6.509949162136763e-05
-2.907256748585496e-05,4.715977775049396e-05,-1.2130599316151347e-05,-2.6563775463728234e-05,5.704066279577091e-05
-1.7906922948895954e-05,3.1438859878107905e-05,-1.2693885764747392e-05,-2.119678902090527e-05,5.169091673451476e-05
-1.6718520782887936e-05,2.0184877939755097e-05,-1.1213806828891393e-05,-1.5902423911029473e-05,5.202918327995576e-05
-2.5375818950124085e-05,7.276305041159503e-06,-9.302849321102258e-06,-1.2817860806535464e-05,5.605929982266389e-05
-3.7253648770274594e-05,-1.3456983651849441e-05,-6.596238108613761e-06,-1.2140010767325293e-05,5.9221743867965415e-05
-4.4751246605301276e-05,-1.70958574017277e-05,-2.441523747620522e-06,-7.305316103156656e-06,5.9137859352631494e-05
-4.339940278441645e-05,9.121967195824254e-06,-1.3598446457763202e-06,2.284867832713644e-07,5.665276330546476e-05
-3.767852467717603e-05,4.207043457427062e-05,-3.7667425658582943e-06,3.6591707157640485e-06,5.368189886212349e-05
-3.334129723953083e-05,6.137972377473488e-05,-8.099478918666136e-07,6.600675533263711e-06,4.933120362693444e-05
-2.5671390176285058e-05,6.69010478304699e-05,6.110781214374583e-06,1.4125531379249878e-05,4.64972727058921e-05
-1.2275401786610018e-05,6.608115654671565e-05,8.786926628090441e-06,1.687837539066095e-05,5.117691762279719e-05
5.731199053116143e-06,5.805928594782017e-05,9.257048986910377e-06,6.947455858608009e-06,6.136868614703417e-05
