-1.0058257430500817e-05,3.3964264730457217e-05,6.828665846114745e-06,-1.1749268196581397e-05,6.213063898030668e-05
-1.864568912424147e-05,2.957987817353569e-05,5.230881924944697e-06,-1.0711933100537863e-05,5.7528799516148865e-05
-1.9732000509975478e-05,3.202598600182682e-05,3.6054632346349536e-06,-9.072939064935781e-06,5.5308362789219245e-05
-2.4207110982388258e-05,4.276109393686056e-05,1.9888800579792587e-06,-1.2269569197087549e-05,5.391930608311668e-05
-2.8638147341553122e-05,5.6193373893620446e-05,1.1156716936966404e-06,-1.2566336408781353e-05,5.5191416322486475e-05
-3.105868381680921e-05,6.134714203653857e-05,-8.637708219794149e-07,-9.52818663790822e-06,5.6550270528532565e-05
-3.228905188734643e-05,5.764748857473023e-05,-4.995622475689743e-06,-7.287957487278618e-06,6.008345008012839e-05
-3.0221897759474814e-05,3.604393350542523e-05,-9.925885024131276e-06,-8.830790648062248e-06,6.333662895485759e-05
-2.5655066565377638e-05,-1.204165300805471e-06,-1.1502124834805727e-05,-9.825816960074008e-06,6.265776755753905e-05
-2.3375161617877893e-05,-2.5404260668437928e-05,-6.71556927045458e-06,-9.071155545825604e-06,5.808738569612615e-05
-2.64708560280269e-05,-1.4287915291788522e-05,2.35370933410195e-07,-1.0048388503491879e-05,5.157868508831598e-05
-3.099356763414107e-05,1.9641189282992855e-05,6.806887995480793e-06,-1.1925516446353868e-05,5.005999264540151e-05
-3.1273852073354647e-05,4.6934856072766706e-05,1.2208721273054834e-05,-1.2317101209191605e-05,5.423278344096616e-05
-2.8376894988468848e-05,5.6736316764727235e-05,1.5134239220060408e-05,-1.0360762644268107e-05,5.878663432667963e-05
-2.8772428777301684e-05,5.716453233617358e-05,1.5321656974265352e-05,-8.107216672215145e-06,6.0218710132176057e-05
-3.431188451941125e-05,5.73101824556943e-05,1.2688105925917625e-05,-6.4949899751809426e-06,5.940334449405782e-05
-3.937534347642213e-05,5.084755321149714e-05,1.2152678209531587e-05,-6.256615506572416e-06,5.687710290658288e-05
-4.0053415432339534e-05,3.248859502491541e-05,1.6752643205109052e-05,-6.922831744304858e-06,5.57261701032985e-05
-3.605201709433459e-05,1.5426881873281673e-05,2.1778532754979096e-05,-7.357359663728857e-06,5.818948557134718e-05
-2.9505803468055092e-05,1.3249431503936648e-05,2.3654281903873198e-05,-7.493004886782728e-06,6.172539724502712e-05
-2.9193743102950975e-05,1.47718592415913e-05,2.467777994752396e-05,-7.906505743449088e-06,6.296090577961877e-05
-3.773174830712378e-05,8.785541467659641e-06,2.4275117539218627e-05,-9.317524927610066e-06,6.186085374793038e-05
-4.643682041205466e-05,-4.285891009203624e-06,2.0930503524141386e-05,-1.2325428542681038e-05,5.909827450523153e-05
-5.0699018174782395e-05,-1.7898115402203985e-05,1.8236261894344352e-05,-1.5737043213448487e-05,5.759768100688234e-05
-5.469559982884675e-05,-1.8889408238464966e-05,1.5990135580068454e-05,-2.049374597845599e-05,5.740031338064e-05
-5.7373676099814475e-05,-4.7280918806791306e-06,1.3115443834976759e-05,-2.3104144929675385e-05,5.8898462157230824e-05
-5.8056619309354573e-05,1.8096206986228935e-05,1.4622839444200508e-05,-2.383402897976339e-05,5.737305400543846e-05
-6.182357901707292e-05,4.1116778447758406e-05,1.7489919628133066e-05,-2.2116269974503666e-05,5.364780008676462e-05
-6.821602437412366e-05,5.9967969718854874e-05,1.7762527932063676e-05,-1.9353683455847204e-05,5.314876398188062e-05
-7.255504897329956e-05,8.127685578074306e-05,1.4562345313606784e-05,-1.559373595227953e-05,5.622147364192642e-05
-7.82400747993961e-05,9.96337621472776e-05,1.0366415153839625e-05,-1.0052441211882979e-05,5.896948277950287e-05
-8.780809002928436e-05,0.00010378058505011722,6.420475983759388e-06,-6.408472017938038e-06,6.194305751705542e-05
-8.639173756819218e-05,0.00010092021693708375,2.119384816978709e-06,-4.199871455057291e-06,6.673838652204722e-05
-6.269281584536657e-05,9.929481893777847e-05,-9.55348696152214e-07,-4.30370528192725e-06,6.924157059984282e-05
-2.965258499898482e-05,9.945766214514151e-05,4.553977532850695e-07,-7.3635114858916495e-06,6.728554581059143e-05
-7.292753139154229e-07,9.326811414211988e-05,4.858065494772745e-06,-8.851771781337447e-06,6.277712236624211e-05
2.2504813387058675e-05,6.569236575160176e-05,7.403079507639632e-06,-9.00558825378539e-06,6.006509647704661e-05
4.458376133698039e-05,7.761081178614404e-06,4.2072283576999325e-06,-1.0957278391288128e-05,6.21636863797903e-05
5.9703041188186035e-05,-5.4909502068767324e-05,-2.4725147795834346e-06,-1.1545213055796921e-05,6.690416194032878e-05
5.8950336097041145e-05,-7.70481929066591e-05,-7.530271886935225e-06,-8.376997357117943e-06,7.141591049730778e-05
4.7295881813624874e-05,-4.58623944723513e-05,-8.282632734335493e-06,-3.2562861633778084e-06,7.41291805752553e-05
3.551202098606154e-05,1.2928781870868988e-05,-7.844480023777578e-06,7.98647818101017e-07,7.289585482794791e-05
2.839462467818521e-05,5.178610808798112e-05,-7.571987225674093e-06,3.00377269013552e-06,6.873830716358498e-05
2.4042636141530238e-05,4.53308857686352e-05,-5.89093269809382e-06,1.1682290050885058e-06,6.590046541532502e-05
1.8272443412570283e-05,2.1579449821729213e-05,-4.5735187086393125e-06,-3.0274838991317665e-06,6.570342520717531e-05
1.0154532901651692e-05,2.1034984456491657e-05,-4.8687466005503666e-06,-4.580153927236097e-06,6.568703247467056e-05
-9.590850140739349e-07,4.238899418851361e-05,-5.849716217198875e-06,-2.498137746442808e-06,6.475408736150712e-05
-1.2767774933308829e-05,6.063782348064706e-05,-5.290435638016788e-06,3.1194494454211963e-07,6.441460573114455e-05
-2.1004723748774268e-05,6.978708552196622e-05,-2.754239858404617e-06,7.177749239417608e-07,6.541991751873866e-05
-2.7755855626310222e-05,8.173265814548358e-05,-1.4814581561495288e-07,-1.3893348977944697e-06,6.372307689161971e-05
-3.448127245064825e-05,9.600080375093967e-05,-1.0529300880079973e-06,-4.125028681301046e-06,5.9895941376453266e-05
-4.224671647534706e-05,0.00010058843326987699,-2.197687763327849e-06,-6.744933216396021e-06,5.502282510860823e-05
-4.672822979046032e-05,9.548864181851968e-05,-4.067069312441163e-06,-1.048317426466383e-05,5.340045754564926e-05
-4.910142524749972e-05,8.05465315352194e-05,-3.678306484289351e-06,-9.706844139145687e-06,5.677994340658188e-05
-5.4725129302823916e-05,5.422470349003561e-05,2.6546761091594817e-06,-3.933441803383175e-06,5.9329970099497586e-05
-5.7889810705091804e-05,1.36025491883629e-05,7.5509683483687695e-06,3.956883460887184e-07,6.004284296068363e-05
-5.646906720357947e-05,-1.9506756871123798e-05,6.111647508078022e-06,2.7734009222513123e-07,5.9046054957434535e-05
-5.668266749125905e-05,-1.7523590940982103e-05,6.601431437047722e-07,-4.824726602237206e-06,6.0376001783879474e-05
-6.384043808793649e-05,4.2025380935228895e-06,-6.7208543441665825e-06,-8.08264667284675e-06,6.291752652032301e-05
-7.28695813450031e-05,1.6153004253283143e-05,-1.2658068953896873e-05,-7.644858669664245e-06,6.0175319958943874e-05
-6.531045073643327e-05,1.3361025594349485e-05,-1.7842347006080672e-05,-6.8715703491761815e-06,5.777657133876346e-05
-4.163298581261188e-05,1.1201125744264573e-05,-2.413881702523213e-05,-8.031526704144198e-06,5.937499736319296e-05
-2.09655991056934e-05,1.035022251016926e-05,-2.7125408450956456e-05,-9.383881661051419e-06,6.195127207320184e-05
-1.7731425032252446e-05,4.620955223799683e-06,-2.303889050381258e-05,-9.565443178871647e-06,6.029925134498626e-05
-2.6534469725447707e-05,-4.402585545904003e-06,-1.1873483344970737e-05,-9.535281606076751e-06,5.409385630628094e-05
-3.367941462784074e-05,-1.138249717769213e-05,3.539738600011333e-06,-8.941966370912269e-06,4.928248017677106e-05
-3.093286068178713e-05,-1.1345824532327242e-05,1.68766055139713e-05,-6.223070158739574e-06,4.848165553994477e-05
-2.152565684809815e-05,-5.9113835959578864e-06,2.5808858481468633e-05,-4.7176063162623905e-06,4.976487616659142e-05
-1.395298841089243e-05,1.0896823141592904e-06,3.213731542928144e-05,-4.843958322453545e-06,5.136167601449415e-05
-1.2830657396989409e-05,9.615423550712876e-06,3.762116830330342e-05,-4.749701929540606e-06,5.465971844387241e-05
-1.8386486772214994e-05,1.6581479940214194e-05,3.917883805115707e-05,-4.543540853774175e-06,5.977839828119613e-05
-2.3177457478595898e-05,1.772993891790975e-05,3.5481411032378674e-05,-4.510330199991586e-06,6.307443982223049e-05
-2.279815817018971e-05,1.6601290553808212e-05,3.194325836375356e-05,-4.849266588280443e-06,6.423013837775216e-05
-2.1244784875307232e-05,1.805123065423686e-05,2.9950306270620786e-05,-4.850043296755757e-06,6.624776142416522e-05
-2.2515223463415168e-05,2.1026022295700386e-05,2.8975075110793114e-05,-3.359751417519874e-06,6.790641054976732e-05
-2.624757689773105e-05,2.2869959138915874e-05,2.8762535293935798e-05,-2.468004367983667e-06,6.483856122940779e-05
-3.426690454944037e-05,2.279930231452454e-05,2.62532448687125e-05,-1.7335706843368826e-06,6.020820001140237e-05
-4.0916900616139174e-05,2.3139917175285518e-05,2.0135103113716468e-05,4.6443454948530416e-07,6.041308006388135e-05
-4.017391984234564e-05,2.4736982595641166e-05,1.805839201551862e-05,4.490738447771037e-09,6.343740824377164e-05
-3.3088686905102804e-05,2.3849925128160976e-05,1.7416499758837745e-05,-1.7622636505620903e-06,6.589917029486969e-05
-3.0244391382439062e-05,2.63155216089217e-05,1.563320438435767e-05,-3.781522764256806e-06,6.415042298613116e-05
-3.3099993743235245e-05,3.4782242437358946e-05,1.301563224842539e-05,-5.923603112023557e-06,5.8875080867437646e-05
-3.4182536182925105e-05,4.2899690015474334e-05,8.61346870806301e-06,-8.96454366738908e-06,5.6912267609732226e-05
-3.425033719395287e-05,4.8232715926133096e-05,6.473384928540327e-06,-8.532815627404489e-06,5.831057205796242e-05
-3.474738332442939e-05,4.621157131623477e-05,4.591798642650247e-06,-6.520703209389467e-06,6.044557085260749e-05
-3.448635834502056e-05,3.8768725062254816e-05,4.581695520755602e-06,-5.178010269446531e-06,6.012447920511477e-05
-3.530565300025046e-05,3.617176480474882e-05,1.7267511793761514e-06,-6.683166702714516e-06,5.603476893156767e-05
-3.5010332794627175e-05,3.462333188508637e-05,-5.193612651055446e-06,-9.129093996307347e-06,5.344986493582837e-05
-3.503034167806618e-05,3.160427513648756e-05,-1.1145551070512738e-05,-9.715845408209134e-06,5.3453277359949425e-05
-3.926199133275077e-05,2.3251230231835507e-05,-1.2276855159143452e-05,-9.363124263472855e-06,5.378827700042166e-05
-4.264629751560278e-05,-1.9577100829337724e-06,-8.679158781887963e-06,-1.0906846910074819e-05,5.2473584219114855e-05
-4.300798900658265e-05,-3.1645759008824825e-05,-4.946957687934628e-06,-1.8211681890534237e-05,5.2810752094956115e-05
-3.876778646372259e-05,-3.7043973861727864e-05,-9.933778528647963e-07,-2.715825758059509e-05,5.507947571459226e-05
-3.0668594263261184e-05,-1.616138433746528e-05,1.106120635085972e-07,-3.09665483655408e-05,5.851664536749013e-05
-1.988834083022084e-05,1.017615431919694e-05,-1.4599393125536153e-06,-2.8396001653163694e-05,6.266566924750805e-05
-1.3155019587429706e-05,2.549346027080901e-05,-2.5085421384574147e-06,-2.5114490199484862e-05,6.458057032432407e-05
-1.3202575246396009e-05,2.7498808776726946e-05,1.1782864817178051e-07,-2.5562487280694768e-05,6.277413194766268e-05
-1.6562100427108817e-05,2.7339016014593653e-05,2.7786954888142645e-06,-2.8703805583063513e-05,6.103827763581648e-05
-2.3212052838061936e-05,3.0611303373007104e-05,5.681585548700241e-07,-2.710545413719956e-05,5.998158303555101e-05
-3.623422162490897e-05,3.295531132607721e-05,-3.848598680633586e-06,-2.1440666387206875e-05,5.854447226738557e-05
-5.250924004940316e-05,3.3443455322412774e-05,-1.8283980125488597e-06,-1.8482503946870565e-05,5.813439565827139e-05
-6.122755439719185e-05,3.498974911053665e-05,4.275428182154428e-06,-2.066736669803504e-05,5.846192652825266e-05
-5.31673758814577e-05,3.382732393220067e-05,7.36792844691081e-06,-2.1481659132405184e-05,6.0062888223910704e-05
-3.266184648964554e-05,3.153922443743795e-05,6.916611710039433e-06,-1.758743019308895e-05,6.057271457393654e-05
-1.3652136658492964e-05,4.0981056372402236e-05,1.4552166476278217e-06,-1.07639179987018e-05,6.066635614843108e-05
-4.523160441749496e-06,6.585640949197114e-05,-7.782062311889604e-06,-5.1905262807849795e-06,5.8316330978414044e-05
-5.349098046281142e-06,8.588049240643159e-05,-9.81154153123498e-06,-4.290859124012059e-06,5.366385084926151e-05
-7.574004939669976e-06,8.348964183824137e-05,-3.743643446796341e-06,-9.106311154027935e-06,4.93773513881024e-05
-5.8350419749331195e-06,6.97081777616404e-05,6.1604382608493324e-06,-1.601227995706722e-05,4.6986544475657865e-05
-3.045528501388617e-06,6.58416684018448e-05,1.7824686437961645e-05,-2.1799369278596714e-05,4.782761607202701e-05
-1.218787360812712e-06,6.780999683542177e-05,2.3202424927148968e-05,-2.6047435312648304e-05,4.759473085869104e-05
6.321411092358176e-07,6.13080701441504e-05,2.3995422452571802e-05,-2.4585562641732395e-05,4.358188743935898e-05
-1.6327716139130644e-06,4.455587622942403e-05,2.1748583094449714e-05,-2.153708555852063e-05,4.186352452961728e-05
-8.609370524936821e-06,2.1118112272233702e-05,1.8219980120193213e-05,-1.9105580577161163e-05,4.213724969304167e-05
-1.7807979020290077e-05,-3.519773599691689e-06,1.4032622857484967e-05,-1.6518606571480632e-05,4.472597720450722e-05
-2.6002955564763397e-05,-2.6329478714615107e-05,9.863080776995048e-06,-1.684433300397359e-05,5.309122207108885e-05
-3.3572385291336104e-05,-3.749031384359114e-05,7.063351858960232e-06,-1.892280488391407e-05,6.086559369578026e-05
-3.695126360980794e-05,-2.8552809453685768e-05,1.0017453860200476e-05,-2.35322422668105e-05,6.317144288914278e-05
-3.573235881049186e-05,-7.373362223006552e-06,1.5326480934163556e-05,-2.5935609301086515e-05,6.24929234618321e-05
-3.255699266446754e-05,1.126202096202178e-05,1.4652413483418059e-05,-2.202423638664186e-05,6.318669329630211e-05
-2.9502944016712718e-05,1.7643764294916764e-05,8.924344001570717e-06,-1.4928898963262327e-05,6.200239295139909e-05
-2.786866207316052e-05,1.5331925169448368e-05,3.6503361116047017e-06,-1.031570354825817e-05,5.889591921004467e-05
-2.5820365408435464e-05,1.2844485354435164e-05,2.486813627911033e-06,-1.039915696310345e-05,5.63253415748477e-05
-2.6141609851038083e-05,1.4699677194585092e-05,4.612737484421814e-06,-1.2953822988492902e-05,5.447510920930654e-05
-3.090577956754714e-05,1.703907946648542e-05,8.26741052151192e-06,-1.403522583132144e-05,5.417839565780014e-05
-3.6048993933945894e-05,1.2148081623308826e-05,7.894325790402945e-06,-9.864219464361668e-06,5.573574890149757e-05
-3.509579983074218e-05,5.335943569662049e-06,1.7925616475622519e-06,-3.887715593009489e-06,6.116268195910379e-05
-2.9876102416892536e-05,6.264314379222924e-06,-3.5380128338147188e-06,-1.3412972066362272e-06,6.76173294777982e-05
-2.465027864673175e-05,1.7272601326112635e-05,-4.363954303698847e-06,-3.164033842040226e-06,6.756276707164943e-05
-2.294621299370192e-05,3.498862497508526e-05,-4.48966420663055e-06,-5.883486664970405e-06,6.25178508926183e-05
-2.188886355725117e-05,5.707849413738586e-05,-4.982194695912767e-06,-5.038188646722119e-06,5.896012589801103e-05
-2.019828389165923e-05,7.67716410337016e-05,-4.908235951006645e-06,-3.0235200938477647e-06,5.7051292969845235e-05
-2.1011401258874685e-05,8.48791969474405e-05,-3.864043264911743e-06,-3.7545862596743973e-06,5.715970473829657e-05
-1.62837950483663e-05,8.251584222307429e-05,-4.022255780000705e-06,-4.333670403866563e-06,6.077895886846818e-05
2.7435619358584518e-06,7.141396781662479e-05,-2.161686552426545e-06,-5.0105832087865565e-06,6.417022086679935e-05
2.187213976867497e-05,6.0764941736124456e-05,2.7515900455910014e-06,-5.634574790747138e-06,6.121057958807796e-05
1.7282225599046797e-05,5.820017395308241e-05,3.805624601227464e-06,-4.381785402074456e-06,5.733174111810513e-05
-5.058880560682155e-06,6.044978727004491e-05,1.976664862013422e-06,-2.4661931092850864e-06,5.8315192291047424e-05
-2.3802600480848923e-05,5.8870078646577895e-05,5.657120709656738e-06,-1.6015454775697435e-06,6.000509893056005e-05
-3.532113623805344e-05,5.373404565034434e-05,1.2283325304451864e-05,-2.6389858476250083e-07,6.173465226311237e-05
-3.721152097568847e-05,4.84519696328789e-05,1.4170144822855946e-05,2.6911985173683206e-07,6.24487511231564e-05
-3.248990105930716e-05,3.840189674519934e-05,1.4021602510183584e-05,-7.945630500216794e-07,5.875994611415081e-05
-2.6068591978400946e-05,3.074502092204057e-05,1.0722188562795054e-05,-4.406528205436189e-06,5.472516568261199e-05
-1.819636054278817e-05,2.7189802494831383e-05,4.617021204467164e-06,-9.462455636821687e-06,5.4291318519972265e-05
-1.0333833415643312e-05,3.05470239254646e-05,-2.2086371131990745e-07,-1.0907881005550735e-05,5.615045301965438e-05
-7.1301897150988225e-06,3.8335976569214836e-05,-2.5396568048563495e-07,-8.15465045889141e-06,5.704963768948801e-05
-6.948378995730309e-06,3.7176228943280876e-05,3.646703817139496e-06,-7.704436939093284e-06,5.77827995584812e-05
-4.2453152673260774e-06,2.289677104272414e-05,5.874594990018522e-06,-1.2646941286220681e-05,5.743098154198378e-05
-9.911741472024005e-07,3.4714839785010554e-06,4.229982096148888e-06,-1.7302963897236623e-05,5.4782671213615686e-05
-1.6069543562480249e-06,-1.6977030099951662e-05,2.9075197289785137e-06,-1.559031989017967e-05,4.882800203631632e-05
-7.209996510937344e-06,-3.3770375011954457e-05,3.287661911599571e-06,-1.0856377230084036e-05,4.206042649457231e-05
-1.5828665709705092e-05,-3.429860225878656e-05,1.6753693898863276e-06,-1.0765294064185582e-05,3.8865069655003026e-05
-2.3715469069429673e-05,-1.988909389183391e-05,-4.9070177254861846e-08,-1.3834019227942917e-05,3.8347709050867707e-05
-2.5026532966876402e-05,-7.3317532951477915e-06,1.7703691810311284e-06,-1.7128975741798058e-05,3.942671537515707e-05
-2.1629448383464478e-05,-5.118898116052151e-06,6.5988001551886555e-06,-1.8460761566529982e-05,4.1128252632915974e-05
-1.852693094406277e-05,-4.778336005983874e-06,9.44564089877531e-06,-1.492436058470048e-05,4.5251155825098976e-05
-1.6538577256142162e-05,3.2384193673351547e-06,7.542678304162109e-06,-6.752970875822939e-06,4.9250051233684644e-05
-1.745526969898492e-05,2.109450360876508e-05,5.288974989525741e-06,-1.8978020079885027e-06,5.191694799577817e-05
-2.813105493260082e-05,4.0618284401716664e-05,4.2403166844451334e-06,-4.6884551920811646e-06,5.290724220685661e-05
-4.220844857627526e-05,5.3839292377233505e-05,-1.7844549802248366e-06,-9.475906153966207e-06,5.302314457367174e-05
-4.9230588047066703e-05,5.685157884727232e-05,-9.561770639265887e-06,-9.551541552355047e-06,5.1572471420513466e-05
-5.007063737139106e-05,4.8831672756932676e-05,-1.2691943084064405e-05,-3.9680949157627765e-06,4.90104612254072e-05
-5.169901123736054e-05,4.6970784751465544e-05,-1.0226847734884359e-05,6.092841999816301e-07,4.7852656280156225e-05
-5.3974352340446785e-05,6.297233630903065e-05,-6.55483927403111e-06,1.8323609083381598e-06,4.973732939106412e-05
-5.084834265289828e-05,7.537777855759487e-05,-3.954239218728617e-06,7.873609320085961e-07,5.475440411828458e-05
-4.680252095567994e-05,6.953240517759696e-05,1.0060423392133089e-06,-2.982620117109036e-06,6.067972208256833e-05
-4.2903255234705284e-05,5.0259401177754626e-05,7.664757504244335e-06,-7.281082616827916e-06,6.622629734920338e-05
-3.1645773560740054e-05,3.543049388099462e-05,1.0481597200850956e-05,-1.35519167088205e-05,6.64900871925056e-05
-1.4896613720338792e-05,1.4168846064421814e-05,1.0391214345872868e-05,-2.0222894818289205e-05,6.465877231676131e-05
-3.705465815073694e-06,-2.8545930035761558e-05,1.2017419066978619e-05,-2.4863071303116158e-05,6.603262590942904e-05
-2.21166715164145e-06,-6.174968439154327e-05,1.3961413060314953e-05,-2.6274752599420026e-05,6.89031439833343e-05
-5.571196652454091e-06,-5.176305057830177e-05,1.8718708815868013e-05,-2.4189472242142074e-05,6.925863999640569e-05
-1.2932462595927063e-05,-1.3513299563783221e-05,2.3215090550365858e-05,-2.1521713279071264e-05,6.623331864830106e-05
-2.2160878870636225e-05,2.558354253778816e-06,2.2978831111686304e-05,-2.0110503101022914e-05,6.389521877281368e-05
-2.7053623853134923e-05,-1.3372188732319046e-05,1.727706694509834e-05,-2.0780824343091808e-05,6.476575799752027e-05
-2.3003007299848832e-05,-3.143280991935171e-05,1.0104597095050849e-05,-2.180896080972161e-05,6.683833635179326e-05
-1.3431416846287902e-05,-3.0080809665378183e-05,5.609286745311692e-06,-2.045284963969607e-05,6.77066418575123e-05
-6.407812634279253e-06,-1.3770364603260532e-05,3.947789991798345e-06,-1.7606373148737475e-05,6.642389053013176e-05
-9.065232916327659e-06,8.29750297270948e-06,3.306555299786851e-06,-1.7199232388520613e-05,6.407101318472996e-05
-2.036275873251725e-05,2.990651955769863e-05,2.5398692287126323e-06,-1.9632683688541874e-05,6.222310184966773e-05
-3.085163189098239e-05,4.287950650905259e-05,1.1276093800915987e-06,-2.1180709154577926e-05,6.285515701165423e-05
-3.569964610505849e-05,4.295419785194099e-05,-8.213348792196484e-07,-2.128965024894569e-05,6.582450441783294e-05
-3.5416876926319674e-05,3.751338226720691e-05,-7.878850851739116e-07,-2.1877986000617966e-05,6.792611384298652e-05
-3.404696690267883e-05,3.9934453525347635e-05,1.3050486131760408e-06,-2.169697472709231e-05,6.790203769924119e-05
-3.347430902067572e-05,5.6405253417324275e-05,3.8094394767540507e-06,-1.8848846593755297e-05,6.747576117049903e-05
-3.472225944278762e-05,7.705570897087455e-05,4.083966359758051e-06,-1.2261696610949002e-05,6.7876186221838e-05
-3.9575246773893014e-05,8.828624413581565e-05,6.591486112483835e-07,-6.851687430753373e-06,6.560650217579678e-05
-4.6567456593038514e-05,0.00010221678530797362,-1.7364394579999498e-06,-4.057768364873482e-06,6.167922401800752e-05
-5.2662067901110277e-05,0.0001243532751686871,5.501253212969459e-07,-4.632631771528395e-06,6.02886029810179e-05
-5.7676166761666536e-05,0.0001412757846992463,2.789474592646002e-06,-9.105137905862648e-06,6.082580148358829e-05
-5.813280586153269e-05,0.0001493096206104383,4.04212642024504e-06,-9.379657967656385e-06,6.347682210616767e-05
-4.3868723878404126e-05,0.00013519235653802752,3.721261691680411e-06,-4.284654096409213e-06,6.719096563756466e-05
-1.410284312441945e-05,9.91521155810915e-05,4.195501333015272e-06,8.361280379176605e-07,6.901201413711533e-05
2.390616646152921e-05,5.0753882533172145e-05,6.642528660449898e-06,-1.139941261385502e-07,7.01503231539391e-05
5.3615356591762975e-05,-9.86679060588358e-06,1.037038782669697e-05,-7.922656550363172e-06,6.96168135618791e-05
6.031992961652577e-05,-5.2755498472834006e-05,1.201456234412035e-05,-1.3465520169120282e-05,6.99376396369189e-05
4.556812928058207e-05,-5.546851025428623e-05,1.326548408542294e-05,-1.4373349586094264e-05,7.085427932906896e-05
1.2991329640499316e-05,-3.892034146701917e-05,1.5102735233085696e-05,-1.609972423466388e-05,6.934309203643352e-05
-2.7083739041700028e-05,-2.591103475424461e-05,1.2459629942895845e-05,-1.9880335457855836e-05,6.497223512269557e-05
-5.92466676607728e-05,-1.4809807908022776e-05,6.720232704537921e-06,-2.190776649513282e-05,6.050535012036562e-05
-6.714982737321407e-05,2.008695446420461e-06,2.0564889382512774e-06,-1.9199362213839777e-05,5.738855543313548e-05
-5.3586660214932635e-05,2.3094275093171746e-05,2.420982525563886e-07,-1.6130710719153285e-05,5.3775660489918664e-05
-3.642723095254041e-05,4.124464248889126e-05,-2.3519410774497373e-07,-1.6048519682954066e-05,5.259150930214673e-05
-2.81514112430159e-05,5.2527007937897e-05,1.0082321750815026e-06,-1.4690870557387825e-05,5.4122596338856965e-05
-2.969159140775446e-05,5.590904038399458e-05,2.659967776708072e-06,-1.0574745829217136e-05,5.329741179593839e-05
-3.7295376387191936e-05,5.1428280130494386e-05,3.043186325157876e-06,-8.62156321090879e-06,5.078886533738114e-05
-4.906389585812576e-05,4.2906031012535095e-05,2.7796866106655216e-06,-9.791313459572848e-06,5.0700982683338225e-05
-5.8124580391449854e-05,3.790006667259149e-05,3.7224526749923825e-06,-1.064830576069653e-05,5.36531260877382e-05
-5.7510012993589044e-05,4.060590435983613e-05,3.98198835682706e-06,-8.76827380125178e-06,5.643392069032416e-05
-4.87794131913688e-05,4.926380643155426e-05,4.12766212321003e-06,-6.252109869819833e-06,5.5301381507888436e-05
-3.8456302718259394e-05,5.437491927295923e-05,6.0759257394238375e-06,-3.097731450907304e-06,5.322225842974149e-05
-3.1753985240357e-05,4.712380905402824e-05,8.49577827466419e-06,8.593076472607208e-07,5.168286952539347e-05
-2.9710969101870432e-05,3.788613321376033e-05,9.36181822908111e-06,1.1783456557168392e-06,5.0276339607080445e-05
-2.5209903469658457e-05,4.0103037463268265e-05,6.880417004140327e-06,1.1323471653668093e-06,5.2395851525943726e-05
-1.5736544810351916e-05,5.002016041544266e-05,1.8217948536403128e-06,1.0230199904981419e-06,5.470074029290117e-05
-1.4572165127901826e-05,5.718650936614722e-05,-5.3101730372873135e-06,2.5560002541169524e-06,5.1619044825201854e-05
-2.8808564820792526e-05,4.6109777031233534e-05,-1.67113212228287e-05,5.710868208552711e-06,4.625756264431402e-05
-3.8878679333720356e-05,1.4516563169308938e-05,-2.7562189643504098e-05,2.6673196771298535e-06,4.6531182306353e-05
-3.2900839869398624e-05,-2.0036432033521123e-05,-2.9230950531200506e-05,-1.3327440910870791e-06,5.1397495553828776e-05
-2.9368096875259653e-05,-3.407344047445804e-05,-2.1651741917594336e-05,-4.762543539982289e-06,5.420029265224002e-05
-4.5610802771989256e-05,-1.6124397006933577e-05,-8.473485650029033e-06,-9.2430564109236e-06,5.6613578635733575e-05
-7.300664583453909e-05,9.954140296031255e-06,2.9595328214782057e-06,-1.1538562830537558e-05,5.473780765896663e-05
-9.209354175254703e-05,2.4677829060237855e-05,1.064930074790027e-05,-9.272453098674305e-06,5.25931354786735e-05
-9.197525650961325e-05,3.1669864256400615e-05,1.8558217561803758e-05,-2.0558386495395098e-06,5.0747865316225216e-05
-7.694718078710139e-05,3.6335422919364646e-05,2.613346623547841e-05,4.2845582015615946e-07,5.131242869538255e-05
-5.6901586503954604e-05,4.222342977300286e-05,3.1538245821138844e-05,-3.6153396649751812e-06,5.2975457947468385e-05
-4.1586441511753947e-05,5.1281265768921e-05,3.0854804208502173e-05,-5.375428372644819e-06,5.213460826780647e-05
-2.9009574063820764e-05,5.4642507166136056e-05,2.779205169645138e-05,-3.0953062832850264e-06,5.2344796131365e-05
-1.504098872828763e-05,4.269300552550703e-05,2.3346901798504405e-05,-4.403692855703412e-06,5.290897752274759e-05
6.462215651481529e-07,1.8488957721274346e-05,1.70762614288833e-05,-1.1271879884588998e-05,5.572059308178723e-05
1.187656835099915e-05,-1.0703290172386914e-05,1.3295354619913269e-05,-1.7289412426180206e-05,5.924455763306469e-05
1.0632375051500276e-05,-3.903997640009038e-05,1.2362330380710773e-05,-1.9661676560644992e-05,6.0083253629272804e-05
3.190467168678879e-06,-5.370601866161451e-05,1.1540838386281393e-05,-2.100944948324468e-05,5.860062447027303e-05
-3.1499387205258245e-06,-3.843375088763423e-05,9.247156413039193e-06,-2.06567274290137e-05,5.802842861157842e-05
-9.979031347029377e-06,-3.4299091566936113e-06,8.578198503528256e-06,-1.5475621694349684e-05,5.756853352067992e-05
-1.971295932889916e-05,2.3369104383164085e-05,9.686837984190788e-06,-9.723610673972871e-06,5.9914793382631615e-05
-3.1182702514342964e-05,3.444890899118036e-05,8.37903189676581e-06,-9.400912858836818e-06,6.398976256605238e-05
-4.156522118137218e-05,3.7054203858133405e-05,1.0720483487602905e-06,-1.2843396689277142e-05,6.578784814337268e-05
-4.479462222661823e-05,3.58648831024766e-05,-5.760680778621463e-06,-1.5737887224531732e-05,6.538991146953776e-05
-3.807219400187023e-05,2.988490268762689e-05,-7.197099421318853e-06,-1.8281874872627668e-05,6.53847455396317e-05
-2.3926648282213137e-05,1.7273536286666058e-05,-5.8605396588973235e-06,-2.035189390880987e-05,6.665338150924072e-05
-1.4459856174653396e-05,4.776354217028711e-06,-5.5142158998933155e-06,-2.0436949853319675e-05,6.74288094160147e-05
-1.1295602234895341e-05,5.272873295325553e-06,-4.9322752602165565e-06,-1.832907582866028e-05,6.533681880682707e-05
-8.307516509376e-06,2.2520936909131706e-05,-3.9318506424024235e-06,-1.7382149962941185e-05,6.235645560082048e-05
-7.292097507161088e-06,3.637058398453519e-05,4.245062967811464e-08,-1.6688782125129364e-05,6.466023478424177e-05
-8.815163710096385e-06,4.258273111190647e-05,6.950383522053016e-06,-1.2562595657072961e-05,6.999676406849176e-05
-1.0942175322270487e-05,4.790561433765106e-05,9.934682566381525e-06,-5.532947852771031e-06,7.056357571855187e-05
-1.130597956944257e-05,4.8770529247121885e-05,9.033246897161007e-06,-1.6470677337565576e-06,6.944928463781253e-05
-1.3279735867399722e-05,4.2518600821495056e-05,6.28492944088066e-06,-2.644981350385933e-06,6.700713856844231e-05
-2.260585461044684e-05,3.646556069725193e-05,2.3470661290048156e-06,-5.940107257629279e-06,6.102103361627087e-05
-3.57837816409301e-05,4.0262275433633476e-05,-1.327020299868309e-06,-9.982729352486786e-06,5.5906682973727584e-05
-4.685964449890889e-05,4.647087916964665e-05,-3.7412942219816614e-06,-1.530810732219834e-05,5.5541469919262454e-05
-4.931901639793068e-05,4.8768866690807045e-05,-4.461352546059061e-06,-2.015971767832525e-05,5.841847087140195e-05
-4.328889917815104e-05,4.914394594379701e-05,1.737597926876333e-06,-1.9193892512703314e-05,6.142716301837936e-05
-3.6830417229793966e-05,5.129699638928287e-05,1.0218365787295625e-05,-1.6463067368022166e-05,6.398096593329683e-05
-3.6151981475995854e-05,5.4915817599976435e-05,1.3318682249519043e-05,-1.5851788703002967e-05,6.691654562018812e-05
-3.7523928767768666e-05,5.788245107396506e-05,1.152645745605696e-05,-1.831059853429906e-05,6.864104943815619e-05
-3.233548341086134e-05,5.5898792197695e-05,1.1920705219381489e-05,-2.0934441636200063e-05,6.76894051139243e-05
-2.248106466140598e-05,4.992606773157604e-05,1.6105383110698313e-05,-2.1121613826835528e-05,6.569663673872128e-05
-1.6743821106501855e-05,4.691103458753787e-05,2.1101595848449506e-05,-1.710864125925582e-05,6.498261063825339e-05
-1.8642173017724417e-05,5.34885584784206e-05,2.3277350919670425e-05,-1.0771031156764366e-05,6.5270098275505e-05
-2.466645310050808e-05,5.898173913010396e-05,1.7956857846002094e-05,-7.424741397699108e-06,6.517567089758813e-05
-3.483906402834691e-05,3.436419865465723e-05,7.781601198075805e-06,-8.913120836950839e-06,6.538293382618576e-05
-4.6852510422468185e-05,-1.9027012967853807e-05,-2.4342621145478915e-06,-1.0139747246284969e-05,6.233443127712235e-05
-5.203426189837046e-05,-5.135842366144061e-05,-1.128650637838291e-05,-8.69350515131373e-06,5.690793477697298e-05
-4.829117824556306e-05,-3.865717371809296e-05,-1.870760206656996e-05,-8.40256780065829e-06,5.433331534732133e-05
-4.209983308101073e-05,-9.505350135441404e-06,-1.9765035176533274e-05,-8.29295731819002e-06,5.878896263311617e-05
-3.5732402466237545e-05,2.551639590819832e-05,-1.3402353033598047e-05,-8.032320693018846e-06,6.388166366377845e-05
-3.281442332081497e-05,6.904541805852205e-05,-3.571796469259425e-06,-9.913258509186562e-06,6.504785415017977e-05
-3.640238719526678e-05,0.00010730505891842768,7.427848231600365e-06,-1.3013846000831109e-05,6.580593617400154e-05
-2.84701327473158e-05,0.00012593725114129484,1.9840312234009616e-05,-1.4020602975506335e-05,6.809572369093075e-05
-1.0950413980026497e-06,0.00010906116222031415,2.63392739725532e-05,-1.2783012607542332e-05,6.963047781027853e-05
2.6028907086583786e-05,6.444255268434063e-05,2.4874791051843204e-05,-1.2177642929600552e-05,6.7749890149571e-05
3.264400584157556e-05,1.018082821246935e-05,2.4336002752534114e-05,-1.3642701560456771e-05,6.329454481601715e-05
1.735231671773363e-05,-3.369536716490984e-05,2.4652876163600013e-05,-1.4704024579259567e-05,5.5828739277785644e-05
9.906929108183249e-07,-4.474030720302835e-05,2.438084084133152e-05,-1.1732262464647647e-05,5.277145828586072e-05
-7.690555321460124e-06,-3.272903632023372e-05,2.3717486328678206e-05,-3.3461133170931134e-06,5.603050158242695e-05
-1.137693652708549e-05,-1.4729905160493217e-05,2.129101449099835e-05,1.4535357877321076e-06,6.177917384775355e-05
-1.6146825146279298e-05,-4.534047093329718e-06,2.1281910449033603e-05,5.020063440497324e-07,6.660502549493685e-05
-2.0967039745301008e-05,-5.4452725635201205e-06,2.628948823257815e-05,-3.2531322631257353e-06,6.544739153468981e-05
-2.3159824195317924e-05,-1.4189589819579851e-05,3.245108018745668e-05,-5.840625817654654e-06,6.226168625289574e-05
-2.5970646674977615e-05,-2.253526690765284e-05,3.487861977191642e-05,-6.668794412689749e-06,6.0581023717531934e-05
-3.1493364076595753e-05,-2.542186302889604e-05,3.40058068104554e-05,-8.389202776015736e-06,5.880847675143741e-05
-3.8191748899407685e-05,-2.7710328140528873e-05,3.134242069791071e-05,-1.280742435483262e-05,5.78419967496302e-05
-4.4223794247955084e-05,-2.7568903533392586e-05,2.631240386108402e-05,-1.887305552372709e-05,5.79994339204859e-05
-4.738439020002261e-05,-1.141123448178405e-05,1.821119076339528e-05,-1.980694469239097e-05,5.792898082290776e-05
-4.3894404370803386e-05,2.1945468688500114e-05,1.3413944543572143e-05,-1.3147970093996264e-05,5.951806451776065e-05
-3.943738556699827e-05,5.01363210787531e-05,1.3462187780532986e-05,-3.5649215988087235e-06,6.158763426356018e-05
-3.330428444314748e-05,6.396680691977963e-05,1.1273995369265322e-05,1.4103300145507092e-06,6.187125836731866e-05
-2.5230074243154377e-05,7.002775964792818e-05,3.5326618217368377e-06,5.78417143515253e-07,5.82597785978578e-05
-2.0219520592945628e-05,7.015801384113729e-05,-7.359067694778787e-06,-2.1835392089997185e-06,5.233355113887228e-05
-1.8072973034577444e-05,6.704733823426068e-05,-1.4895515960233752e-05,-2.3072416297509335e-06,4.9358415708411485e-05
-1.6357806089217775e-05,6.6521686676424e-05,-1.745621739246417e-05,-3.117009555353434e-06,5.1557588449213654e-05
-1.5042530321807135e-05,6.186058453749865e-05,-1.6075762687250972e-05,-4.809607617062284e-06,5.274672730593011e-05
-1.69347786140861e-05,5.325490201357752e-05,-1.2033751772833057e-05,-5.428186796052614e-06,4.907750553684309e-05
-2.0832076188526116e-05,5.068464815849438e-05,-1.1235943020437844e-05,-3.5274267702334328e-06,4.443137004273012e-05
-2.4865659725037403e-05,5.6312972446903586e-05,-1.2508632607932668e-05,3.02373837257619e-06,4.4213997171027586e-05
-3.0069400963839144e-05,6.689672591164708e-05,-9.468953976465855e-06,6.561725058418233e-06,4.788394653587602e-05
-2.675724681466818e-05,7.99281187937595e-05,-6.513912012451328e-06,5.117708042234881e-06,4.894310040981509e-05
-1.9640721802716143e-05,8.751645509619266e-05,-9.012745977088343e-06,6.607668183278292e-06,4.9028167268261313e-05
-1.8868995539378375e-05,7.586637366330251e-05,-1.240439360117307e-05,4.726191491499776e-06,4.925881512463093e-05
-2.1511919840122573e-05,5.1946502935606986e-05,-1.1985996934527066e-05,2.5229482503164036e-07,5.035900176153518e-05
-2.320776184205897e-05,3.1551229767501354e-05,-1.0061062312161084e-05,-4.814425551558088e-07,5.335309833753854e-05
-2.19233515963424e-05,1.4054436178412288e-05,-1.0385690075054299e-05,-2.5518415895930957e-06,5.5912900279508904e-05
-2.102351027133409e-05,-3.1406186735694064e-06,-1.2995228644285817e-05,-7.0689925451006275e-06,5.48821990378201e-05
-2.406973908364307e-05,-8.501046067976858e-06,-1.352596973447362e-05,-8.473584784951527e-06,5.3533898608293384e-05
-2.6180854547419585e-05,9.079469691641862e-07,-1.0185467544943094e-05,-5.764190518675605e-06,5.420976594905369e-05
-2.2630632884101942e-05,1.569393316458445e-05,-4.993759375793161e-06,-6.051075615687296e-06,5.560621866607107e-05
-1.534236980660353e-05,3.998110332759097e-05,-2.2164249458000995e-06,-8.233923836087342e-06,5.6455024605384097e-05
-6.034589659975609e-06,7.120623195078224e-05,4.6581325818806363e-07,-1.0385474524809979e-05,5.52294404769782e-05
3.14893600261712e-06,9.466269693803042e-05,5.156603492650902e-06,-1.2151767805335112e-05,5.3488263802137226e-05
1.1652658940874971e-05,9.521067840978503e-05,1.09118645923445e-05,-1.2525456440926064e-05,5.1711660489672795e-05
1.651059756113682e-05,6.641533400397748e-05,1.532544229121413e-05,-1.064373009285191e-05,5.25847208336927e-05
1.121110744861653e-05,2.2400065063266084e-05,1.7636921256780624e-05,-8.409541806031484e-06,5.890147076570429e-05
-4.205182904115645e-06,-6.2465564951708075e-06,1.7734355424181558e-05,-7.949724931677338e-06,6.518428563140333e-05
-2.0830306311836466e-05,-7.375035693257814e-06,1.5373587302747183e-05,-8.340662134287413e-06,6.516945722978562e-05
-3.369506521266885e-05,-1.8464360209691222e-06,9.295295967604034e-06,-7.933095730550122e-06,6.12296280451119e-05
-3.856208059005439e-05,-4.191004791209707e-06,8.029067544157442e-07,-6.162932550068945e-06,5.860198143636808e-05
-3.5995904909214005e-05,-7.642895980097819e-06,-1.5382908031824627e-06,-5.390604655985953e-06,5.8505229389993474e-05
-2.916327866842039e-05,-9.138435416389257e-06,9.186139777739299e-07,-7.332549103011843e-06,6.003925227560103e-05
-2.250377474410925e-05,-1.059717033058405e-05,-5.411209258454619e-07,-1.1724339856300503e-05,6.096561628510244e-05
-2.282947752973996e-05,-1.861500891209289e-07,-4.336338861321565e-06,-1.3964394383947365e-05,5.901903205085546e-05
-2.956371463369578e-05,2.952789691335056e-05,-5.4441079555545e-06,-1.2512641660578083e-05,5.433290425571613e-05
-4.168634404777549e-05,5.9805777709698305e-05,-2.506730425011483e-06,-1.1091346095781773e-05,5.037898517912254e-05
-5.2099941967753693e-05,6.942360778339207e-05,-4.4218216999070137e-07,-1.0782188837765716e-05,5.0613631174201146e-05
-5.205084744375199e-05,6.008230775478296e-05,-2.8025801839248743e-06,-1.1259407074248884e-05,5.159253487363458e-05
-5.141817746334709e-05,5.0738435675157234e-05,-5.77963919567992e-06,-1.338229139946634e-05,5.4135554819367826e-05
-5.168109419173561e-05,5.18077467859257e-05,-4.851729499932844e-06,-1.289293504669331e-05,5.652933759847656e-05
-4.427982639754191e-05,6.40860089333728e-05,1.542534619147773e-06,-6.5449567046016455e-06,5.7658256991999224e-05
-2.593708450149279e-05,8.49403440952301e-05,6.522405328723835e-06,2.0494271666393615e-06,5.9405378124210984e-05
-3.937571818823926e-06,0.00010542140807956457,8.314228580275085e-06,4.662104856834048e-06,6.175028829602525e-05
3.229087724321289e-06,0.00011612928938120604,6.19252978140139e-06,4.991475179849658e-07,6.383025174727663e-05
-3.7920992781437235e-06,0.0001117477731895633,4.9093246161646675e-06,-2.0471013613132527e-06,6.361510168062523e-05
-1.4787824511586223e-05,9.869260975392535e-05,6.489092356787296e-06,-7.771218974994554e-07,6.445642065955326e-05
-2.7656564270728268e-05,8.07553660706617e-05,7.904242011136375e-06,-1.2384945193844032e-06,6.49594803689979e-05
-4.0151924622477964e-05,6.182266952237114e-05,8.442849320999812e-06,-6.711462447128724e-06,6.221500370884314e-05
-4.5895558287156746e-05,3.785749868256971e-05,8.503587196173612e-06,-1.2656197213800624e-05,5.795186007162556e-05
-4.337228165240958e-05,1.327776999460184e-06,9.073375622392632e-06,-1.5406953025376424e-05,5.533832882065326e-05
-3.819672201643698e-05,-4.766758866026066e-05,9.074286026589107e-06,-1.5498884749831632e-05,5.119916022522375e-05
-3.3601674658712e-05,-9.147496894001961e-05,8.146525033225771e-06,-1.651972888794262e-05,4.550891389953904e-05
-3.320063842693344e-05,-0.00010627299343468621,6.807270438002888e-06,-2.0920582755934447e-05,4.515967157203704e-05
-3.905497578671202e-05,-8.451395115116611e-05,5.880326625629095e-06,-2.620374652906321e-05,5.030323882238008e-05
-5.0230744818691164e-05,-3.6472771171247587e-05,3.309540488771745e-06,-2.9114265998941846e-05,5.437683648779057e-05
-6.016367842676118e-05,1.4604417629016098e-05,-1.1985989658569451e-06,-2.926069100794848e-05,5.444480848382227e-05
-6.034623584127985e-05,4.4857450120616704e-05,-5.144538135937182e-06,-2.7030842829844914e-05,5.370818325900473e-05
-4.844182330998592e-05,4.581372195389122e-05,-6.362998647091445e-06,-2.4329350708285347e-05,5.5223103117896244e-05
-2.947773100459017e-05,2.8944554287591018e-05,-3.5847090202878462e-06,-2.299812331330031e-05,5.843801409355365e-05
-9.740514542500023e-06,1.0794980880746152e-05,9.130553166869504e-07,-2.1822321286890656e-05,6.108531670179218e-05
4.9283621592621785e-06,-3.1756569569552084e-06,1.9548056116036605e-06,-2.0986042727599852e-05,6.000187568133697e-05
1.5312649338738993e-05,-1.448954026272986e-05,3.578483756427886e-06,-1.9644723579403944e-05,5.64010588277597e-05
2.2098729459685273e-05,-6.273454346228391e-06,6.597128958674148e-06,-1.9011420590686612e-05,5.764375237049535e-05
2.134859278157819e-05,1.620527109480463e-05,7.101148639776511e-06,-2.124738966813311e-05,6.131252303021029e-05
1.212689676322043e-05,2.108437729475554e-05,8.112152499961667e-06,-2.0305773432482965e-05,5.9879756008740515e-05
-5.539978701563086e-06,1.7930120520759374e-05,1.0706718967412598e-05,-1.5190717022051103e-05,5.590900400420651e-05
-2.1438132534967735e-05,4.148723019170575e-05,1.2729375157505274e-05,-9.081456482817885e-06,5.626716301776469e-05
-3.0368579245987348e-05,8.06157840997912e-05,1.439924290025374e-05,-4.8635824896337e-06,6.040262815076858e-05
-3.977883170591667e-05,0.00010145588021259755,1.507528213551268e-05,-3.960046342399437e-06,6.349036266328767e-05
-4.988173532183282e-05,9.504376794211566e-05,1.6856323782121763e-05,-3.5958528314949945e-06,6.415629468392581e-05
-4.901920328848064e-05,6.057594873709604e-05,1.8419073967379518e-05,-5.043287728767609e-06,6.493900582427159e-05
-3.614535671658814e-05,-1.2306390090088826e-05,1.469323251512833e-05,-8.1840398706845e-06,6.636427133344114e-05
-2.1812660634168424e-05,-0.00010993891191901639,8.05760282673873e-06,-1.3878226127417292e-05,6.525401840917766e-05
-1.780704224074725e-05,-0.0001867906394181773,3.1080865028343396e-06,-2.0542045604088344e-05,6.0967988247284666e-05
-2.861235407181084e-05,-0.00019985089602414519,3.357950504323526e-07,-2.5404002371942624e-05,5.459984458866529e-05
-5.722872811020352e-05,-0.0001442773937014863,-3.2907037166296504e-06,-2.7062909794040024e-05,4.810748578165658e-05
-9.210967255057767e-05,-5.469720781547949e-05,-7.91919774201233e-06,-2.3398068151436746e-05,4.440491829882376e-05
-0.00010520094656385481,2.314348421350587e-05,-1.1142642506456468e-05,-1.5621537386323325e-05,4.376992364996113e-05
-8.730624540476128e-05,6.595665036002174e-05,-9.708295692689717e-06,-7.66056382417446e-06,4.6150267735356465e-05
-5.6380285968771204e-05,8.039132080739364e-05,-4.407619144330965e-06,-7.077292707435845e-07,5.186975249671377e-05
-3.1764146115165204e-05,8.382616215385497e-05,-3.3228334928026015e-07,4.542748683888931e-06,5.746080569224432e-05
-1.9062032151850872e-05,8.697815064806491e-05,-5.932911335548852e-07,6.531181497848593e-06,5.9245936427032575e-05
-1.830842847994063e-05,8.560228161513805e-05,-2.457927166688023e-06,7.878737051214557e-06,5.694167339242995e-05
-2.2268088287091814e-05,7.965946133481339e-05,-2.283564754179679e-06,8.518045433447696e-06,5.5675838666502386e-05
-2.265925104438793e-05,7.217978418339044e-05,1.3618218872579746e-06,8.045384674915113e-06,5.965546370134689e-05
-1.4094899597694166e-05,5.869748201803304e-05,7.277048098330852e-06,8.886412615538575e-06,6.370889605022967e-05
7.036331226117909e-06,2.9810325941070914e-05,1.0694107004383113e-05,8.877533218765166e-06,6.45359541522339e-05
3.316239235573448e-05,-2.530261735955719e-05,1.0499345080461353e-05,5.698815584764816e-06,6.655178731307387e-05
3.8549143937416375e-05,-8.05053859949112e-05,7.858216122258455e-06,-2.17561682802625e-06,6.724530248902738e-05
9.957084330380894e-06,-8.872721082298085e-05,5.112555754749337e-06,-1.2787914783984888e-05,5.738102117902599e-05
-3.255472256569192e-05,-4.380059544928372e-05,4.6784139158262406e-06,-1.9432638509897515e-05,4.402778358780779e-05
-5.005782441003248e-05,4.027803242934169e-06,5.827710992889479e-06,-1.6249365216935985e-05,4.2134724935749546e-05
-5.079276888864115e-05,6.196617050591158e-06,8.298587999888696e-06,-9.79760352493031e-06,4.83970798086375e-05
-5.4625270422548056e-05,5.054037956142565e-06,6.3469697124673985e-06,-1.0743123311840463e-05,5.374875036068261e-05
-5.6196251534856856e-05,3.829219349427149e-05,-7.131715165087371e-07,-1.2169965884822886e-05,5.9594251069938764e-05
-5.7207693316740915e-05,7.267932232934982e-05,-7.985941010701936e-06,-1.2422522559063509e-05,6.447904888773337e-05
-6.490435771411285e-05,8.14060476841405e-05,-1.3099558600515593e-05,-1.2433296433300711e-05,6.057841892470606e-05
-8.201823220588267e-05,7.299436401808634e-05,-1.3425340512185358e-05,-1.1971195817750413e-05,5.290652916301042e-05
-8.49128482514061e-05,5.7571967772673815e-05,-8.61949592945166e-06,-8.918778803490568e-06,5.151138248038478e-05
-7.013212598394603e-05,4.308998177293688e-05,2.817175527525251e-06,-5.111529844725737e-06,5.438421794679016e-05
-5.128514385432936e-05,4.118834112887271e-05,1.728908137010876e-05,-2.672104528755881e-06,5.903802957618609e-05
-3.826086322078481e-05,5.1053048082394525e-05,2.8069303880329244e-05,-1.0243178394375718e-06,6.353815115289763e-05
-2.7788353690993972e-05,6.043714893166907e-05,2.9142553103156388e-05,-2.090712314384291e-06,6.577712338184938e-05
-1.818699820432812e-05,6.193864101078361e-05,2.5321143766632304e-05,-2.02435398932721e-06,6.793101056246087e-05
-1.4997145626693964e-05,6.423101149266586e-05,2.4828485038597137e-05,-5.581807727139676e-07,7.012020796537399e-05
-1.8182086932938546e-05,8.002290269359946e-05,2.5226785510312766e-05,1.5094606453658344e-07,6.931050302227959e-05
-2.3993450668058358e-05,0.00011207754869246855,2.278587817272637e-05,-6.136205570328457e-07,6.607342220377177e-05
-3.0022305509191938e-05,0.00014052876213099808,1.9213053747080266e-05,-1.583612061040185e-06,6.188386032590643e-05
-3.389292396605015e-05,0.00014286338409874588,1.41382643050747e-05,-3.8425523598561995e-06,5.961013084743172e-05
-3.0799514206591994e-05,0.00011598489072639495,7.115511380106909e-06,-6.846340056654299e-06,6.065278284950182e-05
-2.3558290195069276e-05,7.592374458909035e-05,3.915763954864815e-06,-1.0497745279280934e-05,6.320301326923072e-05
-1.6611165847280063e-05,4.268211705493741e-05,3.810437874562922e-06,-1.3574135664384812e-05,6.704527913825586e-05
-1.0237676178803667e-05,2.49677432293538e-05,4.7022494982229546e-06,-1.3816354112350382e-05,7.041709613986313e-05
-1.3465744075347175e-07,1.7000711522996426e-05,8.761956451053265e-06,-1.3067388863419183e-05,7.105335680535063e-05
8.163759957824368e-06,-7.491599376407976e-07,1.2037260603392497e-05,-1.3508370102499612e-05,6.942120671737939e-05
1.3353712347452529e-05,-3.084399941144511e-05,1.1843158063129522e-05,-1.4014044609211851e-05,6.786395533708856e-05
1.2240445357747376e-05,-3.903314791386947e-05,1.229454210260883e-05,-1.4165359971229918e-05,6.682945240754634e-05
-3.596677515815827e-06,-5.697498181689298e-06,1.4249520972953178e-05,-1.4337620086735114e-05,6.793114152969792e-05
-2.574563586676959e-05,3.8565882277907804e-05,1.5699997675255872e-05,-1.53393284563208e-05,6.667011621175334e-05
-3.5504701372701675e-05,5.0083152018487453e-05,1.4730862858414184e-05,-1.2576088010973763e-05,6.256313645280898e-05
-3.5503686376614496e-05,3.502986874082126e-05,8.92345815373119e-06,-9.016101103043184e-06,6.175045564305037e-05
-3.3193624403793365e-05,2.5970646674977615e-05,4.90151296617114e-06,-8.575109859521035e-06,6.304788985289633e-05
-3.568946340237744e-05,3.7121197237866e-05,7.725428076810203e-06,-7.349299721681746e-06,6.587466486962512e-05
-4.4662072468781844e-05,5.684572897735052e-05,1.1748148608603515e-05,-5.703216174879344e-06,6.742550613125786e-05
-4.940961298416369e-05,7.596843352075666e-05,1.2838171642215457e-05,-3.424049054956413e-06,6.524148193420842e-05
-4.28673556598369e-05,9.455017425352708e-05,9.015810974233318e-06,-4.481819360080408e-06,6.221208604983985e-05
-2.6908643121714704e-05,0.00010217748786089942,5.229190264799399e-06,-7.770754564262461e-06,6.371837662300095e-05
-1.200512360810535e-05,9.793975186767057e-05,4.55983081337763e-06,-1.1040947356377728e-05,6.96192801115103e-05
-6.2866974985809065e-06,8.874813647707924e-05,4.889217052550521e-06,-1.4043002920516301e-05,7.181808177847415e-05
-8.851957318256609e-06,7.226449088193476e-05,2.770528453766019e-06,-1.3307214430824388e-05,6.748976738890633e-05
-1.3148054677003529e-05,4.548676224658266e-05,-8.298106877191458e-07,-9.499033694737591e-06,6.3426821725443e-05
-1.629659891477786e-05,2.30608566198498e-05,-6.103706255089492e-06,-5.400655936682597e-06,6.304300768533722e-05
-1.9187215002602898e-05,1.5730953236925416e-05,-1.7110063708969392e-05,-1.670070901127474e-06,6.283645052462816e-05
-2.290337761223782e-05,1.1720353541022632e-05,-2.7785312340711243e-05,1.2040600267937407e-06,6.340193067444488e-05
-2.1930085495114326e-05,-5.3949256653140765e-06,-2.8488200769061223e-05,3.4007705380645348e-06,6.30675713182427e-05
-1.2819465155189391e-05,-2.033825876424089e-05,-2.249661338282749e-05,6.327867595246062e-06,6.173658766783774e-05
-6.718950658068934e-07,-6.323606157820905e-06,-1.4156545148580335e-05,7.177782663347898e-06,6.0659240261884406e-05
5.207213234825758e-06,2.2502028514281847e-05,-4.030011950817425e-06,2.456592710586847e-06,6.0665308410534635e-05
1.9879053070326336e-06,2.9638385967700742e-05,4.6795839807600714e-06,-3.5499504065228393e-06,6.278735236264765e-05
-5.644667453452712e-06,1.072670602297876e-05,1.4117629689280875e-05,-5.40621840627864e-06,6.373807264026254e-05
-1.625613367650658e-05,-1.2535966561699752e-05,2.6127889213967137e-05,-4.378361609269632e-06,6.291650788625702e-05
-3.392449434613809e-05,-2.8468206437537447e-05,3.5228225897299126e-05,-7.56441932026064e-06,6.149167165858671e-05
-4.604173227562569e-05,-3.790580012719147e-05,3.7364829040598124e-05,-1.217230692418525e-05,6.041670712875202e-05
-4.033454752061516e-05,-4.982680911780335e-05,3.935440690838732e-05,-1.3576942365034483e-05,6.042608947609551e-05
-3.0335997507791035e-05,-4.518479181570001e-05,3.897417991538532e-05,-1.4489740351564251e-05,6.330387986963615e-05
-3.1973359000403434e-05,2.0055214918102138e-05,3.276045754319057e-05,-1.2460872312658466e-05,6.335154466796666e-05
-4.234403240843676e-05,9.881225560093299e-05,2.7679650884238072e-05,-1.1047938642150257e-05,5.701875488739461e-05
-4.9146314268000424e-05,0.00013745036267209798,2.9670542062376626e-05,-1.3479559129336849e-05,5.241104372544214e-05
-5.082646384835243e-05,0.00014547162572853267,3.581806959118694e-05,-1.551034438307397e-05,5.427569703897461e-05
-5.4792166338302195e-05,0.00012394880468491465,3.820153870037757e-05,-1.5062050806591287e-05,5.7650548114906996e-05
-7.173246558522806e-05,7.211253978312016e-05,2.8543025109684095e-05,-1.7606627807253972e-05,5.684347706846893e-05
-9.254770702682436e-05,1.2787904779543169e-05,1.1113002074125689e-05,-2.4150740500772372e-05,5.318169860402122e-05
-9.296354255639017e-05,-1.1498247658892069e-05,-7.425295507346164e-07,-2.9457809432642534e-05,5.0727401685435325e-05
-7.540902879554778e-05,1.459398731640249e-06,-7.021484634606168e-06,-3.171706339344382e-05,5.2367646276252344e-05
-6.328585732262582e-05,2.2498217731481418e-05,-1.2748007975460496e-05,-2.8925145670655183e-05,5.499031612998806e-05
-6.651422881986946e-05,1.710326068860013e-05,-1.860040174506139e-05,-2.1860614651814103e-05,5.697066808352247e-05
-7.00682940077968e-05,-2.0491239411057904e-05,-2.162071359634865e-05,-1.3717144611291587e-05,5.834288822370581e-05
-6.06039866397623e-05,-6.942535401321948e-05,-2.246202166134026e-05,-9.91035904007731e-06,6.0315545852063224e-05
-4.385485590319149e-05,-9.393430809723213e-05,-2.1574309357674792e-05,-1.1014087249350268e-05,6.005518662277609e-05
-3.01606396533316e-05,-6.984263745835051e-05,-1.590448482602369e-05,-1.1893637747562025e-05,5.7469558669254184e-05
-1.9247059753979556e-05,-6.445637154683936e-06,-6.114013558544684e-06,-8.789099410932977e-06,5.631182648357935e-05
-1.0080048014060594e-05,5.1496543164830655e-05,3.0585094918933464e-06,-2.751556394287036e-06,5.603200042969547e-05
-5.813826646772213e-06,6.960723840165883e-05,8.596361112722661e-06,1.3443287798509118e-06,5.600455551757477e-05
8.976756475931325e-07,6.715224299114197e-05,8.646325113659259e-06,1.2321894473643624e-06,5.5869881180115044e-05
2.4262162696686573e-05,6.800884148105979e-05,7.087714493536623e-06,3.7566753263718056e-08,5.7056207879213616e-05
5.957014218438417e-05,7.049758278299123e-05,8.072332093433943e-06,5.875833153368148e-07,5.95100864302367e-05
8.394988981308416e-05,7.434364670189098e-05,7.103055850166129e-06,-1.040445113176247e-06,6.142165511846542e-05
9.330094326287508e-05,7.156743959058076e-05,4.357429133960977e-06,-7.1202844083018135e-06,6.247541750781238e-05
9.348446474177763e-05,3.366459714015946e-05,2.879996372939786e-06,-1.5173326573858503e-05,6.191473949002102e-05
8.219660958275199e-05,-2.23640618060017e-05,-1.3768490134680178e-06,-2.1769707018393092e-05,5.7385033869650215e-05
6.481688615167513e-05,-4.5062246499583125e-05,-5.9880012486246414e-06,-2.124352613463998e-05,5.243039413471706e-05
4.4484218960860744e-05,-2.4435908926534466e-05,-5.519098067452433e-06,-1.384021197736729e-05,4.997372889192775e-05
2.9443501261994243e-05,-1.2413294825819321e-05,-2.200318249379052e-06,-1.080118181562284e-05,5.005373532185331e-05
2.907399357354734e-05,-3.204835593351163e-05,1.8151872609450947e-06,-1.4569000995834358e-05,5.212147152633406e-05
3.573630237951875e-05,-7.378910959232599e-05,4.554863153316546e-06,-1.680767491052393e-05,5.478200182551518e-05
2.93880257231649e-05,-9.885878534987569e-05,1.717977283988148e-06,-2.1068970454507507e-05,5.18563247169368e-05
-7.751945304335095e-06,-6.554539868375286e-05,-5.519508704310283e-06,-3.0169136152835563e-05,4.261377398506738e-05
-5.96178142586723e-05,-1.4801826182520017e-05,-1.0686063433240633e-05,-3.3295498724328354e-05,3.4420994779793546e-05
-9.50909306993708e-05,4.0376794459007215e-06,-1.1375611393305007e-05,-2.3852007871028036e-05,3.593127985368483e-05
-0.00010188485612161458,-1.470266124670161e-05,-9.552030860504601e-06,-1.0583101357042324e-05,4.331212039687671e-05
-8.973560761660337e-05,-5.3810748795513064e-05,-1.0470271263329778e-05,-4.376810011308407e-06,4.851252742810175e-05
-7.032867870293558e-05,-9.027207852341235e-05,-1.3618519005831331e-05,-9.01162093214225e-06,4.9723817937774584e-05
-5.44079375686124e-05,-9.021858568303287e-05,-1.5835987142054364e-05,-1.8196373275713995e-05,4.926727706333622e-05
-5.078019967186265e-05,-3.061689858441241e-05,-1.4974594705563504e-05,-2.182758180424571e-05,5.133717422722839e-05
-5.867976869922131e-05,7.198134699137881e-05,-1.1378160706954077e-05,-1.8344422642257996e-05,5.480990148498677e-05
-6.920151645317674e-05,0.00016444240463897586,-6.227824087545741e-06,-1.3261394087749068e-05,5.649070953950286e-05
-7.358524453593418e-05,0.00019738927949219942,-2.6701000024331734e-06,-1.0364436093368568e-05,5.6548720749560744e-05
-6.875738472444937e-05,0.00016836446593515575,-1.5557299093416077e-06,-9.769502867129631e-06,5.66917187825311e-05
-5.640430026687682e-05,0.00011634306429186836,-7.011002480794559e-07,-1.1643142897810321e-05,5.472424527397379e-05
-4.4574993808055297e-05,8.868489385349676e-05,-2.7243052613812324e-07,-1.1816630831162911e-05,5.298744872561656e-05
-4.131826790398918e-05,9.780086838873103e-05,2.633639041960123e-06,-7.553401246696012e-06,5.3704821766586974e-05
-4.834229912376031e-05,0.0001136384453275241,9.748844604473561e-06,-2.864152747861226e-06,5.648904698318802e-05
-5.879240052308887e-05,0.00010988023859681562,1.5470457583433017e-05,-1.9782278286584187e-06,5.604585021501407e-05
-6.697390927001834e-05,9.587254317011684e-05,1.5658057236578315e-05,-3.283435944467783e-06,5.194301775190979e-05
-6.757724622730166e-05,8.706890366738662e-05,1.3109233805153053e-05,-3.427877118156175e-06,5.0182130507892e-05
-5.6169021263485774e-05,8.514933142578229e-05,1.1342015568516217e-05,-1.067193693415902e-06,5.1229089876869693e-05
-3.383581497473642e-05,8.169162174453959e-05,1.4134171578916721e-05,4.5427745476445125e-07,5.16001382493414e-05
-9.956193025573157e-06,7.148154691094533e-05,1.9370227164472453e-05,-2.26334850594867e-06,5.303355646901764e-05
2.994492206198629e-06,5.009983942727558e-05,2.132655390596483e-05,-8.497911039739847e-06,5.366267578210682e-05
1.1759525477827992e-06,2.906878580688499e-05,1.7405825929017738e-05,-1.1206376257177908e-05,4.982152677257545e-05
-1.3255747717266786e-06,2.078511897707358e-05,1.4023215953784529e-05,-9.300815690949094e-06,4.5895772927906364e-05
9.051173947227653e-06,6.575438874278916e-06,1.3765540643362328e-05,-6.4566074797767214e-06,4.845026705879718e-05
2.0712157493107952e-05,-1.613280073797796e-05,1.620754846953787e-05,-4.2203696466458496e-06,5.684324059984647e-05
1.994974991248455e-05,-2.7723055609385483e-05,1.8805019863066263e-05,-7.851110240153503e-06,6.348698661895469e-05
7.290639587154146e-06,-2.152941124222707e-05,1.592042281117756e-05,-1.1739227375073824e-05,6.377007957780734e-05
-9.140239853877574e-06,-8.141557373164687e-06,1.1657785762508865e-05,-1.1694541171891615e-05,5.906046135351062e-05
-1.9383365724934265e-05,-5.6176613725256175e-06,1.1189545148226898e-05,-1.2444887943274807e-05,5.494225842994638e-05
-2.296916500199586e-05,7.700671631027944e-06,1.1063105375797022e-05,-1.3338850294530857e-05,5.3629279136657715e-05
-3.112922058789991e-05,5.230208262219094e-05,8.488231287628878e-06,-1.3212767953518778e-05,5.4886833822820336e-05
-4.654847361962311e-05,0.00010674068471416831,7.06115042703459e-06,-1.6685535229044035e-05,5.4830055887578055e-05
-5.651118772220798e-05,0.00013438727182801813,7.200637810456101e-06,-2.3412414520862512e-05,5.487374801305123e-05
-5.301297642290592e-05,0.00012304328265599906,6.946098892512964e-06,-2.6966223231283948e-05,5.793022137368098e-05
-4.2167484934907407e-05,8.63134118844755e-05,4.858703505306039e-06,-2.62542198470328e-05,6.214634777279571e-05
-3.3275358873652294e-05,3.6777619243366644e-05,1.8487660327082267e-06,-2.3195463654701598e-05,6.444277823902667e-05
-2.6462808818905614e-05,-4.8712063289713115e-06,5.821781883241783e-07,-1.9524663002812304e-05,6.596988532692194e-05
-1.7765052689355798e-05,-2.1601417756755836e-05,1.29038562590722e-06,-1.8968899894389324e-05,6.662629311904311e-05
-8.910196811484639e-06,-1.6127807612065226e-05,2.095298896165332e-06,-2.31628382607596e-05,6.541518087033182e-05
-6.1622204157174565e-06,-2.4081739411485614e-06,2.1731423203164013e-06,-2.546196810726542e-05,6.587759708054364e-05
-7.487725270038936e-06,1.3854361895937473e-05,1.5051832633616868e-06,-2.241470428998582e-05,6.884411413921043e-05
-7.427264790749177e-06,2.257450978504494e-05,5.130380600348872e-07,-2.0944542484357953e-05,7.191961776698008e-05
-9.663679520599544e-06,1.637948844290804e-05,-1.7174926369989407e-07,-2.1825009753229097e-05,7.059979543555528e-05
-1.7675642084213905e-05,2.3725112896499922e-06,1.0310994866813417e-06,-2.0220133592374623e-05,6.478976138168946e-05
-2.2446405637310818e-05,-8.826977136777714e-06,6.489884071925189e-06,-1.8807040760293603e-05,6.0361464420566335e-05
-2.0890278392471373e-05,-1.1469633136584889e-05,1.0194664355367422e-05,-1.6672500350978225e-05,5.7085355365416035e-05
-2.043335734924767e-05,-2.020266492763767e-06,6.536190994665958e-06,-1.4076251318329014e-05,5.456230428535491e-05
-2.2814208932686597e-05,8.76780723046977e-06,3.0364421945705544e-06,-1.4403867680812255e-05,5.6857978051993996e-05
-2.898701495723799e-05,1.0756081792351324e-05,6.0496231526485644e-06,-1.4463826119026635e-05,6.029396899975836e-05
-3.783303691307083e-05,5.833953764522448e-06,1.0065425158245489e-05,-1.626959056011401e-05,6.154925358714536e-05
-4.287249976187013e-05,-8.788576906226808e-07,1.0428918358229566e-05,-2.164468605769798e-05,6.129249959485605e-05
-4.127644206164405e-05,-3.2564355478825746e-06,8.4271450759843e-06,-2.7322448659106158e-05,6.300979293882847e-05
-3.717673826031387e-05,3.104949655607925e-06,1.0796969036164228e-05,-2.872573895729147e-05,6.587192910956219e-05
-3.304160782136023e-05,1.0908927833952475e-05,1.6499421690241434e-05,-2.6808909751707688e-05,6.741347897332162e-05
-3.137308158329688e-05,1.4924454262654763e-05,1.707827868813183e-05,-2.638470323290676e-05,6.526589277200401e-05
-3.328754610265605e-05,1.7245298295165412e-05,1.2742034414259251e-05,-2.6953233827953227e-05,6.258163921302184e-05
-3.410441422602162e-05,2.122832665918395e-05,5.9649623835866805e-06,-2.6047528081107885e-05,6.350433977786452e-05
-3.18293459713459e-05,2.6559133402770385e-05,2.6268683086527744e-06,-2.2575655748369172e-05,6.649467104580253e-05
-2.903413951571565e-05,2.900927938753739e-05,1.3217486412031576e-06,-2.0765133740496822e-05,6.970251706661656e-05
-2.5723360522533767e-05,2.70208838628605e-05,-4.6802472297713393e-07,-2.2796859411755577e-05,7.18439114280045e-05
-2.2067268218961544e-05,2.3835616957512684e-05,-2.845931703632232e-06,-2.1796100554638542e-05,7.21746837371029e-05
-1.9959095880039968e-05,2.3937849618960172e-05,-5.487653197633335e-06,-1.3825334463035688e-05,7.105538679752499e-05
-2.1008689145673998e-05,2.4094781110761687e-05,-7.235342309286352e-06,-6.538496563734952e-06,6.904767360538244e-05
-2.2812726456322707e-05,2.307569229742512e-05,-7.541064860561164e-06,-7.525791716034291e-06,6.799184484407306e-05
-2.2524469386553392e-05,2.1956559066893533e-05,-6.69812743581133e-06,-1.4558155271515716e-05,6.659190694335848e-05
-2.111609501298517e-05,2.2459404135588557e-05,-6.41272026769002e-06,-2.0672616301453672e-05,6.16096003795974e-05
-2.387616586929653e-05,2.68519052042393e-05,-8.020408131415024e-06,-1.9654238712973893e-05,5.531248825718649e-05
-3.1811778171686456e-05,3.272505273343995e-05,-1.2366967894195113e-05,-1.5190762496786192e-05,5.318716284818947e-05
-4.007808456663042e-05,3.166251190123148e-05,-1.7479453163105063e-05,-1.127223004004918e-05,5.478072489495389e-05
-4.334949335316196e-05,3.089740130235441e-05,-2.3071523173712194e-05,-7.13000872565317e-06,5.1629853260237724e-05
-4.269658893463202e-05,4.093126699444838e-05,-2.4344062694581226e-05,-3.470440333330771e-06,4.459424235392362e-05
-4.333370816311799e-05,5.566551044466905e-05,-1.9520042769727297e-05,-1.3261885669635376e-06,4.4196036469656974e-05
-4.082057057530619e-05,6.287877477006987e-05,-1.2443197192624211e-05,7.070880769788346e-07,4.879689004155807e-05
-3.38961835950613e-05,5.862645048182458e-05,-5.544468422158388e-06,2.501756398487487e-06,5.1071623602183536e-05
-3.1236653740052134e-05,4.837904998566955e-05,1.7186059722007485e-06,5.084354484097275e-07,5.2178686019033194e-05
-3.4862387110479176e-05,3.820877100224607e-05,1.0348546311433893e-05,-2.033629471043241e-06,5.302250065142289e-05
-3.464963810984045e-05,2.6404584787087515e-05,2.0762587155331858e-05,-3.5730618037632667e-06,5.494722063303925e-05
-2.96249236271251e-05,1.4608804121962748e-05,3.233114694012329e-05,-2.6855298074224265e-06,5.426771895145066e-05
-2.873181801987812e-05,-1.5001179235696327e-05,3.8822876376798376e-05,-2.936876853709691e-06,5.714009967050515e-05
-3.464844121481292e-05,-4.7729703510412946e-05,3.8373214920284227e-05,-5.444953785627149e-06,5.979344859952107e-05
-4.135697236051783e-05,-4.149073356529698e-05,3.742186527233571e-05,-5.8263744904252235e-06,5.701303234673105e-05
-4.602241097018123e-05,-5.1625847845571116e-06,3.7063698982819915e-05,-4.835265372094e-06,5.564694220083766e-05
-4.297199848224409e-05,3.0849521863274276e-05,3.628979902714491e-05,-4.505949618760496e-06,5.614982364932075e-05
-3.112814374617301e-05,5.074703221907839e-05,3.5903387470170856e-05,-6.493006367236376e-06,5.7218388974433765e-05
-2.0680354282376356e-05,5.9764275647467e-05,3.4304386645089835e-05,-7.035467206151225e-06,5.8965735661331564e-05
-1.4334355910250451e-05,5.820651495014317e-05,2.9927303330623545e-05,-2.9171956157370005e-06,6.361637497320771e-05
-8.223628356063273e-06,5.414514089352451e-05,2.398466858721804e-05,4.372495368443197e-06,6.819902773713693e-05
-3.2434564900540863e-07,5.179632717045024e-05,1.54061199282296e-05,7.525564342358848e-06,7.064324745442718e-05
3.935001132049365e-06,5.000152305001393e-05,5.26470512340893e-06,1.928098072312423e-06,6.767678132746369e-05
1.458056772207783e-06,5.3396874136524275e-05,-3.437068244238617e-06,-7.3482874540786725e-06,6.038675564923324e-05
2.5431570520595415e-06,6.392977957148105e-05,-9.059127478394657e-06,-1.4366153664013837e-05,5.562571095651947e-05
1.3147991012374405e-05,7.33490232960321e-05,-7.480171916540712e-06,-1.6029702237574384e-05,5.548281114897691e-05
1.9995215552626178e-05,7.874762377468869e-05,-9.253066224346185e-08,-1.163997694675345e-05,5.780671563115902e-05
1.1925892977160402e-05,8.149813947966322e-05,5.541862265090458e-06,-6.009927346894983e-06,6.0622278397204354e-05
-7.518576239817776e-06,7.56557346903719e-05,7.231858944578562e-06,-6.635182671743678e-06,6.182057404657826e-05
-3.155208469252102e-05,6.062306056264788e-05,7.399347396130906e-06,-1.1217547580599785e-05,6.009441858623177e-05
-4.987421561963856e-05,3.9315520552918315e-05,8.462333425995894e-06,-1.2181800229882356e-05,5.9334248362574726e-05
-6.019073407514952e-05,2.1148027371964417e-05,1.041829636960756e-05,-9.151948688668199e-06,6.371622293954715e-05
-7.0742673415225e-05,1.4322228707897011e-05,1.2373991012282204e-05,-7.193092642410193e-06,7.016585732344538e-05
-8.248164522228763e-05,1.6511012290720828e-05,1.2021901966363657e-05,-9.385638804815244e-06,7.2268201620318e-05
-9.045671322382987e-05,1.7010812371154316e-05,1.0275359272782225e-05,-1.2221409633639269e-05,7.023182843113318e-05
-8.477242954540998e-05,4.541362159216078e-06,1.6253534340648912e-05,-1.4023192306922283e-05,6.865712930448353e-05
-7.262513827299699e-05,1.023162894853158e-05,2.6987137971445918e-05,-1.4720879335072823e-05,6.861871224828064e-05
-5.929745748289861e-05,5.1164955948479474e-05,3.067814759560861e-05,-1.5316481949412264e-05,6.816806126153097e-05
-4.849717515753582e-05,7.568443834315985e-05,2.5169345462927595e-05,-1.6268744730041362e-05,6.682783714495599e-05
-3.9790938899386674e-05,6.782485434086993e-05,1.7563621440785937e-05,-1.7710828615236096e-05,6.688173743896186e-05
-2.317173857591115e-05,7.055055175442249e-05,1.1008841283910442e-05,-1.6132289601955563e-05,6.862347800051793e-05
-6.679724265268305e-06,0.0001010760388453491,4.284770966478391e-06,-8.983804946183227e-06,6.971573020564392e-05
3.953457053285092e-06,0.00011234369594603777,-5.932013209530851e-06,-7.760381208754552e-07,6.952793046366423e-05
6.784881861676695e-06,7.223729335237294e-05,-1.916895962494891e-05,8.090781307146244e-07,6.855757965240628e-05
8.016890205908567e-06,-8.51282038638601e-06,-3.7033412809250876e-05,-5.972906365059316e-06,6.363255670294166e-05
7.5271445894031785e-06,-8.596967381890863e-05,-5.4440552048617974e-05,-1.3978243259771261e-05,5.9769750805571675e-05
3.0203293590602698e-06,-0.00011691550753312185,-5.933348438702524e-05,-1.9267656170995906e-05,6.148545071482658e-05
-3.6378985441842815e-06,-9.485427290201187e-05,-4.980296944268048e-05,-1.8059728972730227e-05,6.607313844142482e-05
-9.57808515522629e-06,-3.89528795494698e-05,-3.1748008041176945e-05,-1.2287863683013711e-05,6.695895717712119e-05
-1.0550116712693125e-05,2.630491326272022e-05,-1.6575735571677797e-05,-8.34411821415415e-06,6.296741048572585e-05
-7.409740192088066e-06,7.413866114802659e-05,-7.913322406238876e-06,-9.493465768173337e-06,5.838796278112568e-05
-6.4690316321502905e-06,8.84794135345146e-05,-7.529563390562544e-07,-1.3250180018076207e-05,5.4836047638673335e-05
-1.434420482837595e-05,8.084726141532883e-05,9.612102076062001e-06,-1.4249001651478466e-05,5.170764779904857e-05
-2.393695103819482e-05,6.378310354193673e-05,1.9776634871959686e-05,-1.1212208846700378e-05,5.225077984505333e-05
-2.637993384269066e-05,4.545274714473635e-05,2.742869583016727e-05,-7.101638857420767e-06,5.9588521253317595e-05
-2.5092022042372264e-05,3.0098812203505076e-05,3.0935887480154634e-05,-4.551334768621018e-06,6.822284922236577e-05
-2.5378343707416207e-05,2.5908348106895573e-06,2.9124190405127592e-05,-3.957361968787154e-06,7.312920206459239e-05
-2.764394594123587e-05,-5.870810127817094e-05,2.310805575689301e-05,-5.499870439962251e-06,7.046692189760506e-05
-3.8159210816957057e-05,-0.00011620838631642982,1.6345024050679058e-05,-8.349361451109871e-06,6.537141598528251e-05
-4.7841396735748276e-05,-0.00011660920426947996,1.311026335315546e-05,-7.596293926326325e-06,5.877758303540759e-05
-4.768088911077939e-05,-6.301099347183481e-05,1.2552051884995308e-05,-3.09659048980393e-06,4.971421367372386e-05
-4.1416245949221775e-05,-5.204903118283255e-06,1.418390002072556e-05,-1.4910865786532668e-07,4.5596094423672184e-05
-2.5015335268108174e-05,1.7087553715100512e-05,1.5218659427773673e-05,-1.0221971251667128e-06,4.7719924623379484e-05
-1.025126130116405e-05,9.402066098118667e-06,1.4187295164447278e-05,-2.1657876914105145e-06,4.879524203715846e-05
-8.64286812429782e-06,2.664510247996077e-07,1.3258046237751842e-05,-2.9290840757312253e-06,4.8822468670550734e-05
-1.4726511835760903e-05,2.794009560602717e-06,1.0734295756265055e-05,-5.656385383190354e-06,5.0928159907925874e-05
-2.34109720622655e-05,1.5275028999894857e-05,8.12391226645559e-06,-5.348887953005033e-06,5.049867831985466e-05
-1.674771738180425e-05,3.626908073783852e-05,1.0769624168460723e-05,-9.325630117018591e-07,4.910387360723689e-05
1.894720844575204e-05,6.014451355440542e-05,1.9094228264293633e-05,5.218208571022842e-06,5.0683644076343626e-05
6.157720781629905e-05,7.931052095955238e-05,2.7003743525710888e-05,7.206437203421956e-06,5.37581872777082e-05
7.180200918810442e-05,8.70017393026501e-05,2.360057806072291e-05,2.6662853542802623e-06,5.2576757298083976e-05
4.432230707607232e-05,9.057804709300399e-05,9.978244634112343e-06,-4.9663321988191456e-06,4.731578519567847e-05
7.690742904742365e-07,9.229069837601855e-05,-3.875913080264581e-06,-1.0700115126383025e-05,4.720285505754873e-05
-4.345018896856345e-05,7.958280912134796e-05,-1.3971179214422591e-05,-1.3074357411824167e-05,4.988962973584421e-05
-7.820595055818558e-05,4.145148704992607e-05,-2.0016486814711243e-05,-1.5087688552739564e-05,4.9119429604616016e-05
-9.114199201576412e-05,-7.849151188565884e-06,-2.161829615943134e-05,-1.760469785949681e-05,4.534623440122232e-05
-8.117403922369704e-05,-3.504762935335748e-05,-1.8269571228302084e-05,-1.7357362594339065e-05,4.194635766907595e-05
-6.480289448518306e-05,-2.3343993234448135e-05,-1.313797474722378e-05,-1.2012730621790979e-05,4.0373208321398124e-05
-5.7880977692548186e-05,1.375369629386114e-05,-7.478593943233136e-06,-5.079026777821127e-06,4.1233477531932294e-05
-6.479022704297677e-05,4.0543603972764686e-05,-2.0128377400396857e-06,-3.089009936729781e-08,4.2849442252190784e-05
-7.695936801610515e-05,4.3324605940142646e-05,7.304145128728123e-07,1.048208901011094e-06,4.4388951209839433e-05
-8.477744268020615e-05,4.363792322692461e-05,9.416219199920306e-07,8.882158795131545e-07,4.456450915313326e-05
-8.841200906317681e-05,5.7273402489954606e-05,1.4937118919533532e-07,-2.4686977440069313e-07,4.6113327698549256e-05
-9.282278915634379e-05,7.270491914823651e-05,-1.6863237988218316e-06,-4.999657903681509e-06,5.316066381055862e-05
-9.752517507877201e-05,7.693901716265827e-05,-2.6014613467850722e-06,-1.2519758456619456e-05,6.011404184391722e-05
-9.881617006612942e-05,6.690472218906507e-05,-1.324172217209707e-06,-1.7605992979952134e-05,6.22216030023992e-05
-8.741284545976669e-05,5.0927403208334e-05,1.2067656598446774e-06,-1.7264901543967426e-05,6.0010101151419804e-05
-6.566871161339805e-05,4.2965861211996526e-05,2.506727923901053e-06,-1.3669028703588992e-05,5.731252167606726e-05
-4.594437632476911e-05,4.608447488863021e-05,-4.9606210268393625e-06,-8.230833373090718e-06,5.3736355766886845e-05
-2.5168565116473474e-05,5.060571857029572e-05,-1.4426091183850076e-05,-5.564737875829451e-06,4.847923992201686e-05
-4.59341617897735e-06,5.075828084954992e-05,-1.258101110579446e-05,-7.48343336454127e-06,4.842783891945146e-05
4.836560492549324e-06,4.611793701769784e-05,-3.442805564191076e-06,-9.181757377518807e-06,5.5850592616479844e-05
4.80422431792249e-06,4.035371239297092e-05,3.077612973356736e-06,-8.181670636986382e-06,6.0320660850265995e-05
5.367178346205037e-06,3.590595588320866e-05,1.9692108708113665e-06,-6.29689247944043e-06,5.8771558542503044e-05
9.401686838828027e-06,4.121087840758264e-05,-1.7032458572430187e-06,-4.4296184569248e-06,5.4605920013273135e-05
1.3371131899475586e-05,6.647218106081709e-05,-1.1693492751874146e-06,-1.4966709613872808e-06,5.297133247950114e-05
1.2857368346885778e-05,8.99387669051066e-05,5.128050361236092e-06,2.5612480385461822e-06,5.381075607147068e-05
7.2291409196623135e-06,9.570042311679572e-05,1.4682214896311052e-05,5.598701136477757e-06,5.5202512157848105e-05
2.472196456437814e-07,8.945432637119666e-05,1.9537554180715233e-05,4.2146903069806285e-06,5.753616278525442e-05
-1.1031481335521676e-05,7.911057764431462e-05,1.7235384802916087e-05,8.273854064100306e-07,6.0006583225913346e-05
-1.826609695854131e-05,6.87864376232028e-05,1.4291716070147231e-05,-1.9213518953620223e-06,6.561245390912518e-05
-8.03633429313777e-06,5.866246283403598e-05,1.677570617175661e-05,-4.347608353327814e-07,7.367043144768104e-05
1.310544121224666e-05,3.393522638361901e-05,2.0267556465114467e-05,2.177938540626201e-06,7.91161073721014e-05
2.3306894945562817e-05,-1.0074865713249892e-05,2.114953713316936e-05,1.2206542123749387e-06,7.648750033695251e-05
1.6567953935009427e-05,-4.54970941063948e-05,2.003851295739878e-05,-1.0303235740138916e-06,6.774679059162736e-05
4.6166323954821564e-06,-4.9364884034730494e-05,1.9311079086037353e-05,-3.3029498354153475e-06,6.071175084798597e-05
-1.8240787085233023e-06,-2.498097273928579e-05,1.939995854627341e-05,-5.874715043319156e-06,5.8325484133092687e-05
-2.7090391085948795e-06,1.1596177500905469e-05,2.1321831809473224e-05,-8.983322913991287e-06,5.884107304154895e-05
-5.4798624660179485e-06,4.289671778678894e-05,2.175862027797848e-05,-1.184356733574532e-05,6.197214679559693e-05
-7.58505166231771e-06,5.432682155515067e-05,1.8052674931823276e-05,-1.2713790056295693e-05,6.687830318696797e-05
-7.421915142913349e-06,4.801416434929706e-05,1.3383135410549585e-05,-8.655872989038471e-06,7.093087333487347e-05
-1.012223401630763e-05,3.56736418325454e-05,9.518356819171458e-06,-5.396693268266972e-06,7.354054105235264e-05
-1.8830905901268125e-05,2.6220246581942774e-05,6.5383760556869674e-06,-6.944610504433513e-06,7.44175267755054e-05
-2.4774313715170138e-05,1.8771157556329854e-05,4.635267032426782e-06,-8.439827070105821e-06,7.348049257416278e-05
-2.1473604647326283e-05,-5.35117442268529e-06,2.4649939405207988e-06,-1.1157898370584007e-05,7.191143231466413e-05
-1.8366183212492615e-05,-3.562424535630271e-05,-2.425307684461586e-06,-1.8494340110919438e-05,6.741027027601376e-05
-1.884103949123528e-05,-4.35098227171693e-05,-7.216818630695343e-06,-2.5997742341132835e-05,5.939818947808817e-05
-2.2351789084495977e-05,-3.758867387659848e-05,-1.5058339158713352e-05,-2.8069838663213886e-05,5.3768166253576055e-05
-2.8214548365212977e-05,-2.1647596440743655e-05,-1.9364149920875207e-05,-2.392005262663588e-05,5.1644437917275354e-05
-3.155989543301985e-05,-2.2781398456572788e-06,-1.3443117495626211e-05,-1.469396102038445e-05,5.1525701564969495e-05
-3.90259810956195e-05,3.3548983537912136e-06,-8.720094228920061e-06,-7.769228432152886e-06,5.7920042308978736e-05
-5.1707094826269895e-05,-6.56792553854757e-06,-9.302083526563365e-06,-8.620104381407145e-06,6.677948113065213e-05
-6.284724076977e-05,-1.7843021851149388e-05,-8.86022735357983e-06,-9.753466656547971e-06,6.872491940157488e-05
-6.643305823672563e-05,-2.091333044518251e-05,-7.264710347953951e-06,-7.5524221756495535e-06,6.558364111697301e-05
-6.288974691415206e-05,-1.5118972441996448e-05,-1.393299726260011e-06,-3.99517239202396e-06,6.400071288226172e-05
-5.8338908274890855e-05,1.0846498099681412e-07,7.285899755515857e-06,1.5281331116057117e-06,6.68938082526438e-05
-5.4169031500350684e-05,1.7722513803164475e-05,1.3706288882531226e-05,1.0748904969659634e-05,7.07074286765419e-05
-4.8209814849542454e-05,3.288493462605402e-05,1.8201410057372414e-05,1.8185099179390818e-05,7.184303103713319e-05
-4.301347871660255e-05,4.1983879782492295e-05,2.209169542766176e-05,2.0880506781395525e-05,6.957734149182215e-05
-4.101549711776897e-05,4.3669806473189965e-05,2.265311559312977e-05,1.7774715161067434e-05,6.7615277657751e-05
-4.2259802285116166e-05,3.961199035984464e-05,2.0593904991983436e-05,1.2948336006957106e-05,6.657376070506871e-05
-4.741008160635829e-05,3.366125747561455e-05,1.932740087795537e-05,1.040806182572851e-05,6.355534424073994e-05
-5.2229985158191994e-05,1.2940996384713799e-05,1.7994741938309744e-05,8.06255866336869e-06,5.984581366647035e-05
-4.8886588047025725e-05,-2.8014424970024265e-05,1.6538675481569953e-05,2.9120337785570882e-06,5.5262229579966515e-05
-3.535244468366727e-05,-4.446623279363848e-05,1.399481243424816e-05,-3.6501801332633477e-06,5.2203577070031315e-05
-2.2036741938791238e-05,-3.6597730286302976e-06,9.149726793111768e-06,-6.7814307840308174e-06,5.422108370112255e-05
-1.807478111004457e-05,5.905261787120253e-05,2.0922111616528127e-06,-5.983452865621075e-06,5.9851070545846596e-05
-1.8911310689873062e-05,0.00010020098852692172,-1.1537707678144216e-06,-5.523099389392883e-06,6.624004163313657e-05
-1.6203744962695055e-05,0.00011186390474904329,8.658394108351786e-07,-5.754881385655608e-06,6.963845225982368e-05
-1.0889050827245228e-05,0.00010818018927238882,2.1710391138185514e-06,-2.4600906272098655e-06,6.708518048981205e-05
-4.536524556897348e-06,0.00010319946159143001,4.523612005868927e-06,1.8513380837248405e-06,6.402660073945299e-05
4.3451113924675155e-06,9.493496327195317e-05,1.0448050488776062e-05,2.1543505681620445e-06,6.281489913817495e-05
1.09289985630312e-05,7.073142478475347e-05,1.59863629960455e-05,-2.468641469022259e-06,6.149445107439533e-05
7.760851985949557e-06,4.723971869680099e-05,2.1435700546135195e-05,-1.0053588994196616e-05,5.908311504754238e-05
-1.018778107209073e-06,5.22400441695936e-05,2.242641494376585e-05,-1.6917261746129952e-05,5.6250868510687724e-05
-1.2632291145564523e-05,6.249520811252296e-05,2.0053212210768834e-05,-2.160554868169129e-05,5.493366188602522e-05
-2.6109348254976794e-05,5.352686275728047e-05,2.002336987061426e-05,-2.8276541343075223e-05,5.4382497182814404e-05
-3.984355862485245e-05,3.742428816622123e-05,1.898280970635824e-05,-2.9802291464875452e-05,5.1237730076536536e-05
-6.09098315180745e-05,2.9872639061068185e-05,1.4527333405567333e-05,-2.7948823117185384e-05,4.237899338477291e-05
-7.798898877808824e-05,3.519925303407945e-05,1.0403628948552068e-05,-2.349157875869423e-05,3.448239294812083e-05
-7.76822998886928e-05,4.2625542846508324e-05,9.149664037977345e-06,-2.199075424869079e-05,3.738342638825998e-05
-6.435131217585877e-05,4.258073022356257e-05,9.88449392025359e-06,-2.276228042319417e-05,4.741867451230064e-05
-4.2679781472543254e-05,3.681318412418477e-05,8.158554919646122e-06,-2.1481524527189322e-05,5.3372568800114095e-05
-1.9539385903044604e-05,2.9007409466430545e-05,2.4053140350588365e-06,-2.114320159307681e-05,5.5466647609137e-05
-3.713622390932869e-06,7.835219548724126e-06,-3.243615083192708e-06,-2.2517679099109955e-05,5.5909909860929474e-05
-4.879064476881467e-07,-3.463512257440016e-05,-5.918991973885568e-06,-2.694016438908875e-05,5.4263498896034434e-05
-2.4277046577481087e-06,-6.358858809107915e-05,-2.8754109280271223e-06,-2.8602429665625095e-05,5.3466472309082747e-05
-2.485931645423989e-06,-5.564430830418132e-05,2.7293083348922664e-06,-2.820451663865242e-05,5.36591287527699e-05
-3.859821390506113e-06,-2.7180820325156674e-05,4.728243311546976e-06,-2.8635717171709985e-05,5.2257291827118024e-05
-9.794625839276705e-06,1.232091221936571e-06,4.560866727842949e-06,-3.11917501676362e-05,5.273829447105527e-05
-1.550514207337983e-05,2.0825920728384517e-05,5.807779416500125e-06,-3.2341322366846725e-05,5.5807824537623674e-05
-1.8481063307262957e-05,2.6167839678237215e-05,4.972667284164345e-06,-3.0483917726087384e-05,5.603136742138304e-05
-2.1653961084666662e-05,2.1205409211688675e-05,2.9141704089852283e-06,-2.6949435778078623e-05,5.289366526994854e-05
-2.462217707943637e-05,2.187583777413238e-05,2.8163026399852242e-06,-2.711397610255517e-05,5.0691425713011995e-05
-2.7919835702050477e-05,3.1594510801369324e-05,9.365526238980237e-07,-3.106593430857174e-05,5.10765312355943e-05
-3.111994010396302e-05,4.073306263308041e-05,-1.7647420236244216e-06,-3.08088019664865e-05,5.3058203775435686e-05
-3.329550600028597e-05,4.3185358663322404e-05,-1.0542183872530586e-06,-2.60457909462275e-05,5.6492252042517066e-05
-3.6497465771390125e-05,4.0018650906858966e-05,-4.3444890707178274e-07,-2.4222346837632358e-05,6.059750012354925e-05
-3.6198063753545284e-05,3.65502892236691e-05,-4.536589131021174e-06,-2.653966294019483e-05,6.278400542214513e-05
-3.380898488103412e-05,3.53858049493283e-05,-6.082114396122051e-06,-2.8671769541688263e-05,6.183399091241881e-05
-3.513617048156448e-05,3.455077967373654e-05,6.365184503920318e-07,-2.5848494260571897e-05,5.883984704269096e-05
-3.5620534617919475e-05,3.183895387337543e-05,6.095341632317286e-06,-2.5213479602825828e-05,5.362660886021331e-05
-3.766782538150437e-05,2.7625044822343625e-05,6.963879968679976e-06,-2.9767204978270456e-05,5.007698564440943e-05
-3.9857633964857087e-05,2.5587687559891492e-05,4.77739013149403e-06,-3.3638094464549795e-05,5.036476795794442e-05
-3.250561348977499e-05,2.554192724346649e-05,1.7693511153993313e-06,-3.607042890507728e-05,5.354192035156302e-05
-2.1874142476008274e-05,2.7176600269740447e-05,1.1392704664103803e-06,-3.597380782593973e-05,5.7600449508754537e-05
-1.9786406483035535e-05,2.997823139594402e-05,6.615673697751845e-08,-3.478138387436047e-05,5.891348700970411e-05
-2.3487475118599832e-05,3.251538146287203e-05,-2.2976585114520276e-06,-3.54626499756705e-05,5.5635373428231105e-05
-2.794018291751854e-05,3.2195217499975115e-05,-4.283075213606935e-06,-3.395448948140256e-05,5.0467966502765194e-05
-3.0002178391441703e-05,2.8856293283752166e-05,-3.7059933220007224e-06,-2.6615827664500102e-05,4.7646270104451105e-05
-2.781771581794601e-05,2.3074138880474493e-05,-1.0028027190855937e-06,-1.7274063793593086e-05,4.9743091949494556e-05
-2.2212316252989694e-05,2.303419569216203e-05,8.995095868158387e-07,-1.196779794554459e-05,5.3630330512532964e-05
-1.7635367839829996e-05,3.0855040677124634e-05,-3.0720812560502964e-07,-1.1145538337586913e-05,5.522382343770005e-05
-1.7671220120973885e-05,3.968415694544092e-05,-2.4071341613307595e-06,-9.226945621776395e-06,5.5662356317043304e-05
-2.2823764084023423e-05,4.419493780005723e-05,-2.249189265057794e-06,-5.890986358281225e-06,5.7062301493715495e-05
-3.255942647228949e-05,4.265301686245948e-05,-1.3600972579297377e-06,-5.655843324348098e-06,5.948311445536092e-05
-4.312858800403774e-05,3.808493784163147e-05,-5.2975724429416005e-06,-1.1819727660622448e-05,6.248195859370753e-05
-4.834836727241054e-05,3.776134326471947e-05,-1.2872914339823183e-05,-1.9234425053582527e-05,6.519532325910404e-05
-4.151646135142073e-05,4.4246582547202706e-05,-1.8215014279121533e-05,-2.115519055223558e-05,6.74002876621671e-05
-2.7235684683546424e-05,4.96904322062619e-05,-1.980785236810334e-05,-1.843182326410897e-05,6.700816447846591e-05
-1.9281271306681447e-05,4.3698677473003045e-05,-1.722339766274672e-05,-1.573635745444335e-05,6.401959399227053e-05
-2.1531202946789563e-05,2.5318508050986566e-05,-1.1701060429913923e-05,-1.2989242350158747e-05,6.327527808025479e-05
-2.7128720830660313e-05,1.626052471692674e-05,-3.7999982396286214e-06,-8.978488949651364e-06,6.431851215893403e-05
-2.8232640033820644e-05,3.099862078670412e-05,4.122086465940811e-06,-4.066235760546988e-06,6.582366768270731e-05
-1.9881110347341746e-05,5.5156302551040426e-05,5.860298188054003e-06,2.2462065771833295e-06,6.67815693304874e-05
-6.418926659534918e-06,6.782363197999075e-05,5.157636223884765e-06,1.2937674000568222e-05,6.682569801341742e-05
-7.353242494900769e-07,6.718297663610429e-05,8.364433597307652e-06,2.3833008526708e-05,6.678346107946709e-05
-1.329135920968838e-05,6.848611519671977e-05,1.5064789295138326e-05,3.0243361834436655e-05,6.5961605287157e-05
-2.6051282475236803e-05,7.276358519447967e-05,2.4127386495820247e-05,2.832518657669425e-05,6.842146831331775e-05
-2.730462256295141e-05,6.986024527577683e-05,2.838233376678545e-05,2.1109659428475425e-05,6.964968633837998e-05
-2.176282760046888e-05,6.193139415699989e-05,2.3825868993299082e-05,1.5524077753070742e-05,6.338107050396502e-05
-1.265092123503564e-05,5.659554881276563e-05,1.8355165593675338e-05,1.096005507861264e-05,5.518431498785503e-05
-9.60464240051806e-06,4.589761374518275e-05,1.7432557797292247e-05,8.319308108184487e-06,4.9522157496539876e-05
-1.3012930139666423e-05,1.7333390132989734e-05,2.0380906789796427e-05,5.63589946978027e-06,4.9416794354328886e-05
-1.8294003893970512e-05,-7.965256372699514e-06,2.3777913156664e-05,4.146232186030829e-06,5.480603067553602e-05
-1.6743175365263596e-05,-1.2092423276044428e-05,2.120491990353912e-05,3.695784698720672e-06,6.339316314551979e-05
-1.1150072168675251e-05,-3.436612814766704e-06,1.4551672393281478e-05,1.546341877656232e-06,6.518927693832666e-05
-9.924020559992641e-06,5.828199391544331e-06,9.140373549598735e-06,4.868910536970361e-07,5.9271318605169654e-05
-1.51143312905333e-05,1.5101002645678818e-05,6.180996479088208e-06,1.5562637827315484e-06,5.2259918447816744e-05
-2.1988264052197337e-05,2.1341294996091165e-05,3.7427450934046647e-06,3.1409065286425175e-06,5.0579721573740244e-05
-2.7330035663908347e-05,2.0037847207277082e-05,1.4547058526659384e-06,4.786174940818455e-06,5.492387936101295e-05
-3.0047400287003256e-05,1.750220326357521e-05,7.728508677473656e-08,6.237991783564212e-06,5.7893514167517424e-05
-3.332378400955349e-05,2.201751703978516e-05,2.924824400452053e-07,6.792569820390781e-06,5.8926667406922206e-05
-3.8846108509460464e-05,2.5859686502371915e-05,3.067061925321468e-06,3.4726167541521136e-06,6.147199019324034e-05
-4.161893593845889e-05,1.1156076652696356e-05,6.007255251461174e-06,-5.239107849774882e-06,6.173771544126794e-05
-3.649762220447883e-05,-1.1261508916504681e-05,3.963723884226056e-06,-1.3883402061765082e-05,5.807655179523863e-05
-2.451847103657201e-05,-1.3962144294055179e-05,-7.834833581910061e-07,-1.535840601718519e-05,5.539333142223768e-05
-1.5296787751140073e-05,5.003917976864614e-06,-7.49202627048362e-07,-9.872088412521407e-06,5.483112181536853e-05
-1.2507140127127059e-05,2.562548434070777e-05,1.267787411052268e-06,-3.936112079827581e-06,5.594130198005587e-05
-1.756397250574082e-05,3.5378598113311455e-05,1.8631363900567521e-06,-2.936023747679428e-06,5.598494681180455e-05
-3.722789551829919e-05,3.569989712559618e-05,-1.299991140513157e-06,-6.890238182677422e-06,5.20359244546853e-05
-6.491857493529096e-05,3.913210821337998e-05,-1.2445097127056215e-05,-1.2674065146711655e-05,4.3897609430132434e-05
-7.492289296351373e-05,3.814713272731751e-05,-2.010599200730212e-05,-1.279047046409687e-05,4.0970367990667e-05
-5.297107782098465e-05,2.5594732505851425e-05,-1.112496556743281e-05,-3.6825726965616923e-06,4.718104537460022e-05
-8.703286766831297e-06,2.64441277977312e-05,1.7806519281293731e-06,4.479385097511113e-06,5.4446692956844345e-05
1.965771480172407e-05,3.984864815720357e-05,6.7121945903636515e-06,1.296584059673478e-06,5.910286199650727e-05
1.6143236280186102e-05,4.275243554729968e-05,1.3007835150347091e-05,-2.9786942832288332e-06,6.649760325672105e-05
-6.175739144964609e-06,3.831973663181998e-05,2.429437154205516e-05,1.0130099781235913e-06,7.318933785427362e-05
-3.3797998185036704e-05,3.3784093830036e-05,3.245734114898369e-05,1.0903573866016814e-06,7.164035923779011e-05
-5.758947372669354e-05,2.272001074743457e-05,2.9840331990271807e-05,-6.609731372009264e-06,6.048375507816672e-05
-6.88971413183026e-05,2.107574800902512e-06,1.791734939615708e-05,-1.5224840353766922e-05,4.9820522690424696e-05
-6.345697329379618e-05,-1.1975065717706457e-05,1.1219631232961547e-05,-1.9960765712312423e-05,4.8149508074857295e-05
-5.3147457947488874e-05,-9.41868893278297e-06,1.1790953976742458e-05,-1.8941860616905615e-05,5.3218569519231096e-05
-4.455858652363531e-05,-3.996030045527732e-06,1.0451067282701842e-05,-1.559913835080806e-05,5.8984696806874126e-05
-3.614883098634891e-05,-9.358821444038767e-06,4.838248059968464e-06,-1.3506400136975572e-05,6.288257281994447e-05
-2.252402737212833e-05,-1.2316625543462578e-05,-2.184975301133818e-06,-1.4811499568168074e-05,6.713888433296233e-05
-1.01740306490683e-05,-3.887697857862804e-06,-5.521892944670981e-06,-1.7119062249548733e-05,7.1013841079548e-05
-9.967639016394969e-06,7.4123686317761894e-06,-2.8856873086624546e-06,-1.68781971296994e-05,7.383858610410243e-05
-1.9779903595917858e-05,1.449314095225418e-05,4.646579327527434e-06,-1.5253975107043516e-05,7.239513797685504e-05
-3.053888940485194e-05,1.7647284039412625e-05,1.2071172932337504e-05,-1.4558982002199627e-05,6.80834345985204e-05
-4.066371911903843e-05,2.2134920072858222e-05,1.5322966646635905e-05,-1.4998567166912835e-05,6.48753484711051e-05
-5.422733738669194e-05,2.9897648346377537e-05,1.5664649254176766e-05,-1.5423969671246596e-05,6.383970321621746e-05
-6.771898188162595e-05,4.0877846913645044e-05,1.4600040231016465e-05,-1.4595798347727396e-05,6.354611105052754e-05
-7.251360511872917e-05,4.99944289913401e-05,1.2318894732743502e-05,-1.2661671462410595e-05,6.275795749388635e-05
-6.552397826453671e-05,5.3884512453805655e-05,1.1272693882347085e-05,-1.312200583925005e-05,6.14110249443911e-05
-5.39519423909951e-05,5.4289190302370116e-05,1.0777798706840258e-05,-1.4678554180136416e-05,6.145588122308254e-05
-4.418503522174433e-05,4.9675058107823133e-05,8.527427780791186e-06,-1.2027750017296057e-05,6.285771814873442e-05
-3.733882476808503e-05,4.180878750048578e-05,5.0765065680025145e-06,-4.940764029015554e-06,6.232735177036375e-05
-3.46799279213883e-05,4.7080797230592e-05,2.598839273559861e-06,6.837057071606978e-07,6.0025136917829514e-05
-3.314812056487426e-05,6.370817573042586e-05,-1.0022911283158464e-06,4.259036359144375e-06,5.849673834745772e-05
-2.8319869670667686e-05,6.851903162896633e-05,-8.17948966869153e-06,5.069392500445247e-06,5.803285966976546e-05
-1.828341555665247e-05,5.486951340571977e-05,-1.2358827916614246e-05,-1.635552848711086e-06,5.839328878209926e-05
-6.736123395967297e-06,4.0487964724889025e-05,-1.1364459169271868e-05,-5.729980784963118e-06,6.036878767190501e-05
-2.3188526938611176e-06,2.86638878606027e-05,-6.900344942550873e-06,-4.762633125210414e-06,6.366019078996032e-05
-4.840914698434062e-06,1.4407880371436477e-05,-3.3836884085758356e-06,-6.76481113259797e-06,6.324730929918587e-05
-1.0429616850160528e-05,8.18447006167844e-06,3.761597042739595e-07,-1.372762108076131e-05,5.86044043302536e-05
-1.1053821253881324e-05,1.119259286497254e-05,5.601237717201002e-06,-1.862532735685818e-05,5.390508158598095e-05
-8.312363206641749e-06,1.4612367522204295e-05,8.522711141267791e-06,-1.627263191039674e-05,5.098138717585243e-05
-9.941679309122264e-06,1.824262108129915e-05,1.0823516277014278e-05,-1.0323520655219909e-05,5.119598063174635e-05
-1.1376779184502084e-05,2.1425652448670007e-05,1.402802809025161e-05,-4.588675437844358e-06,5.1773105951724574e-05
-1.2691360097960569e-05,2.3808028345229104e-05,1.635525950405281e-05,-5.555488769459771e-06,4.953303869115189e-05
-1.6059018889791332e-05,2.7507256163517013e-05,1.4869681763229892e-05,-1.1114453627669718e-05,4.8649118980392814e-05
-1.5405716112582013e-05,3.086997821810655e-05,1.074031024472788e-05,-1.6030144251999445e-05,5.2170929848216474e-05
-8.878897460817825e-06,3.2638276024954394e-05,5.8597470342647284e-06,-1.8597214875626378e-05,5.725871233153157e-05
-5.133284048497444e-06,3.3843480196082965e-05,4.239787358528702e-06,-1.9167591744917445e-05,6.250602746149525e-05
-7.801416359143332e-06,3.9481339626945555e-05,5.565366791415727e-06,-1.7292893971898593e-05,6.51238951832056e-05
-8.717733180674259e-06,4.8008467274485156e-05,8.76490321388701e-06,-1.6168065485544503e-05,6.357800157275051e-05
-3.6032711250300054e-06,5.5753094784449786e-05,1.3122465134074446e-05,-1.9212355255149305e-05,5.9592035540845245e-05
1.934381089085946e-06,6.0992882936261594e-05,1.8220689526060596e-05,-2.112508263962809e-05,5.537622200790793e-05
2.9554523734987015e-06,6.090043825679459e-05,2.1128455045982264e-05,-1.6661111658322625e-05,5.3165633289609104e-05
-1.0833783790076268e-06,5.4791667935205624e-05,2.132590816472657e-05,-9.22673280001618e-06,5.207633148529567e-05
-1.0078872946905904e-05,4.845897274208255e-05,2.1929934518993832e-05,-7.350784926529741e-06,5.0226430175825953e-05
-2.094127376039978e-05,4.1002909711096436e-05,2.169910840166267e-05,-1.1352611181791872e-05,5.053315908298828e-05
-2.4854622097336687e-05,2.528139521018602e-05,1.7722948541631922e-05,-1.4739588550582994e-05,5.243636769591831e-05
-1.9259428881923668e-05,4.800038823304931e-06,1.1246006579312962e-05,-1.8207909306511283e-05,5.426915595307946e-05
-1.3826516806147993e-05,-6.37859648122685e-06,7.5549419307208154e-06,-2.1635956727550365e-05,5.3163192205829546e-05
-1.9047076420974918e-05,-2.029573124673334e-06,7.643328899575863e-06,-2.0511281036306173e-05,5.0195420044474304e-05
-3.0122915632091463e-05,4.543554041447351e-06,9.039887117978651e-06,-1.7953694623429328e-05,4.830271063838154e-05
-3.813955845544115e-05,6.848107659607194e-06,9.941809366864618e-06,-1.8228749468107708e-05,4.459856791072525e-05
-3.844677848974243e-05,6.662698069703765e-06,6.8655822360597085e-06,-2.0873094399576075e-05,4.212752901366912e-05
-3.1945062801241875e-05,7.231879862956703e-06,7.066896046126203e-07,-2.235061583633069e-05,4.643261854653247e-05
-1.9265751689090393e-05,1.5685209291405044e-05,-9.251922392650158e-07,-1.7916725482791662e-05,5.467283699545078e-05
-1.8667404901862028e-06,2.4837121600285172e-05,5.051087441643176e-07,-8.536991117580328e-06,6.072769610909745e-05
3.3553724279045127e-06,2.3853401216911152e-05,2.068909225272364e-06,-4.616508704202715e-06,6.23743690084666e-05
-8.171020454028621e-06,1.918099951581098e-05,1.8999562598764896e-06,-7.650202860531863e-06,5.965417585684918e-05
-2.3067193978931755e-05,1.7123040379374288e-05,2.2716899366059806e-06,-1.1562449799384922e-05,5.423828770290129e-05
-3.177569669787772e-05,1.9148837964166887e-05,3.388174263818655e-06,-1.2824187251680996e-05,4.874410296906717e-05
-3.469684816082008e-05,3.1787199986865744e-05,4.799592716153711e-06,-1.0398583981441334e-05,4.663689105655067e-05
-3.600011768867262e-05,4.832163540413603e-05,5.451610377349425e-06,-7.020995781203965e-06,4.698908014688641e-05
-4.135872222832404e-05,5.8348039601696655e-05,4.0771797102934215e-06,-5.867911113455193e-06,5.151014920556918e-05
-5.186322596273385e-05,5.921792399021797e-05,3.4254724141646875e-06,-5.899305051570991e-06,6.01676401856821e-05
-6.12894436926581e-05,5.210269955568947e-05,4.638270183932036e-06,-5.390596470533637e-06,7.000960613368079e-05
-6.699308141833171e-05,3.2006417313823476e-05,6.685930657113204e-06,-6.164290425658692e-06,7.219765393529087e-05
-6.793814827688038e-05,-4.528444605966797e-06,5.100645012134919e-06,-8.93164542503655e-06,6.566460797330365e-05
-6.26418404863216e-05,-3.60323247150518e-05,6.513839707622537e-07,-1.151881406258326e-05,6.134198338259012e-05
-5.396232154453173e-05,-3.838228803942911e-05,-2.327593165318831e-06,-1.090507248591166e-05,6.428415508707985e-05
-4.932050796924159e-05,-1.84302989509888e-05,-1.7977449715544935e-06,-6.621388365601888e-06,6.949342059670016e-05
-4.8547706683166325e-05,-4.306718437874224e-06,1.6952449755081034e-07,-3.5003972698177677e-06,6.976273289183155e-05
-4.576276114676148e-05,-3.088001676587737e-06,2.0836698695347877e-06,-6.107597982918378e-06,6.774751818738878e-05
-3.720485619851388e-05,-1.0875734233195544e-06,2.769505954347551e-06,-1.1987825928372331e-05,6.585021765204147e-05
-2.3482627511839382e-05,1.3802222383674234e-05,2.600894958959543e-06,-1.4895682397764176e-05,6.421458238037303e-05
-1.264405273104785e-05,3.356257366249338e-05,5.553642381528334e-07,-1.3117261914885603e-05,6.428224151022732e-05
-9.857400073087774e-06,4.56243178632576e-05,-2.57959914051753e-06,-1.0451658454257995e-05,6.607037357753143e-05
-4.2516117559898703e-07,5.276470983517356e-05,-5.418481123342644e-06,-1.1110079867648892e-05,6.693354953313246e-05
1.9073930161539465e-05,4.453799192560837e-05,-6.263176601351006e-06,-1.2602684364537708e-05,6.825997843407094e-05
2.828071046678815e-05,1.4604347597924061e-05,-7.2940752033900935e-06,-1.0551059858698864e-05,6.722906255163252e-05
1.5964804333634675e-05,-8.655397323309444e-06,-1.554346272314433e-05,-1.1105374142061919e-05,6.617517647100613e-05
-3.865336111630313e-06,9.547401305098902e-07,-2.3626180336577818e-05,-1.3506054528988898e-05,6.459113501477987e-05
-2.1615236619254574e-05,3.324816134409048e-05,-2.2641837858827785e-05,-1.5335835996665992e-05,6.126654625404626e-05
-3.672709135571495e-05,6.201950600370765e-05,-1.555346170789562e-05,-1.6424670320702717e-05,6.123191997176036e-05
-4.3179639760637656e-05,7.681789429625496e-05,-7.107110377546633e-06,-1.4028495570528321e-05,6.217078771442175e-05
-4.5557266275864094e-05,8.085014269454405e-05,3.620138215865154e-07,-9.791870070330333e-06,6.385442975442857e-05
-4.447399260243401e-05,7.906866812845692e-05,7.593122518301243e-06,-7.3870705818990245e-06,6.427896005334333e-05
-3.871081571560353e-05,7.228773029055446e-05,1.4552223547070753e-05,-7.110983460734133e-06,6.409240450011566e-05
-2.7627967938315123e-05,6.1646023823414e-05,1.7195674445247278e-05,-6.23043433733983e-06,6.27800400252454e-05
-1.5640873243683018e-05,4.4995285861659795e-05,1.6904956282814965e-05,-5.34671153218369e-06,6.007856791256927e-05
-9.255309123545885e-06,1.7522297639516182e-05,1.6951549696386792e-05,-4.506522600422613e-06,5.7012188335647807e-05
-1.3741187103732955e-05,-6.174020654725609e-06,1.7947075320989825e-05,-3.3930366498680087e-06,5.5862084991531447e-05
-2.182339085265994e-05,-7.441833986376878e-06,1.7572474462212995e-05,-2.974785729747964e-06,5.803449676022865e-05
-2.3869022697908804e-05,7.798707883921452e-06,1.700468965282198e-05,-3.774965762204374e-06,6.021413719281554e-05
-2.0111969206482172e-05,2.564539317972958e-05,1.8667902622837573e-05,-3.5800046589429257e-06,6.004624810884707e-05
-1.658544351812452e-05,4.068085036124103e-05,1.9622686522779986e-05,-2.885621370296576e-06,5.885837526875548e-05
-1.8900820577982813e-05,4.396441363496706e-05,1.7088961612898856e-05,-4.649788479582639e-06,5.703497663489543e-05
-2.586494701972697e-05,3.18430429615546e-05,1.2881650945928413e-05,-8.326936040248256e-06,5.6131691962946206e-05
-3.291475513833575e-05,2.2303587684291415e-05,1.2701336345344316e-05,-1.2393722499837168e-05,5.78920662519522e-05
-3.4403732570353895e-05,3.2824045774759725e-05,1.6461790437460877e-05,-1.5061851627251599e-05,5.959724876447581e-05
-3.695780469570309e-05,5.648314981954172e-05,1.923855052154977e-05,-1.5146812074817717e-05,6.0384656535461545e-05
-4.3968488171231e-05,7.04395497450605e-05,1.7384971215506084e-05,-1.5335826901718974e-05,5.880352182430215e-05
-4.7357574658235535e-05,6.619298801524565e-05,1.4779849152546376e-05,-1.67856014741119e-05,5.8259902289137244e-05
-4.6583354560425505e-05,6.12845688010566e-05,1.2225174032209907e-05,-1.760088707669638e-05,5.9999016229994595e-05
-4.92435137857683e-05,6.338099046843126e-05,4.938124675391009e-06,-1.5799143511685543e-05,6.0946473240619525e-05
-5.255030555417761e-05,6.194247544044629e-05,1.3763439028480207e-06,-1.2639052329177503e-05,6.247415876714513e-05
-5.398938083089888e-05,5.468443487188779e-05,7.677247594983783e-06,-1.051385606842814e-05,6.30309950793162e-05
-4.7180721594486386e-05,4.742069722851738e-05,1.1488930795167107e-05,-9.207441507896874e-06,6.0350594139890745e-05
-3.563537757145241e-05,4.5758373744320124e-05,1.0445211955811828e-05,-8.993121809908189e-06,5.730339762521908e-05
-3.13336422550492e-05,4.3425468902569264e-05,1.0442964594403747e-05,-7.079501301632263e-06,5.471517579280771e-05
-2.8434948035283014e-05,3.6620080209104344e-05,8.913313649827614e-06,-4.577143215556134e-07,5.655396671500057e-05
-2.3501321265939623e-05,3.323797864140943e-05,5.902744760533096e-06,5.716914529330097e-06,5.768854316556826e-05
-1.642275310587138e-05,3.316379661555402e-05,4.696910309576197e-06,5.7898537306755316e-06,5.4926262237131596e-05
-7.188153631432215e-06,3.835985990008339e-05,3.708007625391474e-06,3.1419842798641184e-06,5.340696225175634e-05
-6.196508479661134e-07,4.551005258690566e-05,2.270254299219232e-06,1.5556449852738297e-06,5.318747935234569e-05
7.1716808633937035e-06,4.497732879826799e-05,-5.938773028901778e-07,-5.896505399505259e-07,5.611962842522189e-05
1.8548724256106652e-05,3.737208680831827e-05,-5.608003448287491e-06,-5.334545676305424e-06,5.835781485075131e-05
2.5442877813475206e-05,2.1596970327664167e-05,-9.714741281641182e-06,-1.1064553291362245e-05,5.816917109768838e-05
2.5209788873326033e-05,-7.227241894725012e-06,-1.3431219485937618e-05,-1.3244567526271567e-05,5.780715946457349e-05
1.9831502868328243e-05,-3.2539188396185637e-05,-1.565342790854629e-05,-1.3700837371288799e-05,5.855695781065151e-05
8.592000995122362e-06,-3.3934484235942364e-05,-1.3983322787680663e-05,-1.4697816368425265e-05,6.092817784519866e-05
-5.751716798840789e-06,-1.7797245163819753e-05,-6.667160960205365e-06,-1.357126711809542e-05,6.360541738104075e-05
-1.8871041902457364e-05,-4.719530352303991e-06,1.1305567113595316e-06,-8.968019756139256e-06,6.698136712657288e-05
-3.0447212338913232e-05,-1.8851752656701137e-06,6.1412565628415905e-06,-4.826229996979237e-06,6.869972276035696e-05
-4.1879418859025463e-05,5.556445898946549e-07,1.070828420779435e-05,-4.307787548896158e-06,6.763874989701435e-05
-5.04642266605515e-05,1.1462539987405762e-05,1.3106415281072259e-05,-3.3239166441489942e-06,6.426063919207081e-05
-5.540766869671643e-05,2.7363937988411635e-05,1.2569359569170047e-05,-2.4383145955653163e-06,5.962732029729523e-05
-5.5470642109867185e-05,4.055952376802452e-05,1.0145577107323334e-05,-6.487010523414938e-06,5.7444991398369893e-05
-4.826044096262194e-05,5.193005199544132e-05,6.231854058569297e-06,-1.4997207472333685e-05,5.9292771766195074e-05
-3.8400761695811525e-05,6.457932613557205e-05,3.0457078992185416e-06,-2.313789264007937e-05,6.32598384981975e-05
-2.820826557581313e-05,7.92154751252383e-05,5.819670604978455e-06,-2.61876848526299e-05,6.382808351190761e-05
-2.0910547391395085e-05,9.093761764233932e-05,9.724557457957417e-06,-2.572747689555399e-05,5.961972783552483e-05
-1.8542024918133393e-05,8.819383947411552e-05,8.822090421745088e-06,-2.4082672098302282e-05,5.61233282496687e-05
-2.4143682821886614e-05,6.923662294866517e-05,4.902781711280113e-06,-1.9602843167376705e-05,5.428940130514093e-05
-3.4342552680755034e-05,4.661723141907714e-05,-3.2692787499399856e-06,-2.0950217731297016e-05,5.1904287829529494e-05
-4.363528569228947e-05,2.7712423616321757e-05,-8.442286343779415e-06,-2.2188751245266758e-05,4.8684581997804344e-05
-5.186660564504564e-05,1.8273120076628402e-05,-4.302726210880792e-06,-1.530883673694916e-05,4.872078352491371e-05
-5.320073614711873e-05,1.7769232727005146e-05,5.254910774965538e-06,-1.1182051821378991e-05,5.3640698752133176e-05
-4.75095039291773e-05,2.0149336705799215e-05,1.619810427655466e-05,-9.603043508832343e-06,5.672235056408681e-05
-4.042820728500374e-05,2.4686678443686105e-05,2.2201855244929902e-05,-7.388123776763678e-06,5.6366599892498925e-05
-3.724636189872399e-05,3.340239345561713e-05,2.522718205000274e-05,-5.35169783688616e-06,5.896410584682599e-05
-3.6165027267998084e-05,3.6641071346821263e-05,2.714674519666005e-05,-2.6719849302025978e-06,6.39367790427059e-05
-3.397932960069738e-05,3.0241331842262298e-05,2.4364962882827967e-05,-4.1401628436688043e-07,6.209443381521851e-05
-2.9956379876239225e-05,2.177515852963552e-05,1.8829930922947824e-05,-2.8218082661624067e-06,5.768966002506204e-05
-2.3375496311928146e-05,1.5917861674097367e-05,1.413740301359212e-05,-7.260040092660347e-06,5.5339511163765565e-05
-1.716828774078749e-05,1.038600839819992e-05,1.1038717275368981e-05,-1.2013137165922672e-05,5.5865028116386384e-05
-1.526627420389559e-05,3.2098200790642295e-06,9.031074114318471e-06,-1.5477295164600946e-05,5.793613672722131e-05
-1.613707354408689e-05,7.646956873941235e-06,1.018314651446417e-05,-1.6062625945778564e-05,5.8961908507626504e-05
-1.7331691196886823e-05,2.864406633307226e-05,1.1709044883900788e-05,-1.5687395716668107e-05,5.9373116528149694e-05
-1.770923518051859e-05,5.2155141020193696e-05,9.432350452698302e-06,-1.7741351257427596e-05,6.0392336308723316e-05
-1.7958582247956656e-05,6.0162397858221084e-05,3.992167876276653e-06,-2.0444023903110065e-05,6.0245005442993715e-05
-2.052987474598922e-05,5.318911644280888e-05,5.972137273602129e-07,-2.011095239140559e-05,5.994380990159698e-05
-2.587210292404052e-05,4.1112416511168703e-05,-2.2879382299834106e-07,-1.9377577700652182e-05,5.9205809520790353e-05
-3.198433842044324e-05,1.995340790017508e-05,-2.117026127734789e-07,-1.9689365217345767e-05,5.642228643409908e-05
-3.144151924061589e-05,-1.2681261068792082e-05,1.069461859515286e-06,-1.9468481696094386e-05,5.860690362169407e-05
-2.040124854829628e-05,-2.759751441772096e-05,2.0172267340967664e-06,-1.7769243640941568e-05,6.582698551937938e-05
-6.475253030657768e-06,-2.8160420697531663e-05,-9.036198775902449e-07,-1.897481342894025e-05,6.743145058862865e-05
2.5243241452699294e-06,-3.6517380067380145e-05,-9.272186616726685e-06,-2.1353906049625948e-05,6.005020986776799e-05
8.433428774878848e-06,-3.483048567431979e-05,-2.202914583904203e-05,-1.876834903669078e-05,5.6883745855884627e-05
5.85744464842719e-06,-2.31247231567977e-05,-3.410960198380053e-05,-1.5082461686688475e-05,6.096635479480028e-05
-3.124680461041862e-06,-1.2150039765401743e-05,-3.354733416927047e-05,-1.1680310308292974e-05,6.38427009107545e-05
-9.158276952803135e-06,-2.7264937330073735e-07,-2.8748117983923294e-05,-7.25208519725129e-06,6.456117989728227e-05
-2.0368639525258914e-05,1.765795241226442e-05,-2.5324321541120298e-05,-8.347707989742048e-06,6.255259359022602e-05
-4.360494494903833e-05,3.865895268972963e-05,-1.900259667309001e-05,-1.174237513623666e-05,5.750148557126522e-05
-6.260578811634332e-05,4.8732716095400974e-05,-1.1878461918968242e-05,-1.2582381714310031e-05,5.418236105469987e-05
-5.686959048034623e-05,4.0107126551447436e-05,-5.6954809224407654e-06,-1.4164797903504223e-05,4.945038745063357e-05
-3.147925599478185e-05,2.8970196581212804e-05,-1.3774427998214378e-06,-1.8079672372550704e-05,4.4630236516240984e-05
-8.552147846785374e-06,2.786728146020323e-05,3.3939670629479224e-06,-1.873029032140039e-05,4.365054701338522e-05
8.923864243115531e-07,3.1811479857424274e-05,9.378888535138685e-06,-1.7184047464979813e-05,4.6697336074430496e-05
2.880085048673209e-06,2.9893206374254078e-05,1.4026932149135973e-05,-1.5857307516853325e-05,5.0566337449708953e-05
2.159754103558953e-06,2.411750756436959e-05,1.6475214579259045e-05,-1.3059106095170137e-05,5.421680907602422e-05
-1.313775214839552e-06,2.9036964406259358e-05,1.8255039321957156e-05,-8.804382559901569e-06,5.9557311033131555e-05
-6.362118256220128e-06,4.075355900567956e-05,1.6782232705736533e-05,-5.0952394303749315e-06,6.549400131916627e-05
-1.36471280711703e-05,4.74542030133307e-05,1.4859878319839481e-05,-2.6331333629059372e-06,6.865784962428734e-05
-2.5988525521825068e-05,3.961826587328687e-05,1.3988196769787464e-05,-2.347683903280995e-06,6.477788701886311e-05
-4.983724284102209e-05,2.6075280402437784e-05,1.282541506952839e-05,-3.234298219467746e-06,5.837864591740072e-05
-7.85416123108007e-05,2.514478546800092e-05,1.1302133316348772e-05,-1.7275434629482334e-06,5.7089982874458656e-05
-9.00463419384323e-05,3.9175080019049346e-05,9.684770702733658e-06,1.1605062582020764e-06,5.8874655223917216e-05
-7.546351116616279e-05,5.135914034326561e-05,8.822083145787474e-06,2.54015526479634e-06,6.083995685912669e-05
-4.925299799651839e-05,5.3757285058964044e-05,1.0782860954350326e-05,1.2378143310343148e-06,6.28955167485401e-05
-2.9759437893517315e-05,5.283572318148799e-05,1.2125899047532585e-05,-2.206757926614955e-06,6.338319508358836e-05
-2.6139328838326037e-05,5.238112498773262e-05,8.968254405772313e-06,-7.987602657522075e-06,6.175766611704603e-05
-3.321227268315852e-05,4.956203338224441e-05,4.705285391537473e-06,-1.1448528312030248e-05,6.157998723210767e-05
-3.756521255127154e-05,4.4568605517270043e-05,3.0309536214190302e-06,-8.853986400936265e-06,6.426830805139616e-05
-3.53549730789382e-05,4.082219675183296e-05,3.3372980396961793e-06,-4.22163202529191e-06,6.559605390066281e-05
-3.009225292771589e-05,4.191377593087964e-05,1.2938598104028642e-07,-4.231455022818409e-06,6.791516352677718e-05
-2.720274278544821e-05,4.481013093027286e-05,-4.473968147067353e-06,-5.099017016618745e-06,6.803619908168912e-05
-2.9186832762206905e-05,3.876883420161903e-05,-5.182469067221973e-06,-9.577949640515726e-06,6.158716860227287e-05
-3.841803118120879e-05,2.284633956151083e-05,-2.0840147385570162e-07,-1.691234683676157e-05,5.398132998379879e-05
-4.777221693075262e-05,6.879549346194835e-06,2.269344804517459e-06,-2.112343645421788e-05,5.259371391730383e-05
-4.85569289594423e-05,5.872799192729872e-06,1.195749746329966e-06,-2.361515726079233e-05,5.387526107369922e-05
-4.06031176680699e-05,1.7275193386012688e-05,1.776254521246301e-06,-2.2339929273584858e-05,5.452942423289642e-05
-2.8786937036784366e-05,2.5378467398695648e-05,3.663404640974477e-06,-1.862640601757448e-05,5.5955781135708094e-05
-2.0650113583542407e-05,2.2145119146443903e-05,7.913406989246141e-06,-1.6826268620206974e-05,5.5565109505550936e-05
-1.4845865734969266e-05,1.643735777179245e-05,1.0368850780650973e-05,-1.8377890228293836e-05,5.6838252930901945e-05
-1.1357380572007969e-05,1.5351884940173477e-05,1.1146613360324409e-05,-1.7968468455364928e-05,6.197631591930985e-05
-1.3846693036612123e-05,1.889737177407369e-05,1.0652551281964406e-05,-1.4690152966068126e-05,6.570021650986746e-05
-2.2791313313064165e-05,2.3820570277166553e-05,1.0404863132862374e-05,-1.289423835260095e-05,6.539626338053495e-05
-3.0874667572788894e-05,2.1411298803286627e-05,8.891429388313554e-06,-1.4628705685026944e-05,6.199093331815675e-05
-3.274144546594471e-05,1.4149431081023067e-05,4.9237155508308206e-06,-1.6983209206955507e-05,5.9776131820399314e-05
-2.9539458409999497e-05,1.857031929830555e-05,1.9536751096893568e-06,-1.7411006410839036e-05,5.942159259575419e-05
-2.541097637731582e-05,3.823618681053631e-05,8.782526492723264e-07,-1.929387144627981e-05,5.830007648910396e-05
-2.209991725976579e-05,5.895070353290066e-05,-8.706890639587073e-07,-2.350176146137528e-05,5.730693737859838e-05
-1.7216996639035642e-05,6.868386844871566e-05,-3.472066509857541e-06,-2.7660127670969814e-05,6.0082151321694255e-05
-1.453299501008587e-05,6.0632472013821825e-05,-4.854556664213305e-06,-3.0846658773953095e-05,6.495357229141518e-05
-1.627513483981602e-05,2.622853935463354e-05,-7.53994936530944e-06,-3.4405020414851606e-05,6.604588270420209e-05
-1.4873494365019724e-05,-2.4762135581113398e-05,-1.2073634025000501e-05,-3.6824199924012646e-05,6.309969467110932e-05
-5.854041319253156e-06,-4.555374107440002e-05,-1.451037769584218e-05,-3.39156758855097e-05,6.125553045421839e-05
5.555706593440846e-06,-1.6616793800494634e-05,-1.1663390978355892e-05,-2.675892574188765e-05,6.227976700756699e-05
1.1634669135673903e-05,2.3593982405145653e-05,-7.64772357797483e-06,-1.9624505512183532e-05,6.271608435781673e-05
5.085419161332538e-06,3.8254594983300194e-05,-6.776057034585392e-06,-1.1946685845032334e-05,6.114429561421275e-05
-9.748896445671562e-06,3.388556797290221e-05,-3.853688212984707e-06,-2.4662097075633937e-06,5.962741852272302e-05
-2.436725299048703e-05,3.0560117011191323e-05,6.425299488910241e-06,9.163515642285347e-06,6.217482587089762e-05
-3.866599945467897e-05,2.8991173167014495e-05,1.8816923329723068e-05,1.5216895917546935e-05,6.703437975374982e-05
-4.4765532948076725e-05,2.7894191589439288e-05,2.5525556338834576e-05,1.960672852874268e-05,6.727540312567726e-05
-3.6751811421709135e-05,2.922941348515451e-05,2.744669109233655e-05,2.5637978978920728e-05,5.977234468446113e-05
-3.144336005789228e-05,3.1063202186487615e-05,3.131037010462023e-05,2.397754906269256e-05,4.7266847104765475e-05
-2.9573357096523978e-05,2.434979069221299e-05,3.158910112688318e-05,1.509039520897204e-05,3.844823731924407e-05
-1.996480204979889e-05,1.4438196558330674e-05,2.5835115593508817e-05,2.4305422812176403e-06,3.841234865831211e-05
-7.317810286622262e-06,1.715791404421907e-05,1.8890306819230318e-05,-3.8120751923997886e-06,4.1441726352786645e-05
6.098958351685724e-07,3.2142441341420636e-05,1.199049256683793e-05,-3.972061222157208e-06,4.378346056910232e-05
3.262896370870294e-06,4.168098894297145e-05,5.6331741689064074e-06,-5.813674306409666e-06,4.343590990174562e-05
1.2951703638464096e-06,3.900704177794978e-05,1.5681617924201419e-06,-1.1669539162539877e-05,4.375305798021145e-05
-7.431896392517956e-06,3.639579517766833e-05,-4.768191388393461e-07,-1.7298969396506436e-05,4.4369448005454615e-05
-2.0602492440957576e-05,4.016140883322805e-05,-1.3863624417354004e-06,-1.6960040738922544e-05,4.355941200628877e-05
-3.3484033338027075e-05,4.9544050853000954e-05,3.368796086533621e-08,-1.4174185707815923e-05,4.3968557292828336e-05
-4.312726014177315e-05,5.570361827267334e-05,3.298901674497756e-06,-1.553614310978446e-05,4.902821819996461e-05
-4.809801612282172e-05,5.7077060773735866e-05,5.933556167292409e-06,-1.9278673789813183e-05,5.648035948979668e-05
-4.71845778520219e-05,4.897165854345076e-05,6.469259460573085e-06,-1.9878418243024498e-05,6.096219294704497e-05
-4.436406379682012e-05,2.416927964077331e-05,5.508187314262614e-06,-1.7059361198334955e-05,6.13778320257552e-05
-4.486443867790513e-05,-9.351063454232644e-06,4.993211405235343e-06,-1.5223377886286471e-05,6.126090738689527e-05
-4.566296047414653e-05,-2.5257933884859085e-05,4.868902578891721e-06,-1.4693310731672682e-05,6.213867891347036e-05
-4.029425690532662e-05,-1.4996546269685496e-05,4.7292496674344875e-06,-1.2717904610326514e-05,6.171520362840965e-05
-3.273829133831896e-05,4.88182968183537e-06,6.335766101983609e-06,-1.1679573617584538e-05,5.8174515288555995e-05
-2.772017069219146e-05,2.2110061763669364e-05,9.519166269456036e-06,-1.2190363122499548e-05,5.306947059580125e-05
-2.8266631488804705e-05,3.274615664849989e-05,1.4049203855392989e-05,-1.1428915058786515e-05,5.178498395252973e-05
-3.456440754234791e-05,3.847347397822887e-05,1.4518770512950141e-05,-9.009277164295781e-06,5.316215901984833e-05
-4.0328286559088156e-05,4.108562279725447e-05,8.31921715871431e-06,-6.679396847175667e-06,5.335170862963423e-05
-4.051510404678993e-05,4.241533315507695e-05,1.5049049579829443e-06,-6.568758180947043e-06,5.1997194532305e-05
-3.678352732094936e-05,4.095498661627062e-05,-1.1534390864653687e-07,-5.040908490627771e-06,5.478796811075881e-05
-3.174304947606288e-05,3.348282552906312e-05,3.83836140827043e-06,-2.2292963421932654e-06,6.089531962061301e-05
-2.417511677776929e-05,8.222898941312451e-06,8.83381835592445e-06,-6.466169452323811e-06,6.418852717615664e-05
-1.6007603335310705e-05,-2.309329829586204e-05,8.152901500579901e-06,-1.1421555427659769e-05,6.350794137688354e-05
-1.0132086572411936e-05,-2.2030406398698688e-05,3.15224224323174e-06,-1.1320690646243747e-05,6.368284084601328e-05
-8.938195605878718e-06,4.9622817641648e-06,2.0609720650099916e-06,-8.373322089028079e-06,6.308022420853376e-05
-1.2633559890673496e-05,2.444468373141717e-05,4.061950221512234e-06,-8.511531632393599e-06,5.969037374597974e-05
-1.9878878447343595e-05,3.008209023391828e-05,4.561137757264078e-06,-1.1208976502530277e-05,5.479891115101054e-05
-3.125699731754139e-05,3.133520294795744e-05,1.848733631959476e-06,-1.528730535937939e-05,5.270554538583383e-05
-3.78727781935595e-05,3.249902147217654e-05,-2.3188054001366254e-06,-1.855320624599699e-05,5.625669291475788e-05
-3.372236096765846e-05,3.122784983133897e-05,-6.698751349176746e-07,-1.6156636775122024e-05,6.166964158182964e-05
-2.576447877800092e-05,3.248143912060186e-05,3.4512229376559844e-06,-1.3242307431937661e-05,6.7345958086662e-05
-2.180734372814186e-05,3.6169356462778524e-05,4.31656053478946e-06,-1.2540403076855e-05,7.263806037371978e-05
-2.2626427380600944e-05,3.9143822505138814e-05,3.6656970223702956e-06,-1.2841963325627148e-05,7.336801354540512e-05
-2.404229780950118e-05,4.205393634038046e-05,4.9823538574855775e-06,-1.3620528079627547e-05,6.968931120354682e-05
-2.8516802558442578e-05,4.5765453251078725e-05,5.1952483772765845e-06,-1.9637756849988364e-05,6.811934872530401e-05
-3.482475585769862e-05,4.963870014762506e-05,1.621087108105712e-06,-2.8390819352352992e-05,6.862809823360294e-05
-3.8501257222378626e-05,5.454269557958469e-05,-2.40672397922026e-06,-3.344262586324476e-05,6.700344238197431e-05
-3.860329161398113e-05,5.966495518805459e-05,-5.067769961897284e-06,-3.358836693223566e-05,6.158696487545967e-05
-3.348257450852543e-05,6.028661300661042e-05,-6.617719009227585e-06,-3.225743057555519e-05,5.610127846011892e-05
-1.8062431990983896e-05,5.833310933667235e-05,-6.647642749157967e-06,-2.897815102187451e-05,5.730809789383784e-05
-1.2712474699583254e-06,6.360479164868593e-05,-2.863491545213037e-06,-2.2937996618566103e-05,6.448279600590467e-05
-1.2064650718457415e-06,7.584580453112721e-05,4.847131549468031e-06,-1.912450352392625e-05,7.087468839017674e-05
-1.3259863408165984e-05,8.331473509315401e-05,1.3961023796582595e-05,-1.8888249542214908e-05,7.347591599682346e-05
-1.667880678724032e-05,6.857781409053132e-05,1.9737852198886685e-05,-1.8975626517203636e-05,7.271519280038774e-05
-7.125845968403155e-06,3.127637319266796e-05,2.0617753762053326e-05,-1.6445470464532264e-05,6.945884524611756e-05
7.739895977465494e-07,2.890968289648299e-06,1.823840466386173e-05,-1.4518649550154805e-05,6.253983156057075e-05
5.6931838798846e-07,1.092087813958642e-06,1.4723024833074305e-05,-1.8118840671377257e-05,5.744646841776557e-05
-3.9247333916136995e-06,1.684140988800209e-05,1.3565168046625331e-05,-2.125838364008814e-05,5.674420754075982e-05
-1.0475718227098696e-05,3.190198913216591e-05,1.4792201000091154e-05,-1.8468497728463262e-05,5.500096449395642e-05
-2.0995379600208253e-05,3.58956640411634e-05,1.199039070343133e-05,-1.0375964848208241e-05,5.2544372010743245e-05
-3.317576920380816e-05,3.980227847932838e-05,8.387042726099025e-06,1.289963734052435e-06,5.12408914801199e-05
-4.517965135164559e-05,4.8964782763505355e-05,1.0575364285614341e-05,1.1771320714615285e-05,5.06894284626469e-05
-5.448423689813353e-05,5.9400710597401485e-05,1.4933057173038833e-05,2.2586020349990577e-05,5.2437797421589494e-05
-6.038743595127016e-05,7.839270256226882e-05,1.8430466298013926e-05,3.365442535141483e-05,5.344229793990962e-05
-6.24400854576379e-05,9.957322617992759e-05,2.078651959891431e-05,4.279145287000574e-05,5.1247738156234846e-05
-5.460148531710729e-05,0.00010747660417109728,2.2794274627813138e-05,4.89444391860161e-05,5.0051250582328066e-05
-4.585207352647558e-05,9.883649181574583e-05,2.4422375645372085e-05,4.856578016187996e-05,5.149092976353131e-05
-4.543016621028073e-05,7.601060497108847e-05,2.1901032596360892e-05,3.8909816794330254e-05,5.3764102631248534e-05
-5.3061630751471967e-05,4.315037949709222e-05,1.7733496861183085e-05,2.4472437871736474e-05,5.456944927573204e-05
-6.285926065174863e-05,9.574251635058317e-06,1.6072897778940387e-05,1.0330985787732061e-05,5.1968458137707785e-05
-7.236438250401989e-05,-1.2161328413640149e-05,1.600697578396648e-05,-2.7581675112742232e-06,4.677310062106699e-05
-8.21709109004587e-05,-2.2402327886084095e-05,1.1995109161944129e-05,-1.2555268767755479e-05,4.4692555093206465e-05
-7.894352893345058e-05,-3.2016112527344376e-05,7.222275598905981e-06,-1.6643356502754614e-05,4.9006510380422696e-05
-5.431490717455745e-05,-4.333501055953093e-05,7.12693099558237e-06,-1.6301493815262802e-05,5.69846379221417e-05
-2.5371638912474737e-05,-5.886224244022742e-05,9.984042662836146e-06,-1.288638395635644e-05,6.328803283395246e-05
-1.1103003089374397e-05,-9.339422103948891e-05,1.5099078154889867e-05,-1.0034047591034323e-05,6.200253119459376e-05
-3.157101900796988e-06,-0.00013374857371672988,1.959473047463689e-05,-1.1072355846408755e-05,5.6426604714943096e-05
9.097107977140695e-06,-0.0001298219576710835,2.008024057431612e-05,-1.2683197383012157e-05,5.43695168744307e-05
1.5580335457343608e-05,-7.114133040886372e-05,2.017574297497049e-05,-1.108261858462356e-05,5.531522765522823e-05
5.641081770590972e-06,-8.700428224983625e-06,1.9962773876613937e-05,-8.328586773131974e-06,5.571203291765414e-05
-1.2483796126616653e-05,1.7758397007128224e-05,1.40246884257067e-05,-9.0302164608147e-06,5.687897646566853e-05
-3.0225282898754813e-05,2.4740676963119768e-05,8.938694918469992e-06,-1.1267124136793427e-05,5.9214340581092983e-05
-4.545604679151438e-05,3.615858804550953e-05,9.249363756680395e-06,-8.770230124355294e-06,6.2708328187e-05
-5.4845881095388904e-05,5.223789412411861e-05,9.514358680462465e-06,-1.9646483906399226e-06,6.60742589388974e-05
-5.4608444770565256e-05,6.61904996377416e-05,4.9319228310196195e-06,1.6816093193483539e-06,6.618536281166598e-05
