-1.9321174477227032e-05,1.0556073902989738e-05,1.3310519761944306e-06,-1.1050509783672169e-05,6.180020864121616e-05
-1.033942407957511e-05,9.796743142942432e-06,1.9650262856885092e-06,-6.1144887695263606e-06,6.346980080706999e-05
-4.614060344465543e-06,1.9540850189514458e-05,1.7124558553405222e-06,-5.417680313257733e-06,6.231533188838512e-05
-6.536590262840036e-06,2.3658654754399322e-05,2.9975606139487354e-06,-1.2179492841823958e-05,6.355466757668182e-05
-1.11053132059169e-05,2.8679865863523446e-05,4.902617092739092e-06,-1.3639991266245488e-05,6.926539936102927e-05
-1.4615821783081628e-05,2.7778947696788236e-05,7.14717862138059e-06,-1.0470755114511121e-05,7.187813025666401e-05
-1.615158180356957e-05,1.9134909962303936e-05,6.18147487330134e-06,-8.31229226605501e-06,6.648708222201094e-05
-2.311344724148512e-05,1.7982103599933907e-05,2.677722250155057e-06,-8.155131581588648e-06,5.8493118558544666e-05
-3.256790660088882e-05,2.3087415684130974e-05,-1.9161238640208467e-07,-7.1511617534270044e-06,5.4527576139662415e-05
-3.79108932975214e-05,2.1704929167754017e-05,-2.232631146625863e-07,-7.130254289222648e-06,5.642815085593611e-05
-3.7339821574278176e-05,1.6986923583317548e-05,1.6894411203338677e-07,-7.0121050157467835e-06,5.958887413726188e-05
-3.06867623294238e-05,1.7851263692136854e-05,1.5244809219439048e-06,-7.051100055832649e-06,6.0087379097240046e-05
-2.1541509340750054e-05,2.1953457689960487e-05,6.654906883341027e-07,-8.832794264890254e-06,5.843927647219971e-05
-1.3445109289023094e-05,2.185581615776755e-05,-4.734865797217935e-06,-1.3532468074117787e-05,5.8604262449080124e-05
-8.690339200256858e-06,2.2583659301744774e-05,-8.825006261758972e-06,-1.9493852960295044e-05,6.03437474637758e-05
-4.870135853707325e-06,2.7689691705745645e-05,-8.299606633954681e-06,-2.294809019076638e-05,6.000487337587401e-05
-9.135906111623626e-07,2.893749115173705e-05,-3.612250338846934e-06,-2.186619894928299e-05,5.738788240705617e-05
-4.413602425756835e-07,2.6236823032377288e-05,2.353416675759945e-06,-1.6710308045730926e-05,5.482461710926145e-05
-3.3418996281397995e-06,2.3599091946380213e-05,8.883166628947947e-06,-1.1744125004042871e-05,5.4914904467295855e-05
-6.486658094218001e-06,2.4547987777623348e-05,1.2539468116301578e-05,-8.590218385506887e-06,5.617306305794045e-05
-8.738423275644891e-06,3.257755815866403e-05,1.224775223818142e-05,-9.010000212583691e-06,5.7872173783835024e-05
-1.2521821190603077e-05,4.7528523282380775e-05,1.3017306628171355e-05,-9.480228072789032e-06,6.018701969878748e-05
-2.5042661945917644e-05,6.026167829986662e-05,1.552135290694423e-05,-1.2005686585325748e-05,6.0614635003730655e-05
-3.96279247070197e-05,5.957621760899201e-05,1.2977691767446231e-05,-1.8117490981239825e-05,5.802560554002412e-05
-4.266186442691833e-05,5.1357605116209015e-05,4.026834631076781e-06,-2.1546889911405742e-05,5.5490945669589564e-05
-4.080407597939484e-05,5.288305692374706e-05,-5.623142442345852e-06,-1.5610621630912647e-05,5.6035059969872236e-05
-5.075661829323508e-05,5.6290333304787055e-05,-9.530745046504308e-06,-6.883904006826924e-06,5.73341894778423e-05
-6.66580381221138e-05,4.4385498767951503e-05,-9.325366590928752e-06,-7.0901364779274445e-06,5.947216777713038e-05
-6.734871567459777e-05,9.07231788005447e-06,-6.3649777075625025e-06,-9.363956451124977e-06,6.497242429759353e-05
-5.113384031574242e-05,-2.443383345962502e-05,-2.942442733910866e-06,-9.828012480284087e-06,7.10588283254765e-05
-3.4201751986984164e-05,-1.9028859242098406e-05,2.4628329811093863e-06,-1.078964942280436e-05,7.537964847870171e-05
-3.233857569284737e-05,8.986512511910405e-06,7.996600288606714e-06,-9.606696949049365e-06,7.543993706349283e-05
-3.9131038647610694e-05,2.8179387300042436e-05,1.1508391253300942e-05,-1.4604403986595571e-05,6.848964403616264e-05
-4.1307168430648744e-05,2.2037875169189647e-05,1.3035837582719978e-05,-2.081834463751875e-05,6.349806790240109e-05
-3.7376485124696046e-05,1.4108235291132587e-06,1.404622889822349e-05,-2.277514067827724e-05,6.460629811044782e-05
-3.1360217690235004e-05,-3.540171519489377e-06,1.758775943017099e-05,-2.2197582438820973e-05,6.549376848852262e-05
-2.8962507713004015e-05,7.521150109823793e-06,1.992289980989881e-05,-2.1778276277473196e-05,6.467021012213081e-05
-3.0529343348462135e-05,1.5758001609356143e-05,1.960711415449623e-05,-2.2054724468034692e-05,6.17422629147768e-05
-3.261634265072644e-05,1.6026744560804218e-05,1.719365900498815e-05,-2.24416253331583e-05,5.8143628848483786e-05
-3.1940409826347604e-05,1.673090628173668e-05,1.2613228136615362e-05,-2.337848854949698e-05,5.707348100258969e-05
-2.8616825147764757e-05,2.1582067347480915e-05,7.0759415393695235e-06,-2.5399225705768913e-05,6.036937338649295e-05
-2.510157719370909e-05,2.6165240342379548e-05,6.9832267399760894e-06,-2.758155642368365e-05,6.380886043189093e-05
-2.2626742065767758e-05,2.5928822651621886e-05,1.260185399587499e-05,-2.7086955014965497e-05,6.247177952900529e-05
-2.0022804164909758e-05,2.4021477656788193e-05,1.753638753143605e-05,-2.449977728247177e-05,6.125354411778972e-05
-1.5640016499673948e-05,2.6974326829076745e-05,1.6652640624670312e-05,-1.8910515791503713e-05,6.289102748269215e-05
-1.013456676446367e-05,3.526507134665735e-05,1.072265877155587e-05,-1.6105153918033466e-05,6.452573870774359e-05
-9.031655281432904e-06,4.2325988033553585e-05,4.412616362969857e-06,-1.8600481780595146e-05,6.422281876439229e-05
-1.3974698958918452e-05,4.541071757557802e-05,3.890083917212905e-06,-2.098366167047061e-05,6.439731077989563e-05
-1.8321619791095145e-05,4.80062335554976e-05,8.398051249969285e-06,-1.9973813323304057e-05,6.639111234107986e-05
-1.837325908127241e-05,5.098759720567614e-05,1.0288951671100222e-05,-1.8990343960467726e-05,6.879623106215149e-05
-1.680323839536868e-05,5.0858270697062835e-05,8.63850800669752e-06,-1.7647462300374173e-05,6.82092213537544e-05
-1.4761392776563298e-05,4.95688509545289e-05,7.565923624497373e-06,-1.6168873116839677e-05,6.421193393180147e-05
-1.510444053565152e-05,5.001848330721259e-05,5.2272030188760255e-06,-1.5353884009527974e-05,6.291017780313268e-05
-1.9471053747111e-05,4.8774832976050675e-05,1.865734731154589e-07,-1.458054430258926e-05,6.515680433949456e-05
-2.3253493054653518e-05,4.4282358430791646e-05,-3.0709725251654163e-06,-1.2590626283781603e-05,6.571831181645393e-05
-2.425747697998304e-05,4.1441628127358854e-05,-4.923416781821288e-06,-1.089131910703145e-05,6.248203135328367e-05
-2.48738142545335e-05,4.131656532990746e-05,-1.0440377081977203e-05,-1.0945966096187476e-05,5.6584394769743085e-05
-2.5610244847484864e-05,4.070993963978253e-05,-1.1550950148375705e-05,-9.63036927714711e-06,5.3089675930095837e-05
-2.3689080990152434e-05,3.6256642488297075e-05,-7.03854766470613e-06,-8.810994586383458e-06,5.349169441615231e-05
-2.0715000573545694e-05,2.7688625777955167e-05,-5.240241989667993e-06,-1.2779117241734639e-05,5.1135419198544696e-05
-1.921325019793585e-05,2.4466344257234596e-05,-6.1583314163726754e-06,-1.7653184841037728e-05,4.822499613510445e-05
-2.0270545064704493e-05,2.589309588074684e-05,-2.5655690478743054e-06,-1.991058888961561e-05,4.98081608384382e-05
-2.2669597456115298e-05,2.801019945763983e-05,8.733743015909567e-06,-1.54422341438476e-05,5.526554014068097e-05
-2.6796375095727853e-05,2.8281323466217145e-05,2.0109446268179454e-05,-6.18580452282913e-06,6.0520891565829515e-05
-3.168415423715487e-05,2.9332979465834796e-05,2.558606502134353e-05,-1.0215985639661085e-06,6.361849227687344e-05
-3.410082354093902e-05,3.021355951204896e-05,2.40368717641104e-05,-3.0831854473944986e-06,6.253532046684995e-05
-3.4074670111294836e-05,3.1171981390798464e-05,2.0431825760169886e-05,-6.566225238202605e-06,5.996555773890577e-05
-3.151882265228778e-05,3.148883843095973e-05,2.05105261557037e-05,-7.333701432798989e-06,6.0552916693268344e-05
-2.526204116293229e-05,3.0690272978972644e-05,2.4542929168092087e-05,-7.849960638850462e-06,6.368620961438864e-05
-1.749366674630437e-05,3.113403363386169e-05,2.5328963602078147e-05,-7.5629804996424355e-06,6.655802280874923e-05
-1.093143509933725e-05,3.071915125474334e-05,2.1617946913465858e-05,-5.3200542424747255e-06,6.891658995300531e-05
-9.135640539170709e-06,2.7078745915787295e-05,1.6209271052503027e-05,-3.6796370750380447e-06,6.842694710940123e-05
-1.5406321836053394e-05,2.4197419406846166e-05,1.112088739319006e-05,-6.6515581238490995e-06,6.452099478337914e-05
-2.8165895855636336e-05,3.267703505116515e-05,6.960716291359859e-06,-1.1341219760652166e-05,6.12298390478827e-05
-4.307366180000827e-05,4.846824595006183e-05,5.482550932356389e-06,-1.2876544133177958e-05,6.10334136581514e-05
-5.342447548173368e-05,5.595392212853767e-05,7.2227685450343415e-06,-1.1269370588706806e-05,6.252567982301116e-05
-5.518047692021355e-05,5.0310627557337284e-05,7.905389793450013e-06,-8.735417395655531e-06,6.068582661100663e-05
-5.113907536724582e-05,3.522206679917872e-05,2.839178705471568e-06,-6.151503839646466e-06,5.597971903625876e-05
-4.764257028000429e-05,6.421616944862762e-07,-6.83682492308435e-06,-8.225692909036297e-06,5.1832248573191464e-05
-4.8278739996021613e-05,-2.3773674911353737e-05,-1.1962720236624591e-05,-1.3382478755374905e-05,4.9611586291575804e-05
-4.7768120566615835e-05,-6.123043021943886e-06,-1.032581440085778e-05,-1.3465067240758799e-05,4.912320582661778e-05
-3.806499080383219e-05,1.7671716705081053e-05,-5.5405025705113076e-06,-8.757648174650967e-06,5.470419637276791e-05
-2.517518623790238e-05,8.075397090578917e-06,-1.848204760790395e-06,-6.420005320251221e-06,6.233493331819773e-05
-1.812398295442108e-05,-9.269740985473618e-06,1.5418188468174776e-06,-6.949831913516391e-06,6.747414590790868e-05
-1.608028105692938e-05,-1.0262057003274094e-05,3.2397124414274003e-06,-6.318086434475845e-06,6.783974822610617e-05
-1.8643455405253917e-05,-9.524830602458678e-06,-4.041802696974628e-07,-2.986783101732726e-06,6.332589691737667e-05
-2.3471357053495012e-05,-4.2175984162895475e-06,-1.9796636934188427e-06,9.244634924243655e-08,5.811473965877667e-05
-2.4750792363192886e-05,5.172410965315066e-06,-1.9080860056419624e-06,-1.5646926385670668e-06,5.6099208450177684e-05
-2.717737697821576e-05,1.1709264981618617e-05,-2.7528503778739832e-06,-5.2337918532430194e-06,5.787958070868626e-05
-3.561133053153753e-05,1.995212551264558e-05,-3.990750883531291e-06,-7.614756668772316e-06,5.960017369943671e-05
-4.7346089559141546e-05,3.264142287662253e-05,-3.858619948005071e-06,-8.648043149150908e-06,5.992034493829124e-05
-5.560272984439507e-05,3.801093771471642e-05,5.741927111557743e-07,-9.231736839865334e-06,5.7735160226002336e-05
-5.755952952313237e-05,3.971586193074472e-05,4.2186275095446035e-06,-8.596067345933989e-06,5.5660955695202574e-05
-5.41960725968238e-05,4.735859693028033e-05,4.098525550944032e-06,-5.241446615400491e-06,5.6704804592300206e-05
-4.727457417175174e-05,5.804077591164969e-05,2.694195018193568e-06,-2.4609139472886454e-06,5.701483314624056e-05
-4.09167078032624e-05,6.554213905474171e-05,3.210944896636647e-06,-1.8005752053795732e-06,5.036233051214367e-05
-3.762491178349592e-05,6.482068420154974e-05,4.302728029870195e-06,-3.802721039392054e-06,4.1800198232522234e-05
-3.570954140741378e-05,5.495317600434646e-05,4.184837052889634e-06,-7.883752914494835e-06,4.008365431218408e-05
-3.161047425237484e-05,4.1555922507541254e-05,3.775023060370586e-06,-9.944225894287229e-06,4.185477155260742e-05
-2.4526763809262775e-05,4.0026545320870355e-05,4.512380655796733e-06,-7.440316949214321e-06,4.551874008029699e-05
-1.8902584997704253e-05,5.0982511311303824e-05,5.4390479817811865e-06,-2.2458966668637004e-06,5.0118200306314975e-05
-1.857957431639079e-05,6.04593769821804e-05,3.971013029513415e-06,4.270042950338393e-07,5.262551349005662e-05
-1.5011835785117e-05,6.113448034739122e-05,-1.4405792398974882e-06,-2.0025968296977226e-06,5.4105610615806654e-05
-5.868079824722372e-06,5.8243840612703934e-05,-8.199045623769052e-06,-6.0051238506275695e-06,5.7659355661598966e-05
1.5101807093742536e-06,5.008480366086587e-05,-1.2471323316276539e-05,-7.075374469422968e-06,5.857478390680626e-05
3.1180800306174206e-06,3.5880257200915366e-05,-9.683822099759709e-06,-6.727741947543109e-06,5.423569746199064e-05
-3.244259971779684e-07,2.4481179934809916e-05,-3.6861729313386604e-06,-7.276911219378235e-06,5.166858318261802e-05
-9.721414926389116e-07,1.7973587091546506e-05,4.503254302790083e-08,-1.0603375812934246e-05,5.235537173575722e-05
2.4580781428085174e-06,9.555198630550876e-06,2.3054162738844752e-06,-1.43473598654964e-05,5.643799158860929e-05
-1.2700337492788094e-06,8.573890227125958e-06,1.83610973181203e-06,-1.5070015251694713e-05,5.9205834986642e-05
-1.1318403267068788e-05,2.3633308956050314e-05,2.100462324960972e-06,-1.563771365908906e-05,5.9757669077953324e-05
-1.755890843924135e-05,3.664598989416845e-05,4.042765340273036e-06,-1.5087783140188549e-05,5.922569471294992e-05
-1.933052590175066e-05,3.077629298786633e-05,3.682652049974422e-06,-1.2895952750113793e-05,5.8292811445426196e-05
-1.6873427739483304e-05,9.605665582057554e-06,-1.2175080428278306e-06,-1.0027032658399548e-05,5.734682417823933e-05
-1.4406060472538229e-05,-7.82455663284054e-06,-9.853987648966722e-06,-9.307757864007726e-06,5.767915354226716e-05
-1.7826678231358528e-05,-1.2681689440796617e-05,-1.5839685147511773e-05,-1.0162057151319459e-05,5.58580613869708e-05
-2.6076522772200406e-05,-7.0259875428746454e-06,-1.425580649083713e-05,-9.304136256105267e-06,5.3471463616006076e-05
-3.090702375629917e-05,6.017342457198538e-06,-6.888175448693801e-06,-8.385891305806581e-06,5.5123429774539545e-05
-2.9959590392536484e-05,1.6043850337155163e-05,1.1279730642854702e-06,-8.149767381837592e-06,5.831993985339068e-05
-3.1004059565020725e-05,1.7454271073802374e-05,6.436555395339383e-06,-8.840411283017602e-06,6.11155919614248e-05
-3.189316703355871e-05,1.4449955415329896e-05,1.0975781151500996e-05,-9.440409485250711e-06,6.130040128482506e-05
-3.064296470256522e-05,1.668495860940311e-05,1.7033720723702572e-05,-1.0474373084434774e-05,6.213371671037748e-05
-3.166963506373577e-05,2.6348910978413187e-05,2.304626104887575e-05,-9.1178353613941e-06,6.213320011738688e-05
-3.634084350778721e-05,3.565330553101376e-05,2.7084208340966143e-05,-6.692617262160638e-06,6.139429024187848e-05
-4.138661461183801e-05,3.7211604649201035e-05,2.9154012736398727e-05,-4.9054474402510095e-06,5.998575215926394e-05
-4.390351750771515e-05,3.309732346679084e-05,2.808120370900724e-05,-4.274055754649453e-06,5.6948367273434997e-05
-4.257153705111705e-05,3.061612733290531e-05,2.4302706151502207e-05,-6.184877292980673e-06,5.353961751097813e-05
-4.016798993689008e-05,2.863174995582085e-05,2.0368390323710628e-05,-1.0565046068222728e-05,5.207786671235226e-05
-4.0209015423897654e-05,2.4037011826294474e-05,1.833892565628048e-05,-1.2989601600565948e-05,5.193065226194449e-05
-4.21546574216336e-05,2.1316031052265316e-05,1.73751814145362e-05,-1.2485880688473117e-05,5.173693716642447e-05
-4.214681393932551e-05,2.833753387676552e-05,1.4872603060211986e-05,-1.2470167348510586e-05,5.236520883045159e-05
-3.779497274081223e-05,3.821200516540557e-05,1.091352623916464e-05,-1.0906253919529263e-05,5.6337041314691305e-05
-2.99553412332898e-05,3.74409428332001e-05,9.458497515879571e-06,-8.476204129692633e-06,6.128578388597816e-05
-2.0645346012315713e-05,3.2610030757496133e-05,8.73605313245207e-06,-7.727744559815619e-06,6.207222759258002e-05
-1.471978521294659e-05,3.314601781312376e-05,9.039054020831827e-06,-8.658227670821361e-06,6.0267895605647936e-05
-1.1608180102484766e-05,3.30224065692164e-05,1.2284402146178763e-05,-7.0581618274445646e-06,6.33772651781328e-05
-1.2354199498076923e-05,3.38991048920434e-05,1.0884944458666723e-05,-2.8346228191367118e-06,7.138749060686678e-05
-1.54398749145912e-05,3.767170710489154e-05,9.271971066482365e-06,-2.0908387341478374e-06,7.41425683372654e-05
-1.661154965404421e-05,4.282135341782123e-05,9.583849532646127e-06,-4.105975222046254e-06,7.204205758171156e-05
-1.65735309565207e-05,4.726157203549519e-05,7.775583071634173e-06,-4.602790340868523e-06,6.889458745718002e-05
-1.639638139749877e-05,4.336687925388105e-05,6.647578175034141e-06,-1.9272986264695646e-06,6.777365342713892e-05
-1.8500313672120683e-05,3.540442048688419e-05,4.995804829377448e-06,-5.698576615031925e-07,7.013489812379703e-05
-2.1969795852783136e-05,2.8273534553591162e-05,4.058889771840768e-06,-5.978605258860625e-06,7.279536657733843e-05
-2.6052284738398157e-05,2.536575630074367e-05,2.6741768124338705e-06,-1.0161897989746649e-05,7.27171718608588e-05
-3.0124059776426293e-05,3.304003621451557e-05,2.4836563170538284e-06,-8.764383892412297e-06,7.096329500200227e-05
-3.15484321617987e-05,4.3521235056687146e-05,6.069317805668106e-06,-5.126075393491192e-06,6.743332778569311e-05
-3.0881845304975286e-05,4.299223655834794e-05,6.998985099926358e-06,-4.724196514871437e-06,6.434059469029307e-05
-2.6997890017810278e-05,1.8749036826193333e-05,3.4902634524769383e-06,-7.167906460381346e-06,6.305061833700165e-05
-1.738962782837916e-05,-1.6157559002749622e-05,-9.060757122369978e-08,-8.861258720571641e-06,6.055776248103939e-05
-4.843574970436748e-06,-3.0120592782623135e-05,-1.541086476208875e-06,-8.944548426370602e-06,5.798157144454308e-05
2.9993329917488154e-06,-1.4647198440798093e-05,-3.1050387860886985e-06,-8.327350769832265e-06,5.888445957680233e-05
2.4241587652795715e-06,1.0273979569319636e-05,-3.507750079734251e-06,-6.599508196813986e-06,6.335470970952883e-05
-3.5194373140257085e-06,2.6258489015162922e-05,-1.0622219406286604e-06,-4.010901648143772e-06,6.526539073092863e-05
-1.1115807865280658e-05,3.1723004212835804e-05,1.1845512517538737e-06,-4.270849785825703e-06,6.374821532517672e-05
-1.966790296137333e-05,3.286179344286211e-05,6.59078978060279e-07,-8.408082067035139e-06,6.053171455278061e-05
-2.6981253540725447e-05,3.250405643484555e-05,-1.0786736766021932e-06,-1.2983246051589958e-05,5.809855429106392e-05
-2.9228016501292586e-05,2.8781576475012116e-05,-2.6272971354046604e-06,-1.5110484127944801e-05,5.818665886181407e-05
-2.6179306587437168e-05,2.4240556740551256e-05,-2.9407715373963583e-06,-1.3900381418352481e-05,5.82764478167519e-05
-2.2025866201147437e-05,2.1874815502087586e-05,-1.6149623434102978e-06,-9.235453035216779e-06,5.593270907411352e-05
-1.7983493307838216e-05,2.6062487449962646e-05,1.2338468877715059e-06,-4.03957665184862e-06,5.235760909272358e-05
-1.5897319826763123e-05,3.112558988505043e-05,3.5783143630396808e-06,-2.895786792578292e-06,4.856597661273554e-05
-1.8791499314829707e-05,3.099618334090337e-05,1.920142040034989e-06,-5.309843800205272e-06,4.9089019739767537e-05
-2.3162247089203447e-05,3.3366774005116895e-05,-1.1120922636109754e-06,-6.287541964411503e-06,5.535050149774179e-05
-2.0741234038723633e-05,3.381392525625415e-05,-2.9206987619545544e-06,-6.17584737483412e-06,5.909509491175413e-05
-1.8091153833665885e-05,2.2930924387765117e-05,-3.844536422548117e-06,-1.1601445066844462e-06,5.848683213116601e-05
-2.371505252085626e-05,1.25259366541286e-05,-4.8738165787654e-06,4.371591785456985e-06,5.68140676477924e-05
-3.1712581403553486e-05,1.4099172403803095e-05,-4.0860318222257774e-06,4.7998155423556454e-06,5.631184467347339e-05
-3.769464456127025e-05,2.6233912649331614e-05,-4.4795459785973435e-08,2.7922333174501546e-06,5.572636655415408e-05
-3.3619391615502536e-05,3.645789547590539e-05,5.388623776525492e-06,-1.614933893279158e-07,5.577407864620909e-05
-2.3353079086518846e-05,4.1132905607810244e-05,9.33080809772946e-06,-3.1866816243564244e-06,5.506062007043511e-05
-1.497111406933982e-05,4.731105946120806e-05,1.1463326700322796e-05,-6.5179965531569906e-06,5.6291195505764335e-05
-9.825730558077339e-06,5.1680701290024444e-05,1.1739221918105613e-05,-8.139705641951878e-06,5.814485848532058e-05
-7.110797923814971e-06,4.8524041631026193e-05,9.54979350353824e-06,-8.744900696910918e-06,5.847608554176986e-05
-4.656977125705453e-06,3.9378966903313994e-05,8.707403139851522e-06,-8.748465916141868e-06,6.0222992033232003e-05
-1.5708678802184295e-06,3.246677079005167e-05,1.0715643838921096e-05,-6.447331543313339e-06,6.120643229223788e-05
-2.2185149646247737e-06,3.2786269002826884e-05,1.1321884812787175e-05,-3.4817335290426854e-06,6.130849942564964e-05
-8.762935976847075e-06,3.7066289223730564e-05,1.1259201528446283e-05,-4.009712483821204e-06,6.0956779634580016e-05
-1.7777747416403145e-05,3.86186657124199e-05,1.3519729691324756e-05,-7.5897837632510345e-06,6.152025889605284e-05
-2.8378297429298982e-05,3.601719799917191e-05,1.62235701282043e-05,-1.1810413525381591e-05,6.250620208447799e-05
-3.943202318623662e-05,3.1213687179842964e-05,1.8274347894475795e-05,-1.6863768905750476e-05,6.140662299003452e-05
-4.5266016968525946e-05,2.7917310944758356e-05,1.9338391211931594e-05,-1.9211647668271326e-05,6.011420919094235e-05
-4.0027607610682026e-05,3.194447708665393e-05,1.8931656086351722e-05,-1.7581589418114163e-05,6.055439735064283e-05
-3.181905412930064e-05,4.23216879426036e-05,1.7849595678853802e-05,-1.58304646902252e-05,6.01064893999137e-05
-3.021299016836565e-05,4.945076580042951e-05,1.6615593267488293e-05,-1.3091997061565053e-05,5.832844544784166e-05
-3.3337139029754326e-05,4.686102329287678e-05,1.5110005733731668e-05,-9.489752301305998e-06,5.7915480283554643e-05
-3.850633220281452e-05,3.1165538530331105e-05,1.2942149623995647e-05,-1.0648139323166106e-05,5.821702870889567e-05
-4.616487058228813e-05,1.0561120689089876e-05,1.0271433893649373e-05,-1.4290227227320429e-05,5.601770681096241e-05
-5.217940270085819e-05,3.885470505338162e-06,7.75698572397232e-06,-1.2049787073920015e-05,5.7214725529775023e-05
-5.096829409012571e-05,1.351098580926191e-05,5.19623108630185e-06,-8.376906407647766e-06,6.349881732603535e-05
-4.495642497204244e-05,2.3591361241415143e-05,6.333128567348467e-06,-1.184688153443858e-05,7.267959153978154e-05
-3.9954516978468746e-05,2.3497181246057153e-05,7.866330633987673e-06,-1.6229054381255992e-05,7.810719398548827e-05
-3.864025711663999e-05,2.13024286495056e-05,5.968800905975513e-06,-1.5425026504090056e-05,7.388376980088651e-05
-4.3548607209231704e-05,2.0150821001152508e-05,3.586786988307722e-06,-1.4424774235521909e-05,6.521721661556512e-05
-4.9121743359137326e-05,1.81900668394519e-05,4.064720542373834e-06,-1.4026583812665194e-05,6.0776012105634436e-05
-5.0550799642223865e-05,1.5648120097466744e-05,8.026678187889047e-06,-9.898829375742935e-06,6.291231693467125e-05
-4.506553159444593e-05,2.373551069467794e-05,8.256421097030398e-06,-5.866060746484436e-06,6.658425263594836e-05
-3.6943649320164695e-05,4.487924525164999e-05,5.855474228155799e-06,-7.4106978900090326e-06,6.86015555402264e-05
-3.351255145389587e-05,6.323580601019785e-05,7.258488494699122e-06,-1.131913722929312e-05,6.914875120855868e-05
-3.5961191315436736e-05,7.100117363734171e-05,9.265231710742228e-06,-1.3559108083427418e-05,7.111005106708035e-05
-4.05950122512877e-05,6.296020728768781e-05,6.949693215574371e-06,-1.5377620002254844e-05,7.146982534322888e-05
-4.3305783037794754e-05,3.3075837563956156e-05,1.6050254316724022e-06,-1.53041892190231e-05,6.601941277040169e-05
-4.225860902806744e-05,-5.645088549499633e-06,-2.6977513698511757e-06,-1.2593008250405546e-05,5.688017699867487e-05
-3.918691800208762e-05,-2.0413654056028463e-05,-2.7650587526295567e-06,-1.0677311365725473e-05,5.370137660065666e-05
-3.730981552507728e-05,-7.84512212703703e-06,-3.2791314197311294e-07,-9.624673111829907e-06,5.8029083447763696e-05
-3.558047319529578e-05,1.2791329027095344e-05,2.664406565600075e-06,-9.614925147616304e-06,6.227524863788858e-05
-3.547551386873238e-05,2.453580964356661e-05,3.983187525591347e-06,-1.0924293746938929e-05,6.271503661992028e-05
-3.591924541979097e-05,2.469126229698304e-05,2.240779394924175e-06,-1.1973988875979558e-05,5.886047802050598e-05
-3.134342114208266e-05,1.9936040189350024e-05,4.64987778059367e-07,-1.2154817341070157e-05,5.380764923756942e-05
-2.1767709768028e-05,1.9855759092024527e-05,2.8698768801405095e-06,-1.3760986803390551e-05,5.1426941354293376e-05
-1.542243808216881e-05,2.7344764021108858e-05,6.759155439794995e-06,-1.6968917407211848e-05,5.010034510632977e-05
-1.226935455633793e-05,3.1807350751478225e-05,7.143775292206556e-06,-2.0624986063921824e-05,4.840269320993684e-05
-1.0584195479168557e-05,2.1960853700875305e-05,1.7849740743258735e-06,-2.2097736291470937e-05,5.088214675197378e-05
-9.488046998740174e-06,-1.6963610960374353e-06,-5.019492164137773e-06,-2.028951894317288e-05,5.423694528872147e-05
-6.743617632309906e-06,-2.1967651264276356e-05,-6.110255981184309e-06,-2.1256319087115116e-05,5.3246665629558265e-05
-2.3337918264587643e-06,-2.824723196681589e-05,-3.7083141251059715e-06,-2.0186231267871335e-05,5.0846010708482936e-05
-4.240818725520512e-06,-2.0964633222320117e-05,-3.3723988508427283e-06,-1.293874538532691e-05,4.993790207663551e-05
-1.6042415154515766e-05,-7.640651347173844e-06,-2.523703187762294e-06,-8.526202691427898e-06,5.065763252787292e-05
-2.7996542485198006e-05,2.3879779291746672e-06,2.0039474293298554e-06,-9.944162229658104e-06,5.0723287131404504e-05
-4.0952851122710854e-05,7.782264219713397e-06,2.4948867576313205e-06,-1.417347084498033e-05,4.613828787114471e-05
-4.988161163055338e-05,1.5192907994787674e-05,3.747788923647022e-06,-1.3689886145584751e-05,4.315346450312063e-05
-4.934542084811255e-05,2.9517363145714626e-05,8.097747013380285e-06,-1.0317876331100706e-05,4.7765566705493256e-05
-4.7799469029996544e-05,4.994557093596086e-05,8.249657184933312e-06,-8.802568117971532e-06,5.205023262533359e-05
-4.278686174075119e-05,6.954609852982685e-05,3.7319798593671294e-06,-7.3945848271250725e-06,5.223594416747801e-05
-3.3024378353729844e-05,8.03483126219362e-05,5.301433247950627e-07,-6.630252300965367e-06,5.240018799668178e-05
-2.7291842343402095e-05,8.118993719108403e-05,2.0960503661626717e-06,-6.9413708843057975e-06,5.5244116083486006e-05
-2.8560147256939672e-05,7.721669680904597e-05,5.728979886043817e-06,-8.998168596008327e-06,5.755208621849306e-05
-3.0615992727689445e-05,7.932553853606805e-05,8.007634278328624e-06,-1.0634323189151473e-05,5.9544312534853816e-05
-2.9188260668888688e-05,8.48078852868639e-05,6.641284016950522e-06,-1.0404495697002858e-05,6.044759720680304e-05
-2.713719914027024e-05,8.043853449635208e-05,2.1659309368260438e-06,-1.0667854439816438e-05,5.816050179419108e-05
-2.8565433240146376e-05,7.122853276086971e-05,-1.038470600178698e-06,-1.1776613973779604e-05,5.470596443046816e-05
-3.238998760934919e-05,6.930634845048189e-05,1.7871220734377857e-06,-1.0346893759560771e-05,5.3218318498693407e-05
-3.6410165193956345e-05,6.815860979259014e-05,7.741725312371273e-06,-9.991435945266858e-06,5.38406748091802e-05
-3.7826637708349153e-05,5.588223575614393e-05,9.747498552314937e-06,-1.5419132978422567e-05,5.4375967010855675e-05
-3.80160054191947e-05,3.931859464501031e-05,4.140721102885436e-06,-2.352872434130404e-05,5.320871787262149e-05
-3.793967698584311e-05,3.212620140402578e-05,-4.746069407701725e-06,-3.0292691008071415e-05,5.256223812466487e-05
-3.452244709478691e-05,3.3611937396926805e-05,-1.3916654097556602e-05,-3.653693784144707e-05,5.400394002208486e-05
-3.0109466024441645e-05,2.8899434255436063e-05,-1.8973369151353836e-05,-4.170164538663812e-05,5.583548409049399e-05
-2.8304459192440845e-05,1.2620266716112383e-05,-1.5494642866542563e-05,-4.3418789573479444e-05,5.7388784625800326e-05
-2.9504841222660616e-05,-1.991490307773347e-06,-6.732227120664902e-06,-4.0712915506446734e-05,5.82914290134795e-05
-2.9308099328773096e-05,-1.7073007256840356e-06,3.4405752558086533e-06,-3.5770815884461626e-05,5.8396974054630846e-05
-3.071576793445274e-05,1.27843813970685e-05,1.1639202966762241e-05,-3.242653838242404e-05,5.4927601013332605e-05
-3.9016231312416494e-05,2.9404503948171623e-05,1.4244680642150342e-05,-3.0209514079615474e-05,5.084066651761532e-05
-4.6682889660587534e-05,2.8411683160811663e-05,1.5844625522731803e-05,-3.146842936985195e-05,4.900346903013997e-05
-4.2663370550144464e-05,4.905867626803229e-06,2.036357909673825e-05,-3.224573447369039e-05,5.160142609383911e-05
-2.748606857494451e-05,-6.731121629854897e-06,2.3958642486832105e-05,-2.468615275574848e-05,5.654876440530643e-05
-1.0857813322218135e-05,7.591514986415859e-06,2.502829556760844e-05,-1.6942789443419315e-05,6.078126170905307e-05
1.6210690318985144e-06,2.8625123377423733e-05,2.7012509235646576e-05,-1.3148389371053781e-05,6.319768726825714e-05
4.619093488145154e-06,5.120106288813986e-05,2.7219412004342303e-05,-9.51663878367981e-06,6.27026820438914e-05
-5.784153017884819e-06,6.0367518017301336e-05,2.4071068764897063e-05,-7.668580110475887e-06,6.236573244677857e-05
-1.5847950635361485e-05,5.7866855058819056e-05,1.9498958863550797e-05,-6.271984148042975e-06,6.227768608368933e-05
-1.533856993773952e-05,5.420036177383736e-05,1.4550807463820092e-05,-4.7504536269116215e-06,5.990699355606921e-05
-1.3986325029691216e-05,3.709793963935226e-05,1.0637621926434804e-05,-2.963116230603191e-06,5.862453690497205e-05
-1.6310312275891192e-05,6.022670277161524e-06,8.149903806042857e-06,9.663094715506304e-07,6.229792779777199e-05
-1.7095100702135824e-05,-1.212731240229914e-05,9.605339073459618e-06,6.899735126353335e-06,6.725268758600578e-05
-1.5384064681711607e-05,-4.290009655960603e-06,1.4159516467771027e-05,1.0675395969883539e-05,6.780461262678728e-05
-1.618964051885996e-05,1.4626955817220733e-05,1.5589510439895093e-05,8.78621813171776e-06,6.482424214482307e-05
-2.2020853066351265e-05,3.0022478313185275e-05,1.0726048458309378e-05,7.59440354158869e-06,6.209799903444946e-05
-2.7193138521397486e-05,3.6330558941699564e-05,5.6112285164999776e-06,1.1103685210400727e-05,5.950514241703786e-05
-2.6901414457825013e-05,3.431169534451328e-05,4.117991011298727e-06,1.238615186593961e-05,5.8181958593195304e-05
-2.5539893613313325e-05,2.778927591862157e-05,5.899164534639567e-06,6.975032192713115e-06,5.866911669727415e-05
-2.625004890433047e-05,2.5019722670549527e-05,5.771116320829606e-06,4.341887915870757e-07,5.79646548430901e-05
-2.5195307898684405e-05,2.413832044112496e-05,1.0938989589703851e-06,-2.661056896613445e-06,5.5742588301654905e-05
-2.0541636331472546e-05,2.097502874676138e-05,-5.034123205405194e-06,-3.4906058772321558e-06,5.558973134611733e-05
-1.5656660252716392e-05,1.8633973013493232e-05,-8.571266334911343e-06,-1.1089823601651005e-06,5.828501161886379e-05
-1.52804877870949e-05,2.282563036715146e-05,-9.335453796666116e-06,1.7821787423599744e-07,6.039589425199665e-05
-1.9516972315614112e-05,2.5374509277753532e-05,-4.882565917796455e-06,-3.926586487068562e-06,6.164901424199343e-05
-2.412227877357509e-05,1.9351602531969547e-05,3.051741487070103e-06,-6.996811407589121e-06,6.402985309250653e-05
-2.7467593099572696e-05,1.575788701302372e-05,5.546102784137474e-06,-4.57429723610403e-06,6.636416947003454e-05
-3.244103936594911e-05,2.059017788269557e-05,1.1141357845190214e-06,-2.275956347830288e-07,6.74414259265177e-05
-3.703423499246128e-05,2.4439041226287372e-05,-6.25672510068398e-06,8.210238320316421e-07,6.626122194575146e-05
-3.573322101146914e-05,2.4846485757734627e-05,-6.530698556161951e-06,1.1170276366101461e-06,6.257329368963838e-05
-2.543895061535295e-05,2.3459437215933576e-05,-3.1409040275320876e-06,9.811964218897629e-07,6.171094719320536e-05
-1.6774210962466896e-05,2.3501143004978076e-05,-1.0219631718655364e-07,-3.286339506303193e-06,6.402426515705884e-05
-1.6627647710265592e-05,2.8664579076576047e-05,5.3900748753221706e-06,-5.081766630610218e-06,6.406171451089904e-05
-2.051605042652227e-05,3.757542435778305e-05,9.28498320718063e-06,-2.6827769943338353e-06,6.464375474024564e-05
-2.3586699171573855e-05,4.469461418921128e-05,1.1125154742330778e-05,-2.125890659954166e-06,6.482698518084362e-05
-2.167179081880022e-05,4.866082963417284e-05,9.631504326534923e-06,-3.815654054051265e-06,6.296022183960304e-05
-1.6277575923595577e-05,5.24079441674985e-05,7.060331427055644e-06,-5.664587206410943e-06,6.113130075391382e-05
-1.345338660030393e-05,5.293327558320016e-05,8.428177352470811e-06,-7.270084097399376e-06,6.138664321042597e-05
-1.956540290848352e-05,4.255924795870669e-05,1.0235377885692287e-05,-6.564629075000994e-06,6.372260395437479e-05
-2.5976911274483427e-05,2.040074105025269e-05,1.1420390364946797e-05,-5.280477125779726e-06,6.428870983654633e-05
-2.546721589169465e-05,5.194641289563151e-06,1.4904445379215758e-05,-5.077072273707017e-06,6.047145143384114e-05
-2.0568571926560253e-05,6.950892384338658e-06,1.6787682397989556e-05,-5.316859642334748e-06,5.755828897235915e-05
-1.615674773347564e-05,1.710174183244817e-05,1.3773625141766388e-05,-7.529929462180007e-06,5.8921541494783014e-05
-1.1779143278545234e-05,2.795302316371817e-05,1.0306296644557733e-05,-1.0369629308115691e-05,5.932416388532147e-05
-9.468169082538225e-06,3.8689555367454886e-05,1.1184734830749221e-05,-1.0927989023912232e-05,5.7005821872735396e-05
-1.295780293730786e-05,4.2193205445073545e-05,1.3050398592895363e-05,-1.2071762284904253e-05,5.634020999423228e-05
-1.8581162294140086e-05,3.595513044274412e-05,1.1421359886298887e-05,-1.7052590919774957e-05,5.678496745531447e-05
-2.4191602278733626e-05,2.449765997880604e-05,5.4570082284044474e-06,-1.9584653273341246e-05,5.587817577179521e-05
-3.041888339794241e-05,1.625771983526647e-05,-1.5695262618464767e-06,-1.6717171092750505e-05,5.6193388445535675e-05
-3.8914207834750414e-05,2.2059482944314368e-05,-3.865980488626519e-06,-1.4282943993748631e-05,5.921756383031607e-05
-4.4166888983454555e-05,4.1569066524971277e-05,-1.4747038221685216e-06,-1.6776348275016062e-05,6.341011612676084e-05
-3.8479305658256635e-05,5.444730049930513e-05,1.8252636664328747e-06,-2.232524821010884e-05,6.485178164439276e-05
-3.147227835142985e-05,4.791044193552807e-05,3.474155391813838e-06,-2.5546023607603274e-05,6.113205017754808e-05
-3.286191713414155e-05,3.550447218003683e-05,2.408447699053795e-06,-2.588653478596825e-05,5.1839200750691816e-05
-3.7836056435480714e-05,2.1797291992697865e-05,8.940028237702791e-07,-2.652781768119894e-05,4.801191244041547e-05
-4.300690852687694e-05,5.0045955504174344e-06,-4.5473782961380493e-07,-2.7450480047264136e-05,5.235933713265695e-05
-3.8679198041791096e-05,-4.320981133787427e-06,1.728411007206887e-06,-2.9314218409126624e-05,5.5301072279689834e-05
-2.3134145521908067e-05,-5.506880370376166e-06,3.980554993177066e-06,-2.6970299586537294e-05,5.57387902517803e-05
-1.0226855920336675e-05,-7.421711870847503e-06,1.2800746844732203e-06,-2.1389327230281197e-05,5.4908923630136997e-05
-7.85707015893422e-06,-3.744828973140102e-06,-2.35534548664873e-06,-1.8671704310690984e-05,5.488363967742771e-05
-1.3435292203212157e-05,9.247145499102771e-06,-4.9371137720299885e-06,-1.5766472643008456e-05,5.736564708058722e-05
-2.274181133543607e-05,2.1235427993815392e-05,-5.355053872335702e-06,-1.1708950296451803e-05,6.033857061993331e-05
-2.99712955893483e-05,2.8250611649127677e-05,-5.865228104084963e-06,-9.278604920837097e-06,6.319703970802948e-05
-3.561183621059172e-05,3.429608477745205e-05,-4.740219083032571e-06,-8.318290383613203e-06,6.465793558163568e-05
-3.825796738965437e-05,3.818624099949375e-05,-1.9466438061499503e-06,-7.5699813351093326e-06,6.392291834345087e-05
-3.6902383726555854e-05,4.734931644634344e-05,5.916755299040233e-07,-7.071788786561228e-06,6.133053102530539e-05
-3.676017149700783e-05,6.394831871148199e-05,-5.08955110944953e-07,-5.885890914214542e-06,5.6206459703389555e-05
-3.628999547800049e-05,7.61584160500206e-05,-2.3852469439589186e-06,-6.808239049860276e-06,5.127565236762166e-05
-3.6826990253757685e-05,7.755414117127657e-05,-3.1571205454383744e-06,-7.057041784719331e-06,4.950154107064009e-05
-3.8094753108453006e-05,6.348441092995927e-05,-2.9516063477785792e-06,-6.3818038142926525e-06,5.192072057980113e-05
-3.7643378163920715e-05,3.185590685461648e-05,-2.302393113495782e-06,-7.908272891654633e-06,5.523934669326991e-05
-3.1860738090472296e-05,3.820807705778861e-06,-2.151768512703711e-06,-1.0757747986644972e-05,5.670729296980426e-05
-2.4364622731809504e-05,2.0633856365748215e-06,-4.6210854520722933e-07,-1.2698024875135161e-05,5.663666161126457e-05
-2.0443920220714062e-05,9.001054422697052e-06,6.540662980114575e-07,-1.3881494851375464e-05,5.391464219428599e-05
-2.0367928300402127e-05,6.008741820551222e-06,-2.2543524664797587e-06,-1.3538478924601804e-05,5.218191654421389e-05
-2.2774727767682634e-05,2.704733333303011e-06,-5.482243977894541e-06,-1.0693875992728863e-05,5.3618332458427176e-05
-2.7834055799758062e-05,1.3059534467174672e-05,-1.4856558436804335e-06,-8.946651178121101e-06,5.396972119342536e-05
-2.9675049518118612e-05,2.917838719440624e-05,5.65574691790971e-06,-8.663620064908173e-06,5.213066833675839e-05
-2.3519965907325968e-05,3.371762068127282e-05,1.0031247256847564e-05,-1.0411614312033635e-05,5.439504820969887e-05
-1.9426657672738656e-05,2.3767763195792213e-05,8.33904960018117e-06,-1.4770905181649141e-05,5.8942554460372776e-05
-2.2887874365551397e-05,1.4308097888715565e-05,3.886838385369629e-06,-1.7263577319681644e-05,5.8933699619956315e-05
-2.5763307348825037e-05,1.3275141100166366e-05,2.1624741748382803e-06,-1.2131054063502233e-05,5.953175059403293e-05
-2.2489146431325935e-05,1.762585452524945e-05,1.5749105841678102e-06,-3.3179508136527147e-06,6.369037146214396e-05
-2.1587264200206846e-05,2.6054649424622767e-05,1.4335500964079984e-06,-7.071708978401148e-07,6.304449198069051e-05
-2.3397560653393157e-05,2.9142545827198774e-05,3.541928663253202e-06,-6.51573418508633e-06,5.944415170233697e-05
-2.3527265511802398e-05,2.2767833797843195e-05,5.347262685972964e-06,-1.2143023013777565e-05,5.6307620980078354e-05
-2.1174430003156886e-05,8.896457075024955e-06,5.092061201139586e-06,-1.1098204595327843e-05,5.492023774422705e-05
-1.875559610198252e-05,1.3566505003836937e-06,5.954323114565341e-06,-5.18725892106886e-06,5.8707035350380465e-05
-2.014417805185076e-05,1.5912353319436079e-06,5.178348601475591e-06,-2.9422237730614142e-06,6.366101297317073e-05
-2.2739957785233855e-05,4.90955153509276e-06,-2.9129280392226065e-06,-3.433847723499639e-06,6.831352948211133e-05
-2.503626274119597e-05,1.373227951262379e-05,-1.1053894922952168e-05,-1.9442466054897523e-06,6.716232019243762e-05
-2.8360822398099117e-05,1.9739227354875766e-05,-1.3970931831863709e-05,-5.39578820735187e-07,6.27804547548294e-05
-3.112501508439891e-05,2.3462351236958057e-05,-1.016419719235273e-05,-1.8543171336204978e-06,6.0650960222119465e-05
-3.0431951017817482e-05,3.144145739497617e-05,-3.1063423193700146e-06,-6.770587788196281e-06,6.318080704659224e-05
-2.6088473532581702e-05,4.170121974311769e-05,4.0020718188316096e-06,-1.0944703717541415e-05,6.638526247115806e-05
-2.1850926714250818e-05,4.567443102132529e-05,9.630949534766842e-06,-1.228804285346996e-05,6.583327922271565e-05
-2.317425787623506e-05,4.127159991185181e-05,1.5224930393742397e-05,-1.3108223356539384e-05,6.223119999049231e-05
-2.9097409424139187e-05,3.4418470022501424e-05,2.11542264878517e-05,-1.401699864800321e-05,5.764445450040512e-05
-3.1946925446391106e-05,3.3312535379081964e-05,2.5413150069653057e-05,-1.0645748261595145e-05,5.484806024469435e-05
-3.054376065847464e-05,3.85132989322301e-05,2.7004973162547685e-05,-4.568350959743839e-06,5.505787339643575e-05
-3.002111589012202e-05,4.2575880797812715e-05,2.6805890229297802e-05,-1.6938111002673395e-06,5.667162622557953e-05
-2.7477273761178367e-05,4.268437987775542e-05,2.647220935614314e-05,-2.3668633275519824e-06,5.815714393975213e-05
-2.0368308469187468e-05,4.318490391597152e-05,2.2666734366794117e-05,-3.164442205161322e-06,6.038418723619543e-05
-1.6181933460757136e-05,4.47195052402094e-05,1.79931284947088e-05,-4.8000742935983e-06,6.131580448709428e-05
-1.6639196473988704e-05,4.4268737838137895e-05,1.56781079567736e-05,-7.113948413461912e-06,6.024041067576036e-05
-2.2269467081059702e-05,4.305432230466977e-05,1.622974014026113e-05,-7.4499985203146935e-06,6.182812649058178e-05
-3.233879033359699e-05,4.186407750239596e-05,1.5927847925922833e-05,-6.081165338400751e-06,6.53876195428893e-05
-3.954530620831065e-05,4.025350426672958e-05,1.5660443750675768e-05,-5.3176031542534474e-06,6.405327440006658e-05
-4.2754909372888505e-05,4.178305607638322e-05,1.5739549780846573e-05,-7.910241947683971e-06,6.253171886783093e-05
-4.5030272303847596e-05,4.024431837024167e-05,1.3949666026746854e-05,-6.9307047851907555e-06,5.799865539302118e-05
-4.354980046628043e-05,3.6491597711574286e-05,1.187322322948603e-05,-1.318615773016063e-06,5.4023075790610164e-05
-3.5572287742979825e-05,4.081904990016483e-05,9.993200364988297e-06,6.452525212807814e-06,5.545292515307665e-05
-2.605487134133e-05,4.8244852223433554e-05,9.051446795638185e-06,9.001989383250475e-06,5.562681326409802e-05
-1.9856035578413866e-05,5.048090679338202e-05,8.107822395686526e-06,2.479904196661664e-06,5.624081677524373e-05
-1.861424243543297e-05,4.4025950046489015e-05,5.581149707722943e-06,-2.285846676386427e-06,5.8950961829395965e-05
-1.6573596440139227e-05,2.787214361887891e-05,6.6064299062418286e-06,-3.324938916193787e-06,6.013309030095115e-05
-1.3352823771128897e-05,6.546889380842913e-06,9.175277227768674e-06,-5.5235605032066815e-06,5.757457984145731e-05
-8.976262506621424e-06,-3.3669978165562497e-06,7.99389999883715e-06,-1.10504233816755e-05,5.4903423006180674e-05
-5.1733791224251036e-06,5.006126684747869e-06,5.321342541719787e-06,-1.1748586075555068e-05,5.97401631239336e-05
-6.768860203010263e-06,1.518234330433188e-05,3.576612471078988e-06,-7.918675692053512e-06,6.567712989635766e-05
-1.1505480870255269e-05,1.5331970644183457e-05,1.9094136405328754e-06,-5.8097443798033055e-06,6.616704195039347e-05
-1.5397004972328432e-05,1.49419665831374e-05,1.311355219968391e-07,-7.96532094682334e-06,6.324896094156429e-05
-1.8623120922711678e-05,2.049798240477685e-05,-1.1516132190081407e-06,-9.127148587140255e-06,6.009508069837466e-05
-2.3302822228288278e-05,2.854141712305136e-05,-3.4225010381305765e-07,-8.04475257609738e-06,5.909934770897962e-05
-2.7699192287400365e-05,3.707997893798165e-05,3.955151441914495e-06,-9.167387361230794e-06,5.797276389785111e-05
-3.156563616357744e-05,4.326822090661153e-05,7.886656931077596e-06,-1.1464132512628566e-05,5.4650488891638815e-05
-3.387401739018969e-05,4.30763466283679e-05,7.050964086374734e-06,-1.2508244253695011e-05,4.898081533610821e-05
-3.4374788810964674e-05,4.133195034228265e-05,4.452903795026941e-06,-1.169474398921011e-05,4.225442171446048e-05
-3.156120146741159e-05,4.2745428800117224e-05,4.0978711695061065e-06,-9.724076335260179e-06,3.989904507761821e-05
-2.9393670047284104e-05,3.414645470911637e-05,2.4306484647240723e-06,-7.560903668490937e-06,4.464326775632799e-05
-3.0909377528587356e-05,1.0762499186967034e-05,-1.8551763787399977e-06,-9.20671573112486e-06,5.0943133828695863e-05
-2.933942960225977e-05,-2.2513220301334513e-06,-3.3914823234226787e-06,-1.3498118278221227e-05,5.24611932632979e-05
-2.5920457119354978e-05,1.033200078381924e-05,-1.460177486478642e-06,-1.569071173435077e-05,4.970027657691389e-05
-2.8681297408184037e-05,2.626072455313988e-05,5.8298599725503664e-08,-1.4284058124758303e-05,4.832308695768006e-05
-2.8876005671918392e-05,2.445326026645489e-05,-8.368663770852436e-07,-1.337669982603984e-05,4.8777834308566526e-05
-2.408869841019623e-05,1.2855992281401996e-05,-1.7157007050627726e-06,-1.442980192223331e-05,4.96160973852966e-05
-2.0809857232961804e-05,7.370459570665844e-06,-4.00709154746437e-07,-1.4433671822189353e-05,5.037385199102573e-05
-1.9046192392124794e-05,8.831926606944762e-06,8.699360023456393e-07,-1.4108946743363049e-05,5.037589289713651e-05
-2.0590881831594743e-05,1.7556987586431205e-05,3.8867351577209774e-06,-1.5807918316568248e-05,5.415276245912537e-05
-2.1739862859249115e-05,2.6747553420136683e-05,6.242717972781975e-06,-2.0235451302141882e-05,6.154248694656417e-05
-2.2324164092424326e-05,2.7071057047578506e-05,9.408537152921781e-06,-2.4406286684097722e-05,6.364305590977892e-05
-2.794203464873135e-05,2.42929563682992e-05,1.2274599612283055e-05,-2.5257786546717398e-05,6.1094768170733e-05
-3.9554815884912387e-05,2.122129990311805e-05,9.447117918170989e-06,-2.6595731469569728e-05,5.764950765296817e-05
-4.8601181333651766e-05,1.9052995412494056e-05,5.328814950189553e-06,-2.7030595447286032e-05,5.8488865761319175e-05
-4.6079941967036575e-05,1.9053846699534915e-05,6.020030468789628e-06,-2.663310988282319e-05,6.210736319189891e-05
-3.7199170037638396e-05,2.2384498151950538e-05,1.1308296961942688e-05,-2.403118742222432e-05,6.561884947586805e-05
-3.463330358499661e-05,2.7757118004956283e-05,1.4033326806384139e-05,-2.3948776288307272e-05,6.390911585185677e-05
-3.876606569974683e-05,3.137400562991388e-05,1.371091275359504e-05,-2.456672336847987e-05,5.912342749070376e-05
-4.204259312245995e-05,3.2389456464443356e-05,1.2389499715936836e-05,-2.221164686488919e-05,5.7194298278773203e-05
-3.953992927563377e-05,3.0970448278822005e-05,9.666648111306131e-06,-1.9543558664736338e-05,6.225304969120771e-05
-3.3622607588768005e-05,3.0390117899514735e-05,4.854030976275681e-06,-1.887832513602916e-05,6.923267210368067e-05
-2.853313708328642e-05,4.016537786810659e-05,2.670680032679229e-06,-1.8114216800313443e-05,7.137979991966859e-05
-2.525605850678403e-05,5.888562009204179e-05,6.146206033008639e-06,-1.5372756024589762e-05,6.975175347179174e-05
-2.1959955120109953e-05,6.521385512314737e-05,9.859655619948171e-06,-1.3902947102906182e-05,6.652966112596914e-05
-2.0693572878371924e-05,4.456435272004455e-05,9.314025191997644e-06,-1.277266437682556e-05,6.245284021133557e-05
-2.3528922611149028e-05,1.4926275071047712e-05,5.470819814945571e-06,-1.0477720934432e-05,5.8534573327051476e-05
-2.4557322831242345e-05,6.2784506553725805e-06,2.0273930658731842e-06,-8.24097151053138e-06,5.849183799000457e-05
-2.195292108808644e-05,2.454743480484467e-05,1.5974932239259942e-06,-9.219865205523092e-06,5.947122917859815e-05
-1.951592457771767e-05,4.960495061823167e-05,3.253343948017573e-06,-9.285194209951442e-06,6.076624049455859e-05
-1.9873774363077246e-05,6.192961154738441e-05,3.84185477741994e-06,-7.2146458478528075e-06,6.172822759253904e-05
-2.450035208312329e-05,6.325284630293027e-05,1.2099345667593298e-06,-3.2593627565802308e-06,6.302999099716544e-05
-3.0177125154295936e-05,6.437331467168406e-05,-4.41409019913408e-06,-3.365519432918518e-06,6.412209040718153e-05
-3.2318570447387174e-05,6.104915519244969e-05,-5.491667707246961e-06,-8.362998414668255e-06,6.645297253271565e-05
-2.996753028128296e-05,4.492421794566326e-05,3.464906797034928e-07,-1.0913511687249411e-05,6.741526158293709e-05
-2.487024903530255e-05,1.1199280379514676e-05,6.736910108884331e-06,-6.864871920697624e-06,6.810134800616652e-05
-2.1432098947116174e-05,-3.013096284121275e-05,4.553258349915268e-06,-2.092715021717595e-06,7.0398353273049e-05
-1.8371529222349636e-05,-2.691857844183687e-05,1.4911827292962698e-06,8.931257866606757e-07,7.34920467948541e-05
-1.933539351739455e-05,1.3580729500972666e-05,1.979525222850498e-06,3.5457624107948504e-06,7.522012310801074e-05
-2.202974064857699e-05,3.6225508665665984e-05,-3.568171180745594e-08,4.629206159734167e-06,7.58502574171871e-05
-2.0103880160604604e-05,3.438806743361056e-05,-4.28197472501779e-06,2.7927442260988755e-06,7.513935270253569e-05
-1.785453969205264e-05,2.2266985979513265e-05,-1.1164779607497621e-05,7.270880928444967e-07,7.435435691149905e-05
-1.5961428289301693e-05,1.3082430086797103e-05,-1.5314413758460432e-05,1.4400027339434018e-06,7.356808782787994e-05
-1.724297908367589e-05,1.1027103937522043e-05,-1.5321988030336797e-05,2.6719303605204914e-06,7.04784324625507e-05
-2.1680236386600882e-05,1.5017311852716375e-05,-1.3907781067246106e-05,3.6003821151098236e-06,6.602313806070015e-05
-2.514420702937059e-05,1.8768225345411338e-05,-1.1676919712044764e-05,3.87235240850714e-06,6.241951632546261e-05
-2.5699771867948584e-05,2.1885609385208227e-05,-7.0354399213101715e-06,2.308527427885565e-06,5.956484892521985e-05
-2.6412202714709565e-05,2.527714786992874e-05,-2.980597400892293e-06,-2.9289913072716445e-07,5.722650166717358e-05
-2.7912334189750254e-05,2.8216698410687968e-05,2.103115406271172e-07,-1.9611211428127717e-06,5.8379475376568735e-05
-2.795782347675413e-05,3.0383906050701626e-05,1.2446845403246698e-06,-3.194906639691908e-06,6.179122283356264e-05
-2.886889888031874e-05,3.188442497048527e-05,-4.6229578742895683e-07,-6.098947324062465e-06,6.52672752039507e-05
-2.933860923803877e-05,3.399764318601228e-05,-1.0980037359331618e-06,-1.0630832548486069e-05,6.79866352584213e-05
-2.789805512293242e-05,3.789936090470292e-05,2.0761917767231353e-06,-1.311914820689708e-05,6.723072874592617e-05
-2.5339089916087687e-05,4.0474318666383624e-05,4.661017555918079e-06,-1.0828874110302422e-05,6.346854934236035e-05
-2.2889884348842315e-05,3.717456274898723e-05,2.896845671784831e-06,-7.171129254857078e-06,5.9491601859917864e-05
-1.9680564946611412e-05,3.003671190526802e-05,5.947183012722235e-07,-7.84303938416997e-06,5.7028675655601546e-05
-1.181354218715569e-05,2.0473777112783864e-05,-2.8782568506358075e-07,-1.1301714948785957e-05,5.7853270845953375e-05
-1.8923570905826637e-06,1.4076329534873366e-05,-4.488481408770895e-06,-1.2783915735781193e-05,5.791067087557167e-05
-1.0196459925282397e-06,1.2024322131765075e-05,-1.4239256415748969e-05,-9.274746844312176e-06,5.959124973742291e-05
-1.0990056580340024e-05,1.3026852684561163e-05,-2.1052450392744504e-05,-5.5017912927723955e-06,6.0595782997552305e-05
-2.8053042115061544e-05,2.1112829927005805e-05,-1.782095387170557e-05,-5.749127012677491e-06,5.470607720781118e-05
-4.267157783033326e-05,3.272684261901304e-05,-6.5417125370004214e-06,-8.169972716132179e-06,4.911277937935665e-05
-4.4131051254225895e-05,4.2895211663562804e-05,3.3339194942527683e-06,-5.4192501011129934e-06,5.20868125022389e-05
-3.852849476970732e-05,4.538699067779817e-05,1.0422275408927817e-05,-5.011800681131717e-07,5.792594311060384e-05
-3.550576002453454e-05,4.219831680529751e-05,1.6167190551641397e-05,-1.9400047222006833e-06,5.6759181461529806e-05
-3.8294383557513356e-05,4.19815223722253e-05,2.1308233044692315e-05,-3.3251951663260115e-06,5.1555896789068356e-05
-4.014922888018191e-05,4.0481609175913036e-05,2.4529841539333574e-05,-2.042214191533276e-06,4.834704668610357e-05
-2.775632128759753e-05,3.5343284253031015e-05,2.9954187994007953e-05,-9.218641139341344e-07,4.987778447684832e-05
-9.503458386461716e-06,3.6144851037533954e-05,3.498758815112524e-05,2.563645011832705e-07,5.361363218980841e-05
-4.501335752138402e-06,4.2732983274618164e-05,3.496788121992722e-05,-1.1936251667066244e-06,5.5365468142554164e-05
-1.1776252904383e-05,4.21343938796781e-05,3.2775897125247866e-05,-7.192655630205991e-06,5.580849028774537e-05
-2.0803516235901043e-05,4.1654828237369657e-05,3.1980525818653405e-05,-1.3121009033056907e-05,5.409451114246622e-05
-2.9671122319996357e-05,4.931640069116838e-05,3.236215343349613e-05,-1.5842548236832954e-05,5.125204916112125e-05
-3.696986095746979e-05,6.233390740817413e-05,3.0209215765353292e-05,-1.4944708709663246e-05,4.718418131233193e-05
-3.935861968784593e-05,7.661772542633116e-05,2.7836638764711097e-05,-1.064739717548946e-05,4.5352106099016964e-05
-3.89340020774398e-05,8.406765118706971e-05,2.584767935331911e-05,-6.866438070574077e-06,4.649582479032688e-05
-3.5816727177007124e-05,7.568447472294793e-05,2.5107925466727465e-05,-5.681689344783081e-06,4.812546831090003e-05
-3.0715000320924446e-05,5.6259872508235276e-05,2.4665592718520202e-05,-4.709941549663199e-06,4.87481702293735e-05
-2.79707874142332e-05,3.4726188459899276e-05,2.338078229513485e-05,-2.951681608465151e-06,4.9052094254875556e-05
-3.20498802466318e-05,5.559013516176492e-06,1.8259133867104538e-05,-2.6573657123662997e-06,4.876705497736111e-05
-3.774315700866282e-05,-3.079212183365598e-05,1.008772051136475e-05,-3.1879508242127486e-06,4.858551255892962e-05
-3.734268466359936e-05,-5.2932638936908916e-05,5.479796982399421e-06,-5.101349415781442e-06,4.893590812571347e-05
-2.9784272555843927e-05,-4.32687702414114e-05,8.084995897661429e-06,-8.491299013257958e-06,4.9514423153596e-05
-2.5550620193826035e-05,-1.8442497093928978e-05,1.1144755262648687e-05,-1.1487220035633072e-05,5.013601912651211e-05
-3.0452507417066954e-05,2.378006591641224e-08,7.933099368528929e-06,-1.1133251973660663e-05,4.795530912815593e-05
-3.4204091207357123e-05,1.555986818857491e-05,-1.5706808653703774e-07,-8.980381608125754e-06,4.8207610234385356e-05
-3.188648042851128e-05,3.117850792477839e-05,-6.026895789545961e-06,-1.2327078366070054e-05,5.1444818382151425e-05
-2.8735048545058817e-05,3.382592694833875e-05,-7.1115932769316714e-06,-1.97404242499033e-05,5.3979554650140926e-05
-2.9612761863972992e-05,2.49359381996328e-05,-8.246976904047187e-06,-2.5789833671296947e-05,5.534456795430742e-05
-3.1821775337448344e-05,1.977968895516824e-05,-8.51349159347592e-06,-3.197466503479518e-05,5.716012674383819e-05
-2.9189444830990396e-05,2.370211950619705e-05,-4.698703833128093e-06,-3.361649578437209e-05,6.368692993419245e-05
-2.3845881514716893e-05,3.990076220361516e-05,1.0494107272052133e-07,-2.757078254944645e-05,6.679023499600589e-05
-2.4509645299986005e-05,5.9361271269153804e-05,2.337962314413744e-06,-1.8461116269463673e-05,5.969121411908418e-05
-3.187924812664278e-05,6.343956920318305e-05,2.514434527256526e-06,-1.1942583114432637e-05,5.0290862418478355e-05
-4.2532687075436115e-05,5.898804374737665e-05,2.026248921538354e-06,-1.0658287465048488e-05,4.544150215224363e-05
-4.904628804069944e-05,6.191297143232077e-05,-1.285896246372431e-06,-1.322815842286218e-05,4.693101072916761e-05
-4.733569221571088e-05,6.11743816989474e-05,-8.483546480420046e-06,-1.9572780729504302e-05,5.004962076782249e-05
-4.345615525380708e-05,3.868552448693663e-05,-1.3434379980026279e-05,-2.3541797418147326e-05,5.151711229700595e-05
-3.6141671444056556e-05,1.016214446281083e-05,-1.3474123988999054e-05,-2.241790571133606e-05,5.315491944202222e-05
-2.3298538508242927e-05,4.2051297555190104e-08,-7.791495590936393e-06,-1.8697543055168353e-05,5.9983842220390216e-05
-1.2234349924256094e-05,4.5986362238181755e-06,-1.5337243439716985e-06,-1.6446572772110812e-05,6.775686051696539e-05
-7.1097265390562825e-06,-5.8911605265166145e-06,7.976954066180042e-07,-1.67230173246935e-05,6.864640454296023e-05
-6.896145805512788e-06,-2.9967988666612655e-05,5.943912242400984e-07,-2.1370311515056528e-05,6.472384120570496e-05
-7.958331480040215e-06,-3.281690806034021e-05,1.2178077213320648e-06,-2.6361427444498986e-05,6.208595732459798e-05
-5.254397365206387e-06,-1.0142799510504119e-05,3.380814860065584e-06,-2.7196483642910607e-05,6.0398666391847655e-05
4.347701576534746e-07,1.3730615137319546e-05,4.372349394543562e-06,-2.7195836082682945e-05,6.0211219533812255e-05
4.986867224943126e-06,2.2551603251486085e-05,5.857345058757346e-06,-2.6010193323600106e-05,5.9023801441071555e-05
3.328870889163227e-06,1.9517789041856304e-05,8.962092579167802e-06,-2.301499989698641e-05,5.796959885628894e-05
-5.589863121713279e-06,1.5076556337589864e-05,1.3521329492505174e-05,-2.1198780814302154e-05,6.0372472944436595e-05
-1.348321256955387e-05,1.7692462279228494e-05,1.7573840523255058e-05,-2.1870071577723138e-05,6.4983541960828e-05
-1.601060102984775e-05,2.286716699018143e-05,1.859758049249649e-05,-2.2765945686842315e-05,6.713809852954e-05
-1.691484976618085e-05,2.2777523554395884e-05,1.6940311979851685e-05,-2.1846655727131292e-05,6.842920993221924e-05
-1.672909093031194e-05,1.917807458085008e-05,1.3800843589706346e-05,-2.0613140804925933e-05,7.076408655848354e-05
-1.7505642972537316e-05,1.8307891878066584e-05,1.1266368346696254e-05,-2.236384534626268e-05,6.898190622450784e-05
-2.0928675439790823e-05,1.9970164430560544e-05,7.405591986753279e-06,-2.5244220523745753e-05,6.6648397478275e-05
-2.882693661376834e-05,1.6851758118718863e-05,3.6330579860077705e-06,-2.6051786335301585e-05,6.13229931332171e-05
-4.3400712456787005e-05,1.4344274859467987e-05,7.755160368105862e-06,-2.16607004404068e-05,5.7412267779000103e-05
-5.400738518801518e-05,2.424544800305739e-05,1.4470248061115853e-05,-1.4627124983235262e-05,6.0990390920778736e-05
-5.3358333389041945e-05,3.585311060305685e-05,1.4066428775549866e-05,-7.987996468727943e-06,6.46609187242575e-05
-4.719572825706564e-05,4.067668487550691e-05,7.14659381628735e-06,-4.444321803021012e-06,6.315061909845099e-05
-4.081236329511739e-05,4.724625978269614e-05,4.594127858581487e-06,-4.0121813071891665e-06,6.169541302369907e-05
-3.4519202017690986e-05,5.531731221708469e-05,6.112048140494153e-06,-4.505998731474392e-06,6.281677633523941e-05
-2.5990668291342445e-05,5.804259853903204e-05,4.729511601908598e-06,-5.191493528400315e-06,6.293452315730974e-05
-1.8542652469477616e-05,5.437478830572218e-05,1.6150479495991021e-06,-6.647860118391691e-06,6.118855526437983e-05
-1.8657054170034826e-05,4.523686584434472e-05,1.4104466572462115e-06,-7.698081390117295e-06,6.182989454828203e-05
-2.1815329091623425e-05,2.941026286862325e-05,4.2768328967213165e-06,-3.2371028737543384e-06,6.32408118690364e-05
-2.409192529739812e-05,1.0731167094490957e-05,3.6749811442859937e-06,4.345889465184882e-06,6.505250348709524e-05
-2.640055572555866e-05,7.253718194988323e-06,1.484492145209515e-06,8.77199272508733e-06,6.619583291467279e-05
-3.010650289070327e-05,1.9378498109290376e-05,-4.5541324311670905e-07,8.617997082183138e-06,6.39956706436351e-05
-3.5261036828160286e-05,3.270338856964372e-05,-3.4668589705688646e-06,6.338817456708057e-06,6.077249054214917e-05
-3.909955557901412e-05,4.213262945995666e-05,-5.265685558697442e-06,5.048200819146587e-06,5.744714508182369e-05
-3.794402437051758e-05,4.49869257863611e-05,-3.720313770827488e-06,3.752283191715833e-06,5.45787152077537e-05
-3.0582112231059e-05,3.936425127903931e-05,4.112030467240402e-07,2.235822421425837e-06,5.489183604368009e-05
-2.1467038095579483e-05,3.206856854376383e-05,6.083854714233894e-06,3.0054616217967123e-06,5.6936572946142405e-05
-1.5200978850771207e-05,3.100317917414941e-05,8.407927452935837e-06,1.8163108279622975e-06,5.7852994359564036e-05
-6.556905645993538e-06,3.163618021062575e-05,6.916392976563657e-06,-3.0386952403205214e-06,6.0298207245068625e-05
5.879599939362379e-06,3.146261224173941e-05,6.630937150475802e-06,-6.611025128222536e-06,6.435542309191078e-05
1.1143594747409225e-05,3.55881275027059e-05,4.760634510603268e-06,-9.376185516885016e-06,6.583733920706436e-05
6.049578132660827e-06,4.014338264823891e-05,-3.616857213728508e-07,-1.3301753824634943e-05,6.265449337661266e-05
5.45086265901773e-07,3.490608651190996e-05,-2.2924500626686495e-06,-1.600291761860717e-05,6.065140769351274e-05
1.309383947045717e-06,3.1682309781899676e-05,1.0668840104699484e-06,-1.7593471056898125e-05,6.204024975886568e-05
-5.670285645464901e-07,3.5722096072277054e-05,5.015562692278763e-06,-1.4864980585116427e-05,6.328855670290068e-05
-9.183982001559343e-06,3.7028461520094424e-05,7.550302598247072e-06,-1.1890645509993192e-05,6.108526577008888e-05
-2.4318787836818956e-05,3.1094936275621876e-05,1.2745279491355177e-05,-1.3678193681698758e-05,5.531973147299141e-05
-4.2357725760666654e-05,2.863872032321524e-05,1.7326712622889318e-05,-1.3291694813233335e-05,5.282452184474096e-05
-5.539874473470263e-05,3.503054176690057e-05,1.9548431737348437e-05,-1.4003900105308276e-05,5.620660522254184e-05
-5.8315890782978386e-05,3.84908817068208e-05,1.9677680029417388e-05,-1.7259422747883946e-05,5.640240851789713e-05
-5.238253652350977e-05,4.118049400858581e-05,1.5124615856620949e-05,-1.811525180528406e-05,5.2908671932527795e-05
-4.565855851978995e-05,5.201763997320086e-05,1.1386080586817116e-05,-1.879454794107005e-05,5.048121965955943e-05
-3.663776078610681e-05,6.470592779805884e-05,7.584078502986813e-06,-1.9234204955864698e-05,4.954697214998305e-05
-2.88878600258613e-05,6.255388143472373e-05,7.93532672105357e-06,-1.6928624972933903e-05,5.14571693202015e-05
-2.9726712455158122e-05,3.950914106098935e-05,1.257002804777585e-05,-1.4448564797930885e-05,5.410628000390716e-05
-3.3603333577048033e-05,1.0155374184250832e-05,1.6346555639756843e-05,-1.3777992535324302e-05,5.427060023066588e-05
-3.2233656384050846e-05,2.4468010906275595e-06,1.972063364519272e-05,-1.1217275641683955e-05,5.2988129027653486e-05
-2.4428702090517618e-05,2.064799082290847e-05,1.959118526428938e-05,-6.246617886063177e-06,5.3333242249209434e-05
-2.1409003238659352e-05,4.363731568446383e-05,1.683744449110236e-05,-3.3745300243026577e-06,5.415966734290123e-05
-2.9576129236374982e-05,5.2320272516226396e-05,1.573533154441975e-05,-3.6161545722279698e-06,5.3018615290056914e-05
-3.9986080082599074e-05,4.5511344069382176e-05,1.5149906175793149e-05,-3.662298695417121e-06,5.288391184876673e-05
-4.351333336671814e-05,3.1939220207277685e-05,1.2007584700768348e-05,-2.724919568208861e-06,5.454519487102516e-05
-4.237072425894439e-05,1.3704991943086497e-05,8.34299953567097e-06,-4.519896720012184e-06,5.720719855162315e-05
-3.9126058254623786e-05,-5.792817319161259e-06,6.8169497353665065e-06,-1.0451678463141434e-05,5.781256186310202e-05
-3.3423188142478466e-05,-7.955944965942763e-06,7.039398042252287e-06,-1.4825355719949584e-05,5.881340985069983e-05
-2.6843606974580325e-05,1.858990071923472e-05,6.461019893322373e-06,-1.0278180525347125e-05,6.332254997687414e-05
-2.287304596393369e-05,5.621611489914358e-05,4.9240002226724755e-06,-1.393318939335586e-06,6.875302642583847e-05
-1.9577757484512404e-05,8.398507634410635e-05,5.51914808966103e-06,3.2555367397435475e-06,7.163677219068632e-05
-1.2433665688149631e-05,9.303097613155842e-05,8.13124734122539e-06,2.4754060632403707e-06,7.276941323652864e-05
-6.963726718822727e-06,8.506095036864281e-05,7.1946269599720836e-06,-4.973118393536424e-06,7.172776531660929e-05
-1.1165587238792796e-05,5.665234857588075e-05,1.84056762009277e-06,-1.2465453437471297e-05,6.53762326692231e-05
-2.0395897081471048e-05,1.4685067071695812e-05,-4.253981387591921e-06,-1.5149696082517039e-05,5.489818431669846e-05
-2.9285831260494888e-05,-3.0081118893576786e-05,-8.201635864679702e-06,-1.756287383614108e-05,4.6147804823704064e-05
-3.559021934051998e-05,-8.48122508614324e-05,-1.1138726222270634e-05,-1.971117853827309e-05,4.49904655397404e-05
-2.4805096472846344e-05,-0.00010756324627436697,-1.0818273949553259e-05,-1.933343446580693e-05,5.1342311053304e-05
-1.090175373974489e-05,-7.693011866649613e-05,-9.032944944920018e-06,-1.713122401270084e-05,6.313994526863098e-05
-1.605868419574108e-05,-3.132694473606534e-05,-8.673656338942237e-06,-1.4620101865148172e-05,6.863258022349328e-05
-3.657017805380747e-05,1.822067133616656e-06,-9.212361874233466e-06,-1.3710429811908398e-05,6.494738045148551e-05
-5.5067113862605765e-05,1.429598887625616e-05,-9.505380148766562e-06,-1.6662916095810942e-05,5.974918894935399e-05
-6.0196609410922974e-05,1.7629874491831288e-05,-7.483569333999185e-06,-1.7788330296752974e-05,5.718274769606069e-05
-5.759784471592866e-05,2.1197995010879822e-05,-5.837035132572055e-06,-1.576072463649325e-05,5.6902787036960945e-05
-5.0998660299228504e-05,3.594184818211943e-05,-4.079039172211196e-06,-1.4345411727845203e-05,5.8967736549675465e-05
-4.690616697189398e-05,5.0588489102665335e-05,-5.085072189103812e-06,-1.19451806313009e-05,5.936615343671292e-05
-4.527779674390331e-05,5.874543057871051e-05,-6.6336383497400675e-06,-9.633473382564262e-06,5.886636063223705e-05
-4.204559081699699e-05,5.909269384574145e-05,-5.998618689773139e-06,-8.703691491973586e-06,5.844630504725501e-05
-3.51277703884989e-05,5.760228668805212e-05,-3.7698898722737795e-06,-8.266383701993618e-06,5.737876199418679e-05
-2.7799778763437644e-05,6.179748743306845e-05,-1.7221177586179692e-06,-8.45170234242687e-06,5.8728699514176697e-05
-2.5872943297144957e-05,6.882046727696434e-05,-1.6063646626207628e-06,-1.0501865290279966e-05,6.169541302369907e-05
-2.6837644327315502e-05,7.520800136262551e-05,-3.5545720038498985e-06,-1.268943196919281e-05,6.322714762063697e-05
-2.49910845013801e-05,7.655476656509563e-05,-5.690820671588881e-06,-1.3744279385718983e-05,6.380103150149807e-05
-1.976321618712973e-05,6.863171438453719e-05,-4.0115005504048895e-06,-1.3572892385127489e-05,6.537336594192311e-05
-1.4591656508855522e-05,4.7841836931183934e-05,-6.788411610614276e-07,-1.252484889846528e-05,6.832398503320292e-05
-1.2776954463333823e-05,2.5128485503955744e-05,-1.0298457482349477e-06,-1.0678372746042442e-05,6.980761099839583e-05
-1.5241527762555052e-05,1.707806768536102e-05,-2.5531280698487535e-06,-8.87343139766017e-06,6.670736183878034e-05
-1.9552702724467963e-05,2.895301986427512e-05,-3.550232108295859e-08,-7.2786788223311305e-06,6.35223914287053e-05
-2.1931016817688942e-05,3.955245119868778e-05,3.707322321133688e-06,-3.1668955671193544e-06,6.238826608750969e-05
-2.2111391444923356e-05,3.697835200000554e-05,7.409709269268205e-06,1.3977995649838704e-06,6.0895948990946636e-05
-2.5013607228174806e-05,3.1409737857757136e-05,1.084675568563398e-05,1.3621618109027622e-06,5.7244997151428834e-05
-2.8956772439414635e-05,3.382193244760856e-05,1.1752541468013078e-05,-1.1159506811964093e-06,5.436108403955586e-05
-3.0037872420507483e-05,3.6473535146797076e-05,9.255118129658513e-06,-3.4084976050507976e-06,5.471720578498207e-05
-2.6300594981876202e-05,3.496582212392241e-05,6.025884431437589e-06,-6.805847988289315e-06,5.619879448204301e-05
-1.7717631635605358e-05,2.9828332117176615e-05,5.440285349322949e-06,-6.9809675551368855e-06,5.70578922634013e-05
-7.4816362030105665e-06,2.7537384085007943e-05,7.521087809436722e-06,-5.703338047169382e-06,5.8703859394881874e-05
-3.7908255308138905e-06,2.9945636924821883e-05,8.262169103545602e-06,-5.525801952899201e-06,5.9717462136177346e-05
-5.340988082025433e-06,3.2676314731361344e-05,7.930661013233475e-06,-5.525171673070872e-06,6.073469194234349e-05
-8.99280985322548e-06,3.425779868848622e-05,7.885778359195683e-06,-7.210982857941417e-06,5.906194928684272e-05
-1.3201362889958546e-05,3.5931308957515284e-05,6.119266799942125e-06,-9.574905561748892e-06,5.716072701034136e-05
-1.3834396668244153e-05,3.778002064791508e-05,4.157160219619982e-06,-1.2429715752659831e-05,5.7391825976083055e-05
-1.318349222856341e-05,3.7031200918136165e-05,7.3958144639618695e-06,-1.26938384710229e-05,5.937920286669396e-05
-1.556287861603778e-05,3.4477612643968314e-05,1.0491598914086353e-05,-1.0238110007776413e-05,6.091978866606951e-05
-2.813770333887078e-05,3.2444586395286024e-05,8.838226676743943e-06,-9.611667337594554e-06,6.0109894548077136e-05
-4.161660035606474e-05,2.9543904020101763e-05,4.644488399208058e-06,-1.1278597412456293e-05,5.877993316971697e-05
-4.494735549087636e-05,2.2939966584090143e-05,2.769535740299034e-06,-1.2122821317461785e-05,5.7691842812346295e-05
-4.076465847902e-05,1.6739202692406252e-05,5.207736194279278e-06,-1.068582059815526e-05,5.8657413319451734e-05
-3.533971175784245e-05,1.5086163330124691e-05,7.43569444239256e-06,-9.985468750528526e-06,5.918263195781037e-05
-3.336256122565828e-05,1.5873989468673244e-05,6.524352556880331e-06,-1.171239091490861e-05,5.716294617741369e-05
-3.3698874176479876e-05,1.122778394346824e-05,3.4392442103126086e-06,-1.4105010450293776e-05,5.4656793508911505e-05
-3.528066008584574e-05,3.692834297908121e-06,2.409187345620012e-06,-1.4540535630658269e-05,5.326906466507353e-05
-3.295800706837326e-05,7.339851435972378e-06,4.089805770490784e-06,-1.2636000974453054e-05,5.168173083802685e-05
-2.325303285033442e-05,2.117464828188531e-05,6.2614162743557245e-06,-1.1663080840662587e-05,4.959536454407498e-05
-1.0707015462685376e-05,3.0380837415577844e-05,6.804201802879106e-06,-1.1151811122545041e-05,4.95047279400751e-05
-1.5944858660077443e-06,3.783380816457793e-05,3.6175799777993234e-06,-8.449785127595533e-06,5.153107122168876e-05
-1.324470758845564e-06,4.194729626760818e-05,-2.1433124857139774e-06,-6.698747711197939e-06,5.296709787216969e-05
-8.926349437388126e-06,3.480795930954628e-05,-6.026971732353559e-06,-8.107312169158831e-06,5.220732782618143e-05
-1.6903601135709323e-05,2.7750143999583088e-05,-9.93520825431915e-06,-1.0126708730240352e-05,4.8999743739841506e-05
-2.2616202841163613e-05,2.812957245623693e-05,-1.1274719327047933e-05,-1.0829733582795598e-05,5.068040263722651e-05
-2.8629865482798778e-05,1.79571688931901e-05,-8.410672307945788e-06,-8.790595529717393e-06,5.5693879403406754e-05
-3.083753472310491e-05,1.0247093996440526e-05,-6.778995143008615e-09,-6.6237253122380935e-06,6.038979336153716e-05
-2.8654118068516254e-05,2.9460257792379707e-05,9.612838766770437e-06,-5.95331721342518e-06,6.30180147709325e-05
-3.115427534794435e-05,4.931241710437462e-05,1.552242974867113e-05,-2.3531235910922987e-06,6.230304279597476e-05
-4.019151674583554e-05,4.7374862333526835e-05,1.908802369143814e-05,6.486180268439057e-07,5.8440204156795517e-05
-4.439662006916478e-05,2.746932841546368e-05,2.1421599740278907e-05,1.0083438155561453e-06,5.5572993005625904e-05
-3.8811958802398294e-05,5.080128175904974e-06,1.980712295335252e-05,-1.7947654669114854e-06,5.787112968391739e-05
-3.1533101719105616e-05,-3.312444050607155e-06,1.3542942724598106e-05,-4.443172656465322e-06,6.155334267532453e-05
-3.0862633138895035e-05,2.9763618840661366e-06,1.0847962585103232e-05,-4.545458068605512e-06,6.46260887151584e-05
-3.50132177118212e-05,1.217774934048066e-05,1.1194774742762093e-05,-5.03299770571175e-06,6.608547118958086e-05
-3.2317078876076266e-05,1.6269532352453098e-05,1.1815626749012154e-05,-5.3229382501740474e-06,6.630517600569874e-05
-2.7039497581426986e-05,1.8444408851792105e-05,1.3873052921553608e-05,-7.254182946780929e-06,6.501340249087662e-05
-2.5898658350342885e-05,1.896479989227373e-05,1.6751660950831138e-05,-7.182785338955e-06,6.239744834601879e-05
-2.888058043026831e-05,1.6054958905442618e-05,1.531507950858213e-05,-3.3118651572294766e-06,5.881774268345907e-05
-3.2660125725669786e-05,1.4313385690911673e-05,1.0439943253004458e-05,-3.3772032281831343e-08,5.718741158489138e-05
-3.25827750202734e-05,1.6402496839873493e-05,5.96778863837244e-06,-1.1875119980686577e-06,5.7035620557144284e-05
-3.1265997677110136e-05,2.1082048988319002e-05,4.883145265921485e-06,-3.4280537875019945e-06,5.456957660499029e-05
-3.1887244404060766e-05,3.228114655939862e-05,5.7934066717280075e-06,-3.4952740861626808e-06,5.2336446970002726e-05
-3.1167979614110664e-05,4.778146103490144e-05,6.471249889727915e-06,-2.698721573324292e-06,5.474832869367674e-05
-2.565688373579178e-05,6.113419658504426e-05,8.001517016964499e-06,-2.537753971409984e-06,6.0809474234702066e-05
-2.243507515231613e-05,6.917148130014539e-05,9.640896678320132e-06,-4.245437594363466e-06,6.475635746028274e-05
-2.782251249300316e-05,6.341411062749103e-05,8.783021257841028e-06,-6.307252533588326e-06,6.249520083656535e-05
-3.8719630538253114e-05,3.916731657227501e-05,5.560352747124853e-06,-6.1885552895546425e-06,5.6275323004228994e-05
-4.437579627847299e-05,1.507047545601381e-05,6.998362096055644e-06,-5.19624654771178e-06,5.496457379194908e-05
-4.155440183239989e-05,5.142539066582685e-06,1.1868351975863334e-05,-5.6005105761869345e-06,5.752935248892754e-05
-3.604095400078222e-05,7.304776659111667e-07,1.0274839041812811e-05,-5.8568430176819675e-06,5.4235966672422364e-05
-3.680958252516575e-05,5.6873377616284415e-06,4.203270236757817e-06,-6.658268830506131e-06,4.821781476493925e-05
-4.170364991296083e-05,1.756213532644324e-05,1.7002819276967784e-06,-1.2371652701403946e-05,4.5953336666570976e-05
-3.902566822944209e-05,1.7186968761961907e-05,1.6550769714740454e-06,-2.0600353309419006e-05,4.774252010975033e-05
-2.5740046112332493e-05,1.4155023563944269e-05,3.3615676784393145e-06,-2.1059962818981148e-05,5.348341801436618e-05
-1.68957412824966e-05,1.5547399016213603e-05,5.490659987117397e-06,-1.7887718058773316e-05,5.7568551710573956e-05
-1.6608277292107232e-05,1.4257767361414153e-05,4.215921308059478e-06,-1.8408494725008495e-05,5.815606709802523e-05
-1.6564970792387612e-05,1.6313118976540864e-05,1.5106928685781895e-06,-1.7957581803784706e-05,6.270471931202337e-05
-1.7616821423871443e-05,2.4380864488193765e-05,1.6780380747150048e-06,-1.656996573728975e-05,6.79951990605332e-05
-2.0890165615128353e-05,3.79968732886482e-05,1.889011514322192e-06,-1.5375038856291212e-05,6.898362335050479e-05
-2.7909129130421206e-05,4.8269019316649064e-05,-1.2483681643971067e-07,-1.7004445908241905e-05,6.535435386467725e-05
-3.032072345376946e-05,4.784471093444154e-05,-2.27941518460284e-06,-1.7705759091768414e-05,6.239859067136422e-05
-2.2800568331149407e-05,4.04411657655146e-05,-1.3336724578039139e-06,-1.2894908650196157e-05,6.416467658709735e-05
-1.3030009540671017e-05,3.2818130421219394e-05,1.2132073834436596e-06,-9.109056009037886e-06,6.725751154590398e-05
-8.883868758857716e-06,3.053046384593472e-05,2.468133516231319e-06,-9.415785825694911e-06,6.924858462298289e-05
-9.986208169721067e-06,3.157866740366444e-05,4.514509782893583e-06,-1.091649210138712e-05,6.990273686824366e-05
-1.503053408669075e-05,2.8885660867672414e-05,7.3500573307683226e-06,-1.2429337402863894e-05,7.1000300522428e-05
-2.1583146008197218e-05,2.3995220544748008e-05,9.06973218661733e-06,-1.4605068827222567e-05,6.896438571857288e-05
-2.523722105252091e-05,2.3809910999261774e-05,8.042958143050782e-06,-1.649943988013547e-05,6.674644100712612e-05
-2.5687195375212468e-05,2.722879253269639e-05,5.273398983263178e-06,-2.0236098862369545e-05,6.934137491043657e-05
-2.4292323359986767e-05,2.9308561352081597e-05,2.4514426968380576e-06,-2.6300664103473537e-05,7.039002230158076e-05
-1.913047526613809e-05,3.138284228043631e-05,1.802246742954594e-06,-2.8836435376433656e-05,6.736151408404112e-05
-1.2106040230719373e-05,3.422918598516844e-05,3.5213747651141603e-06,-2.495586159056984e-05,6.656357436440885e-05
-9.719195986690465e-06,3.290897802799009e-05,3.6869184896204388e-06,-2.2422165784519166e-05,6.839959678472951e-05
-1.4962276509322692e-05,2.6542675186647102e-05,3.5920602385886014e-06,-2.387064705544617e-05,6.722038961015642e-05
-2.2821379388915375e-05,1.5716932466602884e-05,6.410286914615426e-06,-2.576582664914895e-05,6.292977923294529e-05
-2.4588141968706623e-05,4.631233423424419e-06,7.717750122537836e-06,-2.6353465727879666e-05,5.908865568926558e-05
-2.1949921574559994e-05,-4.985935788681672e-07,4.8025026444520336e-06,-2.6650959625840187e-05,5.7064091379288584e-05
-1.7988921172218397e-05,7.4174990913888905e-06,6.19262685574995e-09,-2.6316381990909576e-05,5.700167821487412e-05
-1.575267560838256e-05,2.6994805011781864e-05,-1.253267441825301e-06,-2.5139443096122704e-05,5.619723378913477e-05
-1.6946822142926976e-05,4.823328708880581e-05,6.377437671289954e-07,-2.520587804610841e-05,5.766280082752928e-05
-1.8927528799395077e-05,5.3184096032055095e-05,4.2501403640926583e-07,-2.764559758361429e-05,5.870730092283338e-05
-1.631271152291447e-05,4.143558908253908e-05,2.7091820697933144e-07,-2.961538666568231e-05,5.628643339150585e-05
-9.361391676065978e-06,3.7502388295251876e-05,5.496230187418405e-06,-2.530433630454354e-05,5.604231409961358e-05
-6.292971193033736e-06,4.887771137873642e-05,1.3005557775613852e-05,-1.816714575397782e-05,5.999292989145033e-05
-9.636511094868183e-06,7.17688599252142e-05,1.8546123101259582e-05,-1.0049727279692888e-05,6.443504389608279e-05
-1.606375735718757e-05,8.914593490771949e-05,2.2896516384207644e-05,-3.546623929651105e-06,6.414629751816392e-05
-1.6837631847010925e-05,9.010644862428308e-05,2.297469472978264e-05,-4.315782916819444e-06,6.0572816437343135e-05
-1.2049895303789526e-05,6.531433609779924e-05,1.999432424781844e-05,-1.0376465070294216e-05,5.4461714171338826e-05
-6.0473680605355185e-06,2.2366619305103086e-05,1.5295594494091347e-05,-1.5910005458863452e-05,4.810921382158995e-05
-1.7063117638826952e-06,-2.1893722532695392e-06,1.1544738299562596e-05,-1.8733418983174488e-05,4.518367495620623e-05
-3.698621412695502e-06,2.6530360628385097e-06,1.1286723747616634e-05,-1.8632930732565e-05,4.712295049102977e-05
-1.0787714018078987e-05,1.480032460676739e-05,1.127767245634459e-05,-1.568012885400094e-05,4.880881533608772e-05
-1.9007928131031804e-05,1.911507933982648e-05,9.67307551036356e-06,-1.1361965334799606e-05,4.8130907089216635e-05
-2.489928010618314e-05,1.7077367374440655e-05,8.996248652692884e-06,-8.321881978190504e-06,4.45233890786767e-05
-3.360065966262482e-05,1.0336348168493714e-05,8.765830898482818e-06,-7.093261046975385e-06,4.1665236494736746e-05
-4.645675653591752e-05,1.426894868927775e-06,7.987738172232639e-06,-4.554938641376793e-06,4.3941916374024004e-05
-5.5694777984172106e-05,-1.3697714393856586e-06,9.622696779842954e-06,-5.31148202753684e-07,4.871733108302578e-05
-5.419587978394702e-05,7.880348675826099e-06,1.2844326192862354e-05,3.234580844946322e-06,5.6394681450910866e-05
-4.744632315123454e-05,2.225118259957526e-05,1.4372903933690395e-05,6.773078439437086e-06,6.56239062664099e-05
-4.537196218734607e-05,3.375253436388448e-05,1.327830341324443e-05,9.684620636107866e-06,6.876591214677319e-05
-4.8524114390602335e-05,3.7571589928120375e-05,9.925252015818842e-06,7.5763141467177775e-06,6.358306563924998e-05
-5.164371395949274e-05,3.572468995116651e-05,7.008270131336758e-06,3.821854534180602e-06,5.736220919061452e-05
-4.963331957696937e-05,3.61747806891799e-05,9.673490239947569e-06,4.269024429959245e-06,5.8522742619970813e-05
-4.2373998439870775e-05,4.084750253241509e-05,1.212750248669181e-05,6.359173312375788e-06,6.523112097056583e-05
-3.3857813832582906e-05,4.200130933895707e-05,8.916833394323476e-06,4.967280801793095e-06,6.644352833973244e-05
-2.990034408867359e-05,4.161466858931817e-05,5.757573489972856e-06,-1.1399280310797621e-06,5.96276659052819e-05
-3.6166300560580567e-05,4.135273411520757e-05,6.813330855948152e-06,-1.0180323442909867e-05,5.283075734041631e-05
-4.2068651964655146e-05,3.1004034099169075e-05,7.248688689287519e-06,-1.4048538105271291e-05,5.231593604548834e-05
-3.532212940626778e-05,1.4762598766537849e-05,4.225383690936724e-06,-9.445247087569442e-06,5.296259405440651e-05
-2.5890249162330292e-05,1.2987358786631376e-05,4.5049637265037745e-06,-3.1184358704194892e-06,5.586007682722993e-05
-2.109514025505632e-05,2.3617441911483184e-05,7.783883120282553e-06,1.2006228189420654e-06,6.245129043236375e-05
-2.4469227355439216e-05,2.7096515623270534e-05,8.885048373485915e-06,3.0088519906712463e-06,6.771960033802316e-05
-2.8380316507536918e-05,2.068954927381128e-05,8.196948328986764e-06,3.6635829019360244e-06,6.64351464365609e-05
-2.8906710213050246e-05,1.8331335013499483e-05,6.765706075384514e-06,-1.6835058902486821e-09,6.057211066945456e-05
-2.937102544819936e-05,2.384711115155369e-05,4.774607987201307e-06,-1.8227545979243587e-06,5.729771874030121e-05
-2.9643464586115442e-05,3.222778104827739e-05,2.8040058168699034e-06,1.9042141730096773e-06,5.578687705565244e-05
-3.017674316652119e-05,2.6274719857610762e-05,3.1254469377017813e-06,5.3406897677632514e-06,5.3546355047728866e-05
-2.7200900149182416e-05,4.519765298027778e-06,3.686733407448628e-06,5.5266564231715165e-06,5.2183011575834826e-05
-2.183944161515683e-05,-2.856505489035044e-06,3.3724522836564574e-06,4.69214137410745e-06,5.332162254489958e-05
-1.6335670807166025e-05,1.4511539120576344e-05,2.281628894706955e-06,5.289250111673027e-06,5.754387893830426e-05
-9.396001587447245e-06,3.419465429033153e-05,2.171956111851614e-06,6.878532531118253e-06,6.120446778368205e-05
9.314455837738933e-07,3.874668254866265e-05,3.2026778171712067e-06,9.416854481969494e-06,6.0942344134673476e-05
5.92840660829097e-06,3.2382213248638436e-05,1.7617844605410937e-06,1.2280068403924815e-05,5.9524259995669127e-05
1.252138446261597e-07,2.324907654838171e-05,-4.5183332986198366e-07,1.2350435099506285e-05,5.813438110635616e-05
-7.791413736413233e-06,1.8702048691920936e-05,-2.6144584808207583e-07,9.852735274762381e-06,5.7798832131084055e-05
-1.0157965334656183e-05,1.8140703105018474e-05,-2.2953559053462413e-08,7.303360689547844e-06,5.832074748468585e-05
-1.0048372132587247e-05,1.5485218682442792e-05,-1.6648666587570915e-06,2.790210373859736e-06,5.6971861340571195e-05
-1.3630529792862944e-05,9.974896784115117e-06,-3.062855284952093e-06,-1.906028728626552e-06,5.388849604059942e-05
-2.3646533009014092e-05,1.028774022415746e-05,-4.189510036667343e-06,-6.109722107794369e-06,5.047219747211784e-05
-3.971398473368026e-05,1.784124287951272e-05,-6.87731517245993e-06,-1.0926813956757542e-05,5.105534728500061e-05
-5.3872430726187304e-05,3.135493534500711e-05,-1.0405798093415797e-05,-1.278321178688202e-05,5.6417611631331965e-05
-5.846932981512509e-05,4.458281182451174e-05,-1.1365315003786236e-05,-8.241533578257076e-06,5.954278458375484e-05
-5.492319542099722e-05,5.219478771323338e-05,-7.085351626301417e-06,-1.0019633833735497e-07,5.868270091013983e-05
-4.905009700451046e-05,5.5143555073300377e-05,-3.7964383636790444e-08,2.187875679737772e-06,5.617671558866277e-05
-3.9502003346569836e-05,5.360336945159361e-05,5.083379164716462e-06,1.2529841342256987e-06,5.651019819197245e-05
-2.4245522581622936e-05,5.164319372852333e-05,6.299081178440247e-06,4.154833277425496e-06,6.0625141486525536e-05
-1.2256787158548832e-05,4.8724119551479816e-05,3.0014352887519635e-06,7.166547220549546e-06,6.585093797184527e-05
-1.2792726010957267e-05,3.528571323840879e-05,-3.1868519272393314e-06,3.496356157484115e-06,6.776120426366106e-05
-2.3310278265853412e-05,1.259545206266921e-05,-5.741026143368799e-06,-8.130917194648646e-06,6.5594918851275e-05
-3.8586244045291096e-05,5.148920990905026e-06,1.2452360920178762e-07,-1.936305852723308e-05,6.176344322739169e-05
-4.851551784668118e-05,1.5687790437368676e-05,6.167937954160152e-06,-2.901089101214893e-05,5.8972578699467704e-05
-4.814298517885618e-05,2.3771801352268085e-05,9.993290404963773e-06,-3.3810018067015335e-05,5.9466896345838904e-05
-4.607666778611019e-05,2.5129136702162214e-05,9.978139132726938e-06,-3.6308065318735316e-05,6.146193481981754e-05
-4.431189881870523e-05,2.5361541702295654e-05,5.685612450179178e-06,-3.801373532041907e-05,6.321807450149208e-05
-4.2679417674662545e-05,2.8273734642425552e-05,2.4867526917660143e-06,-3.84444028895814e-05,6.257502536755055e-05
-3.771174669964239e-05,3.0577652069041505e-05,2.4830326310620876e-06,-3.6505232856143266e-05,5.9981251979479566e-05
-2.9596425520139746e-05,2.814336221490521e-05,2.601844471428194e-06,-3.5607648896984756e-05,5.885687642148696e-05
-2.3272692487807944e-05,2.5505036319373176e-05,2.9513375920942053e-06,-3.858697891701013e-05,5.85852685617283e-05
-2.343472806387581e-05,2.8089572879252955e-05,4.364444521343103e-06,-4.1393530409550294e-05,5.69292351428885e-05
-2.6947791411657818e-05,3.470915908110328e-05,4.587956482282607e-06,-3.882568489643745e-05,5.466181391966529e-05
-2.6460622393642552e-05,4.135081690037623e-05,5.560797035286669e-06,-3.1056686566444114e-05,5.132366641191766e-05
-2.0978068278054707e-05,4.440496559254825e-05,5.39035181645886e-06,-2.8053807909600437e-05,5.0114322220906615e-05
-1.77024176082341e-05,4.4801297917729244e-05,1.732164037093753e-06,-3.064773045480251e-05,5.341441647033207e-05
-2.353817217226606e-05,4.5215932914288715e-05,-1.3042651971773012e-06,-3.342490526847541e-05,5.847812644788064e-05
-3.5519835364539176e-05,4.458611874724738e-05,-3.6031596550856193e-07,-3.091065082116984e-05,6.116235454101115e-05
-4.093622192158364e-05,4.300611180951819e-05,2.9044294933555648e-06,-2.5169765649479814e-05,6.071237658034079e-05
-3.354825093992986e-05,4.3711461330531165e-05,7.718426786595955e-06,-1.879763112810906e-05,5.738078471040353e-05
-1.6583218894083984e-05,4.365935456007719e-05,9.456489351578057e-06,-1.4348379409057088e-05,5.595462062046863e-05
2.850794544428936e-06,3.865158214466646e-05,6.927029517100891e-06,-1.3428078091237694e-05,5.8109180827159435e-05
1.315753524977481e-05,3.6695069866254926e-05,4.662667834054446e-06,-1.2181780220998917e-05,6.242275412660092e-05
1.9438071831245907e-05,3.798410762101412e-05,7.886272214818746e-06,-7.074606855894672e-06,6.684637628495693e-05
1.708922536636237e-05,3.651136648841202e-05,7.995406122063287e-06,-4.746635113406228e-06,6.678043428109959e-05
8.500705007463694e-06,3.317301161587238e-05,3.1841402687859954e-06,-7.393619853246491e-06,6.681148079223931e-05
6.0641218624368776e-06,3.078711233683862e-05,3.1140607461566105e-06,-1.1177483429491986e-05,6.52786620776169e-05
7.632213964825496e-06,3.227645720471628e-05,7.160957920859801e-06,-1.0854767424461897e-05,6.409655179595575e-05
4.0843553961167345e-07,3.425364411668852e-05,1.0331646080885548e-05,-7.879379154474009e-06,6.564860814251006e-05
-2.2658483430859633e-05,3.074447886319831e-05,8.654352313897107e-06,-4.957522378390422e-06,6.616466998821124e-05
-4.544710827758536e-05,2.024691093538422e-05,5.0387243391014636e-06,-5.177147158974549e-06,6.483781908173114e-05
-5.308474283083342e-05,8.07824017101666e-06,1.974821771000279e-06,-6.464069883804768e-06,6.381660205079243e-05
-4.69054575660266e-05,2.3781101390341064e-06,2.1199762159085367e-06,-4.291025106795132e-06,6.443304300773889e-05
-4.007431198260747e-05,2.8321778700046707e-06,2.5796655336307595e-06,-2.8753449896612437e-06,6.710422167088836e-05
-4.227748650009744e-05,4.87668421556009e-06,3.263957992771793e-08,-3.4967281408171402e-06,7.116336928447708e-05
-4.6795958041911945e-05,4.642076874006307e-06,-2.27497275773203e-06,-6.177149316499708e-06,7.054639718262479e-05
-4.724134851130657e-05,2.984856791954371e-06,-1.8709229152591433e-06,-9.807226888369769e-06,6.491220119642094e-05
-4.885000453214161e-05,6.086720986786531e-06,1.2018878123853938e-06,-1.2785028047801461e-05,5.731189958169125e-05
-5.644432167173363e-05,1.6017616871977225e-05,4.563045422401046e-06,-1.3729404599871486e-05,5.377272464102134e-05
-6.609446427319199e-05,2.9324415663722903e-05,7.035675480437931e-06,-1.4378617379406933e-05,5.693108687410131e-05
-7.00699893059209e-05,3.794384974753484e-05,7.607516181451501e-06,-1.5887364497757517e-05,5.988830889691599e-05
-6.25384709564969e-05,3.967847806052305e-05,7.786236892570741e-06,-1.597005575604271e-05,5.986024552839808e-05
-4.515830005402677e-05,3.975362778874114e-05,8.386363333556801e-06,-1.3488225704350043e-05,6.0593694797717035e-05
-2.883807428588625e-05,4.305864422349259e-05,7.112859293556539e-06,-1.531349516881164e-05,6.500275048892945e-05
-1.8196020391769707e-05,4.763415199704468e-05,4.250172878528247e-06,-2.2178699509822764e-05,7.033563451841474e-05
-1.1391895895940252e-05,4.6690693125128746e-05,2.9040947993053123e-06,-2.5057324819499627e-05,6.891062366776168e-05
-5.834243438584963e-06,4.195249857730232e-05,2.299412699358072e-06,-2.1244833988021128e-05,6.374881195370108e-05
-2.1674024992535124e-06,4.086523040314205e-05,1.0283696383339702e-06,-2.0429610231076367e-05,6.116952135926113e-05
-5.13740633323323e-06,3.6647397791966796e-05,-2.250965280836681e-06,-2.388356915616896e-05,5.858665826963261e-05
-1.4307427591120359e-05,2.53180642175721e-05,-6.802246844017645e-06,-2.567084266047459e-05,5.6083572417264804e-05
-1.9803916075034067e-05,2.696992305573076e-05,-1.0130881491932087e-05,-2.7429052352090366e-05,5.6898581533459947e-05
-1.760157465469092e-05,4.2787269194377586e-05,-7.323591944441432e-06,-2.3470262021874078e-05,5.8600984630174935e-05
-1.1755701052607037e-05,5.4934931540628895e-05,-9.416239095116907e-07,-1.4397982340597082e-05,5.800761209684424e-05
-6.0150932768010534e-06,5.728382893721573e-05,1.5286670986824902e-06,-1.0378999832028057e-05,5.7337423641001806e-05
-9.156074156635441e-07,4.140724558965303e-05,2.1592140910797752e-06,-1.0383207154518459e-05,5.9448269894346595e-05
1.77384549715498e-06,1.635898297536187e-05,3.7724169033026556e-06,-8.977767720352858e-06,6.235200999071822e-05
2.138789341188385e-06,-1.2421044175425777e-06,8.777797120274045e-06,-6.475775080616586e-06,6.386433960869908e-05
2.235774218206643e-06,-1.5275472833309323e-05,1.3520517313736491e-05,-6.500542895082617e-06,6.177875184221193e-05
3.0341902856889647e-07,-2.0117351596127264e-05,1.7048712834366597e-05,-9.994698302762117e-06,5.517161116586067e-05
-5.118442913953913e-06,-6.521740033349488e-06,1.835929651861079e-05,-1.2816760317946319e-05,4.93554471177049e-05
-1.2945990420121234e-05,1.4402963643078692e-05,1.6801353922346607e-05,-1.3750794096267782e-05,4.8940990382106975e-05
-2.0212171875755303e-05,2.2863207050249912e-05,1.4221439414541237e-05,-1.3468995348375756e-05,5.1095717935822904e-05
-2.742145625234116e-05,1.7815289538702928e-05,1.179547507490497e-05,-1.1897547665284947e-05,5.073371357866563e-05
-3.5064673284068704e-05,1.2173665709269699e-05,8.936943231674377e-06,-1.052704465109855e-05,4.8617508582537994e-05
-4.2674975702539086e-05,1.5960953533067368e-05,6.073389158700593e-06,-8.877061191014946e-06,4.7108558646868914e-05
-4.851305129704997e-05,2.7315029001329094e-05,4.754841938847676e-06,-7.137385182431899e-06,4.801778050023131e-05
-5.196419442654587e-05,3.689112782012671e-05,5.812002200400457e-06,-5.924514880462084e-06,5.382048402680084e-05
-5.104851152282208e-05,3.913448745151982e-05,8.63319837662857e-06,-5.504097316588741e-06,6.11590439802967e-05
-4.504388925852254e-05,3.763296626857482e-05,9.545332432026044e-06,-3.529354216880165e-06,6.267371645662934e-05
-3.7395926483441144e-05,4.087174966116436e-05,7.682973773626145e-06,8.274549827547162e-07,5.809810681967065e-05
-3.260186713305302e-05,5.05627176607959e-05,5.276946012600092e-06,3.1665153983340133e-06,5.457215593196452e-05
-3.2606989407213405e-05,5.7517641835147515e-05,5.965408035990549e-06,2.1475484572874848e-06,5.660982060362585e-05
-3.4853630495490506e-05,4.975524279871024e-05,7.649694452993572e-06,2.738578359640087e-07,5.9823942137882113e-05
-3.722328619915061e-05,2.2629727027378976e-05,7.872463356761727e-06,-4.2795886656676885e-06,5.953567961114459e-05
-3.764652501558885e-05,-1.8877413822337985e-05,8.19725937617477e-06,-9.396182576892897e-06,5.89643677813001e-05
-3.4812339436030015e-05,-3.9161936001619324e-05,7.785522029735148e-06,-1.1579730198718607e-05,6.193126318976283e-05
-3.2502990507055074e-05,-1.911436083901208e-05,5.793795935460366e-06,-1.4706115507578943e-05,6.412370566977188e-05
-3.318772360216826e-05,1.5691191947553307e-05,4.484385044634109e-06,-1.7165775716421194e-05,6.038137507857755e-05
-3.52097958966624e-05,3.242437378503382e-05,4.815336524188751e-06,-1.625871482247021e-05,5.397009226726368e-05
-3.7674777559004724e-05,2.9260929295560345e-05,8.385984074266162e-06,-1.4160448699840344e-05,5.310162669047713e-05
-3.798449324676767e-05,2.6997739041689783e-05,1.1897853255504742e-05,-9.776759725355078e-06,5.769470226368867e-05
-3.8132508052513e-05,2.8600423320312984e-05,1.0536431545915548e-05,-5.697846518160077e-06,5.8557016018312424e-05
-3.9509210182586685e-05,3.197445039404556e-05,7.582108082715422e-06,-4.083272870047949e-06,5.6368087825831026e-05
-4.090243601240218e-05,3.097204535151832e-05,7.085641755111283e-06,-5.392274488258408e-06,5.705703006242402e-05
-4.0051549149211496e-05,2.772028346953448e-05,7.238062153192004e-06,-8.749628250370733e-06,5.783696178696118e-05
-3.5700402804650366e-05,2.910482362494804e-05,7.417153028654866e-06,-9.103097909246571e-06,5.769304698333144e-05
-3.095476859016344e-05,3.682563328766264e-05,7.174322490755003e-06,-7.365114015556173e-06,5.640904055326246e-05
-2.825823139573913e-05,4.675710806623101e-05,8.855371561367065e-06,-5.958688689133851e-06,5.478882303577848e-05
-2.616577512526419e-05,5.618282011710107e-05,9.814207260205876e-06,-6.417867098207353e-06,5.285319275571965e-05
-2.3206825062516145e-05,6.182501965668052e-05,6.414061317627784e-06,-8.002391041372903e-06,5.277587479213253e-05
-1.897592665045522e-05,5.999473069095984e-05,2.268993284815224e-06,-8.477153642161284e-06,5.766889444203116e-05
-1.4408418792299926e-05,5.355523535399698e-05,1.125202288676519e-06,-7.587603704450885e-06,6.200900679687038e-05
-1.4121865206107032e-05,4.381823600851931e-05,3.374873813299928e-06,-8.785482350504026e-06,6.0024758568033576e-05
-1.9559283828129992e-05,3.0069724743952975e-05,4.727576197183225e-06,-1.1457984328444581e-05,5.4589356295764446e-05
-2.6708634322858416e-05,1.6431098629254848e-05,3.495779537843191e-06,-1.0636676961439662e-05,5.053043787484057e-05
-2.9492335670511238e-05,1.445061934646219e-05,1.0212619372396148e-06,-5.714757662644843e-06,4.8976817197399214e-05
-2.5762288714759052e-05,2.3747536033624783e-05,2.7732991725315514e-07,-2.37827612181718e-06,4.972652459400706e-05
-2.0759471226483583e-05,3.397644104552455e-05,2.113218670274364e-06,-1.881984871943132e-06,5.238274025032297e-05
-2.0417968698893674e-05,3.6959438148187473e-05,7.193993042164948e-06,-3.111924229415308e-07,5.566591426031664e-05
-1.9427894585533068e-05,3.631761865108274e-05,1.208305729960557e-05,-3.9231341020240507e-07,5.592492379946634e-05
-1.611189691175241e-05,3.339098475407809e-05,1.1586101209104527e-05,-6.343403128994396e-06,5.469840834848583e-05
-1.7092526832129806e-05,3.231364826206118e-05,8.395717486564536e-06,-1.0804682460729964e-05,5.399772271630354e-05
-2.0079651221749373e-05,4.036805694340728e-05,7.069039384077769e-06,-7.473587629647227e-06,5.339954077498987e-05
-2.4564205887145363e-05,4.706950130639598e-05,6.723210844938876e-06,8.010747478692792e-07,5.2731971663888544e-05
-2.9716280550928786e-05,4.320914013078436e-05,9.00107352208579e-06,6.155898518045433e-06,5.268126187729649e-05
-3.2230942451860756e-05,3.467498390818946e-05,1.1674417692120187e-05,3.74068054043164e-06,5.7425375416642055e-05
-3.699472654261626e-05,2.52586596616311e-05,1.1728157915058546e-05,1.2626518355318694e-06,5.9833731938852e-05
-4.038256884086877e-05,1.567791150591802e-05,1.0745017789304256e-05,1.9888236693077488e-06,5.7214660046156496e-05
-4.0523114876123145e-05,1.521259400760755e-05,8.80220250110142e-06,2.0130223674641456e-06,5.890369357075542e-05
-3.8596041122218594e-05,2.5513189029879868e-05,6.232428404473467e-06,3.3146437772302306e-07,6.420232966775075e-05
-3.462860331637785e-05,3.3805528801167384e-05,2.9656639526365325e-06,6.880800924591313e-07,6.875520921312273e-05
-3.4620112273842096e-05,3.3731037547113374e-05,4.5449760932569916e-07,-2.3387506189465057e-06,6.768862658645958e-05
-3.615976675064303e-05,2.929255242634099e-05,-1.957609612190936e-07,-9.151485755864996e-06,6.511058018077165e-05
-2.909528666350525e-05,2.5424644263694063e-05,2.934073336291476e-06,-1.407462787028635e-05,6.638070044573396e-05
-1.5314763004425913e-05,1.302545570069924e-05,8.590714969614055e-06,-1.5713414541096427e-05,7.010086119407788e-05
-9.059183867066167e-06,-6.686661436106078e-06,1.0950255273201037e-05,-1.51634758367436e-05,6.875769759062678e-05
-1.2581470400618855e-05,-1.758116741257254e-05,6.529910933750216e-06,-1.5194269508356228e-05,6.478409341070801e-05
-1.6763442545197904e-05,-1.134639296651585e-05,8.656842283016886e-07,-1.1905774044862483e-05,6.60439909552224e-05
-1.5729356164229102e-05,2.0198754100420047e-06,-1.602056158844789e-07,-4.7054177230165806e-06,6.973872950766236e-05
-1.6113306628540158e-05,8.00221005192725e-06,9.572457884132746e-07,4.199728209641762e-07,7.040300988592207e-05
-2.3237851564772427e-05,8.3357308540144e-06,1.1699820561261731e-06,-2.923359488704591e-06,6.838775152573362e-05
-3.180924977641553e-05,1.0579638910712674e-05,1.2888422133983113e-06,-1.1625524166447576e-05,6.546117947436869e-05
-3.556096271495335e-05,1.7038606529240496e-05,1.6782258853709209e-06,-1.6276666428893805e-05,6.183642835821956e-05
-3.3832773624453694e-05,2.4135002604452893e-05,2.5062806798814563e-06,-1.4378375453816261e-05,5.9088924899697304e-05
-2.9910965167800896e-05,2.7434889489086345e-05,3.0786127354076598e-06,-1.141415395977674e-05,5.707568197976798e-05
-2.7017260435968637e-05,2.9887074560974725e-05,2.1625844510708703e-06,-9.986710210796446e-06,5.651491301250644e-05
-2.256031621072907e-05,3.794964140979573e-05,2.1427995307021774e-06,-1.1186451956746168e-05,5.753044752054848e-05
-1.5398987670778297e-05,4.452687062439509e-05,1.2320921314312727e-06,-1.4334121260617394e-05,5.8015626564156264e-05
-1.3704286175197922e-05,4.5555727410828695e-05,-2.6529637580097187e-06,-1.5240867469401564e-05,5.617081478703767e-05
-1.5712008462287486e-05,4.0446433558827266e-05,-3.0804594643996097e-06,-1.2401735148159787e-05,5.684982897946611e-05
-1.5216146493912674e-05,3.421860310481861e-05,7.693072348047281e-07,-8.067002454481553e-06,6.00657076574862e-05
-1.3285057320899796e-05,2.9332115445868112e-05,3.509618409225368e-06,-3.4104402857337845e-06,6.388778274413198e-05
-1.5145519682846498e-05,2.3223572497954592e-05,4.67498693978996e-06,-2.963396809718688e-06,6.570103141712025e-05
-2.338694321224466e-05,1.8914432075689547e-05,4.421796802489553e-06,-3.679087740238174e-06,6.448374188039452e-05
-3.052245665458031e-05,2.1437073883134872e-05,3.314915147711872e-06,1.7628117348067462e-06,6.189467967487872e-05
-3.437859413679689e-05,2.661192229425069e-05,2.1906078018218977e-06,8.2811993706855e-06,5.7906585425371304e-05
-3.848884807666764e-05,3.060730523429811e-05,2.4756054699537344e-06,6.2363747019844595e-06,5.409577352111228e-05
-4.0430648368783295e-05,3.3515905670356005e-05,1.6281871921819402e-06,-4.939963673677994e-06,5.292619243846275e-05
-3.588256731745787e-05,3.6987479688832536e-05,-8.543450462639157e-07,-1.4380943866854068e-05,5.2249073632992804e-05
-2.6015988623839803e-05,3.3233125577680767e-05,-1.886493805614009e-06,-1.8490851289243437e-05,5.1204682677052915e-05
-1.6641144611639902e-05,1.7617618141230196e-05,1.2279253951419378e-06,-2.0629449863918126e-05,4.8745143431006e-05
-7.001468020462198e-06,1.598403832758777e-05,6.788358405174222e-06,-2.609027797007002e-05,4.8140827857423574e-05
-1.6875327446541633e-06,3.623792144935578e-05,9.191414392262232e-06,-3.202215884812176e-05,5.06726028106641e-05
-7.543041192548117e-06,5.659815724357031e-05,7.844491847208701e-06,-3.357772948220372e-05,5.2597497415263206e-05
-1.788120971468743e-05,6.151420529931784e-05,5.550697551370831e-06,-2.9945813366794027e-05,5.4343479860108346e-05
-2.508514080545865e-05,4.756871203426272e-05,5.21408810527646e-06,-2.467492231517099e-05,5.48955867998302e-05
-2.9463508326443844e-05,1.5575902580167167e-05,5.4631318562314846e-06,-2.241795664303936e-05,5.332362707122229e-05
-3.181014471920207e-05,-6.4229425333905965e-06,6.192206001287559e-06,-2.176226189476438e-05,5.089217302156612e-05
-2.9615302992169745e-05,2.8891770398331573e-06,6.353287517413264e-06,-1.92058887478197e-05,5.10278478031978e-05
-2.619928272906691e-05,2.463950113451574e-05,5.5558116400789e-06,-1.2982025509700179e-05,5.381313167163171e-05
-2.685952676984016e-05,3.900961019098759e-05,7.211677257146221e-06,-6.565576768480241e-06,5.6795135606080294e-05
-2.7428759494796395e-05,4.526546399574727e-05,9.925013728206977e-06,-2.5221029318345245e-06,5.731950295739807e-05
-2.1958931029075757e-05,4.289502612664364e-05,8.188991159840953e-06,-2.971196863654768e-06,5.452630284707993e-05
-1.3273637705424335e-05,3.252587703173049e-05,4.472727141546784e-06,-6.473228040704271e-06,5.027578299632296e-05
-9.491708624409512e-06,2.7405299988458864e-05,1.9862200133502483e-06,-8.395150871365331e-06,4.729480133391917e-05
-1.2908260032418184e-05,3.0373215849976987e-05,-1.3033546792939887e-06,-8.515850822732318e-06,4.528622594079934e-05
-1.8116925275535323e-05,3.3702213841024786e-05,-3.7316358429961838e-06,-9.522274922346696e-06,4.4651664211414754e-05
-2.250061515951529e-05,3.468693103059195e-05,-8.561742674828565e-07,-8.97899462870555e-06,4.402580816531554e-05
-2.7415366275818087e-05,3.478664075373672e-05,7.001872290857136e-06,-7.0823862188262865e-06,4.392952541820705e-05
-2.768771446426399e-05,3.2238509447779506e-05,1.0264262527925894e-05,-9.346376828034408e-07,4.6509689127560705e-05
-2.4142642359947786e-05,2.3938460799399763e-05,7.701512913627084e-06,7.5167226896155626e-06,4.782710311701521e-05
-2.2279866243479773e-05,1.73187017935561e-05,7.050085514492821e-06,8.044291462283581e-06,4.774959234055132e-05
-2.0683199181803502e-05,2.17718152271118e-05,9.540562132315245e-06,4.5765950744680595e-06,5.1842991524608806e-05
-2.4468074116157368e-05,2.9630435165017843e-05,1.2744761988869868e-05,4.245036507199984e-06,5.660175156663172e-05
-3.285265120211989e-05,3.368714897078462e-05,1.1452395483502187e-05,3.550400606400217e-06,5.828014764119871e-05
-3.8161975680850446e-05,3.575704977265559e-05,6.774692337785382e-06,-3.121308509435039e-06,5.7533979997970164e-05
-3.766379813896492e-05,3.581894634407945e-05,4.948948117089458e-06,-8.71194242790807e-06,5.640400559059344e-05
-3.206203109584749e-05,3.7516387237701565e-05,6.4404775912407786e-06,-1.060422982845921e-05,5.4927539167692885e-05
-2.5649938834249042e-05,4.119068762520328e-05,8.68291681399569e-06,-1.26020640891511e-05,5.341702126315795e-05
-2.331390896870289e-05,4.505421020439826e-05,1.1288107998552732e-05,-1.3242898603493813e-05,5.326772588887252e-05
-2.6077943402924575e-05,4.7324800107162446e-05,1.2946907190780621e-05,-1.1324504157528281e-05,5.364519529393874e-05
-3.124472277704626e-05,5.2290964958956465e-05,1.3359901458898094e-05,-8.372125194000546e-06,5.6777607824187726e-05
-3.6158147850073874e-05,5.965761374682188e-05,1.3513240446627606e-05,-4.822760274691973e-06,6.13885567872785e-05
-4.0153398003894836e-05,5.969247285975143e-05,1.141830853157444e-05,1.4008676316734636e-06,6.410972855519503e-05
-4.402639024192467e-05,5.166226765140891e-05,8.505651749146637e-06,8.942429303715471e-06,6.470592779805884e-05
-4.717139745480381e-05,4.1504245018586516e-05,7.64395281294128e-06,1.29580284919939e-05,6.442988524213433e-05
-4.6328495955094695e-05,3.38981335517019e-05,7.118711891962448e-06,1.1452619219198823e-05,6.5149950387422e-05
-4.255245585227385e-05,2.6065561542054638e-05,5.273241640679771e-06,7.43942928238539e-06,6.622303772019222e-05
-3.926717909052968e-05,1.573500776430592e-05,4.086366061528679e-06,4.494463610171806e-06,6.507114449050277e-05
-3.552101043169387e-05,8.652346878079697e-06,1.0834273780346848e-06,3.051982957913424e-06,6.329589814413339e-05
-3.1024497729958966e-05,1.1618864846241195e-05,-3.2198229291680036e-06,-6.944890742488496e-07,6.244871474336833e-05
-2.6176048777415417e-05,2.013572520809248e-05,-8.105046731543553e-07,-5.861166300746845e-06,6.471271626651287e-05
-2.1589576135738753e-05,2.4939427021308802e-05,4.913587872579228e-06,-7.384288437606301e-06,7.042338256724179e-05
-1.6296989997499622e-05,2.2707141397404484e-05,5.27828888152726e-06,-5.9802709984069224e-06,7.490129792131484e-05
-8.78142145666061e-06,2.10551679629134e-05,2.6380628241895465e-06,-8.589551725890487e-06,7.67007950344123e-05
-7.72890962252859e-06,1.6638987290207297e-05,3.878783729760471e-07,-1.5211749087029602e-05,7.587086292915046e-05
-1.2543366210593376e-05,1.3662385754287243e-05,-1.6514085245944443e-06,-1.819268800318241e-05,7.525027467636392e-05
-1.5712746971985325e-05,2.3301014152821153e-05,-3.5572702472563833e-06,-1.9320956198498607e-05,7.842139166314155e-05
-2.342648440389894e-05,3.157474202453159e-05,-3.4383806450932752e-06,-2.519167901482433e-05,7.879392796894535e-05
-3.231748996768147e-05,3.4300410334253684e-05,-1.603481450729305e-06,-3.278558870078996e-05,7.568771252408624e-05
-3.3594689739402384e-05,3.5786415537586436e-05,-3.883524186676368e-07,-3.537327575031668e-05,7.447582902386785e-05
-2.83257249975577e-05,3.719163578352891e-05,-1.7432971617381554e-06,-3.2349715183954686e-05,7.752239616820589e-05
-2.467799095029477e-05,3.896476118825376e-05,-7.295523687389505e-07,-2.8798864150303416e-05,8.122180588543415e-05
-2.826955824275501e-05,3.455570913502015e-05,2.5775048015930224e-06,-2.35708703257842e-05,8.10318742878735e-05
-3.8042340747779235e-05,2.285336631757673e-05,1.3476440017257119e-06,-1.8662276488612406e-05,7.536821794928983e-05
-4.5301232603378594e-05,1.3094585483486298e-05,-4.400205853016814e-06,-2.2035679648979567e-05,6.85428167344071e-05
-4.6974786528153345e-05,1.5055385119921993e-05,-8.851373422658071e-06,-3.0953811801737174e-05,6.584921356989071e-05
-4.508878555498086e-05,2.673471681191586e-05,-7.752012606943026e-06,-3.3484921004856005e-05,6.571835547219962e-05
-4.2663305066525936e-05,3.694078986882232e-05,-2.776606379484292e-06,-2.8263521016924642e-05,6.648848648183048e-05
-4.4510248699225485e-05,3.828344415524043e-05,3.2237903724308126e-06,-2.174868313886691e-05,6.384545849869028e-05
-5.039803727413528e-05,3.547088635968976e-05,6.5426816036051605e-06,-1.5731762687209994e-05,5.7491233746986836e-05
-5.3757798013975844e-05,3.397987529751845e-05,7.346638085437007e-06,-8.270963917311747e-06,5.281468475004658e-05
-4.767597420141101e-05,3.189922426827252e-05,7.854401701479219e-06,5.46512353594153e-07,5.290740591590293e-05
-3.523851773934439e-05,2.9741497201030143e-05,8.43029556563124e-06,5.836657692270819e-06,5.5952565162442625e-05
-2.564782880654093e-05,3.112444028374739e-05,8.020146196940914e-06,7.373115749942372e-06,5.810030779684894e-05
-2.248376222269144e-05,3.626424222602509e-05,7.312944944715127e-06,8.35816899780184e-06,5.842889004270546e-05
-2.264031172671821e-05,4.1818446334218606e-05,8.021053872653283e-06,1.1740037734853104e-05,6.047149145160802e-05
-2.602449785626959e-05,4.700704448623583e-05,1.0471308087289799e-05,1.3293803021952044e-05,6.3206025515683e-05
-2.4064236640697345e-05,4.9191559810424224e-05,1.2874942513008136e-05,1.0953017408610322e-05,5.9598776715574786e-05
-1.0488749467185698e-05,3.877423296216875e-05,1.3241302440292202e-05,5.0816934162867256e-06,5.134670573170297e-05
6.984723313507857e-06,1.5666109902667813e-05,1.2413142940204125e-05,-9.651455457060365e-07,4.74066509923432e-05
1.427428924216656e-05,4.0304353206011e-06,9.61059868131997e-06,1.132354213950748e-06,5.039894676883705e-05
1.02227131719701e-05,1.2965146197529975e-05,6.024703907314688e-06,6.457010385929607e-06,5.327283724909648e-05
3.234381210859283e-06,2.2812089810031466e-05,7.42744077797397e-06,9.969196071324404e-06,5.589789725490846e-05
-3.976295829488663e-06,2.4532586394343525e-05,1.1642981007753406e-05,8.519900802639313e-06,6.101158578530885e-05
-1.049987167789368e-05,2.0839173885178752e-05,1.4254848792916164e-05,3.1562249205308035e-06,6.401772407116368e-05
-1.7203901734319516e-05,2.531657082727179e-05,1.0466590538271703e-05,-1.9083249469531438e-07,6.701022357447073e-05
-2.449987005093135e-05,3.912776810466312e-05,7.2470129452995025e-06,-5.008615744372946e-07,6.703027611365542e-05
-3.306716462248005e-05,4.491446816246025e-05,6.367552032315871e-06,-1.9999047253804747e-06,6.649009446846321e-05
-3.967111115343869e-05,3.6250225093681365e-05,9.70203132055758e-07,-9.0746925707208e-06,6.484298501163721e-05
-3.542524791555479e-05,1.4183588064042851e-05,-4.92106801175396e-06,-1.5508669093833305e-05,6.13330994383432e-05
-2.2332382286549546e-05,-2.6900816010311246e-06,-6.799683433200698e-06,-1.774846350599546e-05,5.7840738008962944e-05
-1.4317020031739958e-05,8.631248249457713e-08,-3.3480428101029247e-06,-1.462299951526802e-05,5.4966552852420136e-05
-1.4863337128190324e-05,1.324501045019133e-05,1.7246154584427131e-06,-9.155842235486489e-06,5.5537802836624905e-05
-1.5321449609473348e-05,2.109783781634178e-05,4.911333235213533e-06,-5.358165253710467e-06,5.9970356232952327e-05
-9.78203934209887e-06,2.098928416671697e-05,6.211188974702964e-06,-6.353881417453522e-06,6.66202322463505e-05
-4.975781394023215e-06,1.710544529487379e-05,9.352275810670108e-06,-1.1414381333452184e-05,6.658769416389987e-05
-9.968885024136398e-06,1.246967713086633e-05,1.224172956426628e-05,-1.7448084690840915e-05,6.134456634754315e-05
-2.1106947315274738e-05,1.0886549716815352e-05,1.1066852493968327e-05,-1.9303010049043223e-05,5.8910318330163136e-05
-3.2260901207337156e-05,1.7125461454270408e-05,7.211034244392067e-06,-1.669887024036143e-05,6.052922981325537e-05
-4.202826676191762e-05,2.8439390007406473e-05,5.876003797311569e-06,-1.6490808775415644e-05,6.0499565734062344e-05
-4.8286980018019676e-05,3.185035893693566e-05,5.59813815925736e-06,-1.8579190509626642e-05,5.761809734394774e-05
-4.4130400056019425e-05,2.7039244741899893e-05,1.8512624819777557e-06,-1.6736623365432024e-05,5.415815394371748e-05
-2.9054568585706875e-05,2.414009031781461e-05,-4.847055606660433e-06,-1.2015893844363745e-05,5.3138337534619495e-05
-1.582361255714204e-05,2.5229048333130777e-05,-8.751654604566284e-06,-1.2689551112998743e-05,5.3217019740259275e-05
-1.5698999050073326e-05,2.4956403649412096e-05,-6.901486813148949e-06,-1.7137057511718012e-05,5.263751154416241e-05
-1.9246326701249927e-05,2.6915493435808457e-05,-2.5101696792262373e-06,-1.9680708646774292e-05,5.148580021341331e-05
-1.3227155250206124e-05,3.3658932807156816e-05,-2.7743769805965712e-06,-1.8375982108409517e-05,5.2195307944202796e-05
-4.5549541027867235e-06,3.100007234024815e-05,-6.349505838443292e-06,-1.5113008885236923e-05,5.626846177619882e-05
2.1621776795655023e-06,2.5476047085248865e-05,-7.554238436568994e-06,-1.0454986295371782e-05,6.171447603264824e-05
8.956175889807128e-08,3.1688654416939244e-05,-6.753372872481123e-06,-9.748398952069692e-06,6.21677390881814e-05
-1.6154364857356995e-05,3.731938704731874e-05,-1.8606120875119814e-06,-1.1933794667129405e-05,5.665070057148114e-05
-4.279781933291815e-05,3.6524161259876564e-05,3.411990292079281e-06,-1.2583495845319703e-05,5.130633508088067e-05
-6.312155164778233e-05,2.756473440967966e-05,6.0428856158978306e-06,-1.404507474944694e-05,5.037803202867508e-05
-5.350342325982638e-05,1.9708104446181096e-05,6.840651167294709e-06,-1.5461726434295997e-05,5.324933954398148e-05
-2.7010046323994175e-05,2.394098737568129e-05,9.77742820396088e-06,-1.668692857492715e-05,5.611520100501366e-05
-1.1988669029960874e-05,3.713668411364779e-05,1.5126673133636359e-05,-1.8048041965812445e-05,5.657536894432269e-05
-1.4575192835764028e-05,4.7195808292599395e-05,2.0283847334212624e-05,-2.048709211521782e-05,5.4268813983071595e-05
-2.3038082872517407e-05,5.0540740630822256e-05,2.3225642507895827e-05,-2.0435149053810164e-05,5.302411591401324e-05
-2.8388029022607952e-05,4.3039803131250665e-05,2.3611897631781176e-05,-1.476346642448334e-05,5.3380586905404925e-05
-2.9573744541266933e-05,1.3937789844931103e-05,2.3019105356070213e-05,-9.876955118670594e-06,5.5137577874120325e-05
-2.7085501642432064e-05,-1.4431782801693771e-05,2.0375508029246703e-05,-1.0430024303786922e-05,5.5396387324435636e-05
-2.3529761165264063e-05,-2.1879637642996386e-05,1.561803037475329e-05,-1.4884736629028339e-05,5.503154170583002e-05
-1.987246287171729e-05,-1.315951067226706e-05,1.132774013967719e-05,-1.725891706882976e-05,5.4546377214137465e-05
-1.7976994058699347e-05,4.322744189266814e-06,8.363649612874724e-06,-1.5895511751296e-05,5.418415821623057e-05
-2.3210061044665053e-05,2.226208926003892e-05,5.0567446123750415e-06,-1.4397464838111773e-05,5.530310227186419e-05
-3.4524720831541345e-05,2.696722003747709e-05,2.433811459923163e-06,-1.692819205345586e-05,5.546371903619729e-05
-4.161020842730068e-05,1.6399337255279534e-05,1.438162485101202e-06,-2.0347766621853225e-05,5.5903492466313764e-05
-3.632394873420708e-05,1.0089464922202751e-05,2.7443591079645557e-06,-1.9646882719825953e-05,5.878851152374409e-05
-2.1680822101188824e-05,2.3629763745702803e-05,5.22434265803895e-06,-1.590167812537402e-05,6.391001807060093e-05
-9.13238363864366e-06,4.558699220069684e-05,8.50046217237832e-06,-1.1722449926310219e-05,6.854601815575734e-05
-4.7922171688696835e-06,5.604256148217246e-05,1.0468198524904437e-05,-9.36046944843838e-06,6.99581578373909e-05
-9.61723162618e-06,4.7774810809642076e-05,1.0016489795816597e-05,-1.0667812603060156e-05,6.57506097923033e-05
-2.1483368982444517e-05,3.021200063813012e-05,7.659920811420307e-06,-1.4372135410667397e-05,5.8483798056840897e-05
-2.874744495784398e-05,1.7083773855119944e-05,3.7798286030010786e-06,-1.8767968867905438e-05,5.3254159865900874e-05
-2.648423469508998e-05,1.4040390851732809e-05,2.054109472737764e-06,-2.0075687643839046e-05,5.41164081369061e-05
-2.4489603674737737e-05,2.5099923732341267e-05,6.578531611012295e-06,-1.9288238036097027e-05,5.722895002691075e-05
-2.9776458177366294e-05,3.8791778933955356e-05,1.3870516340830363e-05,-1.7689280866761692e-05,5.445963324746117e-05
-3.610425483202562e-05,3.857604315271601e-05,1.572887231304776e-05,-1.5132337466639001e-05,5.219816375756636e-05
-3.761646803468466e-05,2.8523370929178782e-05,1.3159973605070263e-05,-1.675723797234241e-05,5.256511940388009e-05
-3.877778726746328e-05,2.5545414246153086e-05,1.0215886504738592e-05,-1.8192551578977145e-05,4.9800735723692924e-05
-4.292102676117793e-05,3.275802009738982e-05,9.010083886096254e-06,-1.685111601545941e-05,4.575561251840554e-05
-4.6836488763801754e-05,4.2108255001949146e-05,8.460795470455196e-06,-1.3917993783252314e-05,4.3427076889202e-05
-4.569200973492116e-05,4.634256401914172e-05,9.88716146821389e-06,-1.262315345229581e-05,4.207057281746529e-05
-4.476691174204461e-05,4.1046267142519355e-05,1.1478463420644403e-05,-1.2430892638803925e-05,4.1418883483856916e-05
-4.542904207482934e-05,3.599986303015612e-05,1.0718672456278e-05,-1.1829083632619586e-05,4.374801937956363e-05
-4.311239536036737e-05,4.134943810640834e-05,1.0264669072057586e-05,-9.957378097169567e-06,4.9099002353614196e-05
-3.5224311432102695e-05,4.971071393811144e-05,1.2268293176020961e-05,-7.473099230992375e-06,5.064829019829631e-05
-2.4886912797228433e-05,5.0432827265467495e-05,1.400531346007483e-05,-6.726533229084453e-06,4.8413487093057483e-05
-1.528922439320013e-05,4.563861875794828e-05,1.221478214574745e-05,-9.103747288463637e-06,4.757010538014583e-05
-9.035278708324768e-06,4.26496917498298e-05,1.034197885019239e-05,-1.341317874903325e-05,4.7802033805055544e-05
-6.342732376651838e-06,4.351327152107842e-05,9.883040547720157e-06,-1.5194309526123106e-05,4.5731492718914524e-05
-3.852492682199227e-06,4.4466480176197365e-05,1.0031105375674088e-05,-1.2783553756889887e-05,4.4183787395013496e-05
-3.843794729618821e-06,4.19238640461117e-05,1.256212271982804e-05,-8.741892997932155e-06,4.55136650998611e-05
-1.07870537249255e-05,3.696808198583312e-05,1.863622310338542e-05,-8.043303751037456e-06,4.833171988138929e-05
-2.136305920430459e-05,3.584442674764432e-05,2.2091435312177055e-05,-1.1801401342381723e-05,5.204554327065125e-05
-2.8950293199159205e-05,4.2386905988678336e-05,1.9129569409415126e-05,-1.7378399206791073e-05,5.4243948397925124e-05
-3.07242626149673e-05,4.832563718082383e-05,1.0434425348648801e-05,-2.1155490685487166e-05,5.3810559620615095e-05
-2.888620292651467e-05,4.636341327568516e-05,2.8925203423568746e-06,-2.4984206902445294e-05,5.0408347306074575e-05
-3.652609666460194e-05,3.8946705899434164e-05,1.2896613270640955e-06,-2.864246016542893e-05,4.766883284901269e-05
-5.2392249926924706e-05,2.7919271815335378e-05,2.7236296773480717e-06,-2.6389052436570637e-05,4.722709854831919e-05
-6.64249382680282e-05,1.9901717678294517e-05,2.751950432866579e-06,-1.991799581446685e-05,5.249076639302075e-05
-7.336298585869372e-05,1.785366839612834e-05,3.882874352711951e-06,-1.2221878023410682e-05,5.974150190013461e-05
-6.791099440306425e-05,1.6590092855039984e-05,9.073658475244883e-06,-5.273979240882909e-06,6.211712752701715e-05
-5.72931494389195e-05,1.9648756278911605e-05,1.16197397801443e-05,-6.208884315128671e-06,6.623562512686476e-05
-4.910036295768805e-05,2.6346515369368717e-05,1.25649239635095e-05,-8.414330295636319e-06,7.330742664635181e-05
-4.174295827397145e-05,2.9974427889101207e-05,1.2595327461895067e-05,-8.249508027802221e-06,7.671843923162669e-05
-3.505201675579883e-05,2.7235430025029927e-05,1.1327293577778619e-05,-9.491855053056497e-06,7.729404023848474e-05
-2.8577687771758065e-05,2.04588159249397e-05,1.0131354429177009e-05,-9.511307325738017e-06,7.644076686119661e-05
-2.3314831196330488e-05,1.8005295714829117e-05,7.409979389194632e-06,-1.1375944268365856e-05,7.328040373977274e-05
-2.0142888388363644e-05,1.933166458911728e-05,5.3952621783537325e-06,-1.646834789426066e-05,7.07343133399263e-05
-2.053973003057763e-05,2.3649741706321947e-05,5.071944997325772e-06,-1.6178044461412355e-05,7.204619760159403e-05
-2.1917494450462982e-05,2.949053668999113e-05,7.969103990035364e-07,-8.20907825982431e-06,7.246120367199183e-05
-2.2912397980690002e-05,3.246374399168417e-05,-6.192978617036715e-06,-1.7529179103803472e-06,6.979519093874842e-05
-1.9033994249184616e-05,3.154447040287778e-05,-8.691727998666465e-06,-1.525277184555307e-06,6.587100506294519e-05
-1.3447638593788724e-05,2.4578805096098222e-05,-5.8584769249137025e-06,-6.575869974767556e-06,6.299688539002091e-05
-1.1483005437185057e-05,5.664078344125301e-06,2.9030326231804793e-07,-1.2930489901918918e-05,6.311415927484632e-05
-1.133713885792531e-05,-1.7711290638544597e-05,5.121082267578458e-06,-1.6224194041569717e-05,6.613697041757405e-05
-1.0984844266204163e-05,-2.481292722222861e-05,4.74917032988742e-06,-1.595908724993933e-05,6.762606062693521e-05
-8.61764965520706e-06,-1.0736268450273201e-05,5.825575044582365e-07,-1.55901798279956e-05,6.496473361039534e-05
-5.4975580496829934e-06,1.0677855243557133e-05,-3.7618319765897468e-06,-1.6388488802476786e-05,6.20334831182845e-05
-5.1488145800249185e-06,2.338300328119658e-05,-6.803042651881697e-06,-1.6213318303925917e-05,6.513712287414819e-05
-1.0880853551498149e-05,2.6689134756452404e-05,-5.247934950602939e-06,-1.3838984159519896e-05,7.332199311349541e-05
-1.7893245967570692e-05,2.7147942091687582e-05,5.676246246366645e-07,-7.682330760871992e-06,7.838156307116151e-05
-2.2269688997766934e-05,2.722911631281022e-05,5.130133558850503e-06,-5.050887352808786e-07,7.630405889358371e-05
-2.303168730577454e-05,2.7053549274569377e-05,5.552321908908198e-06,2.7997377856081584e-06,6.939213926671073e-05
-2.1774090782855637e-05,2.7205745936953463e-05,9.002247338685265e-07,2.4671078335813945e-06,6.591740384465083e-05
-1.635174521652516e-05,3.1225281418301165e-05,-3.771706587940571e-06,1.6296245348712546e-06,6.477038550656289e-05
-1.213592076965142e-05,3.670759906526655e-05,-5.081643848825479e-06,-6.02493685164518e-07,6.274090992519632e-05
-9.537162441120017e-06,3.275121343904175e-05,-3.11747430714604e-06,-1.6568800447203103e-06,6.092608964536339e-05
-6.085763743612915e-06,2.5989087589550763e-05,1.6945637071330566e-06,3.796153805524227e-06,5.8044472098117694e-05
-1.014333338389406e-05,2.683447746676393e-05,2.570220658526523e-06,7.067540991556598e-06,5.553951268666424e-05
-1.8605902369017713e-05,2.9039856599410996e-05,5.499635449268681e-07,3.208364887541393e-06,5.5354419600917026e-05
-2.6815852834261023e-05,2.9966784495627508e-05,2.8582360300788423e-06,-2.1111459318490233e-06,5.567152766161598e-05
-3.441475564613938e-05,2.9573729989351705e-05,5.737269475503126e-06,-2.8923459183261002e-08,5.329309715307318e-05
-4.0556053136242554e-05,2.76424216281157e-05,5.26224766872474e-06,6.7816190494340844e-06,4.97367545904126e-05
-4.193322820356116e-05,2.9406999601633288e-05,4.126732619624818e-06,1.114342285291059e-05,4.879026164417155e-05
-3.77829019271303e-05,3.3332911698380485e-05,2.3525785763922613e-06,1.1977780559391249e-05,4.90797174279578e-05
-3.4227345167892054e-05,3.5603585274657235e-05,3.6375015497469576e-06,7.964858014020137e-06,5.0815015129046515e-05
-3.3149241062346846e-05,3.612609361880459e-05,6.771143034711713e-06,2.7329983822710346e-06,5.443706322694197e-05
-3.387451215530746e-05,3.31423434545286e-05,7.273469236679375e-06,-5.284188091536635e-07,5.77681275899522e-05
-3.143875073874369e-05,2.8950544219696894e-05,7.6201599767955486e-06,4.3447781195027346e-07,5.73573233850766e-05
-2.760491224762518e-05,2.8944208679604344e-05,8.176728442776948e-06,3.249909923397354e-06,5.508779941010289e-05
-2.5404895495739765e-05,3.224159445380792e-05,8.72734199219849e-06,5.359539954952197e-06,5.405694173532538e-05
-2.2758891645935364e-05,3.193762677256018e-05,9.441602742299438e-06,5.136459549248684e-06,5.292906644172035e-05
-1.850306762207765e-05,2.8543870939756744e-05,9.194041012960952e-06,3.1155068427324295e-06,5.1675146096386015e-05
-1.634314321563579e-05,2.9141305276425555e-05,5.8964596973964944e-06,-1.6118030998768518e-06,5.2077586587984115e-05
-1.603179407538846e-05,3.538667078828439e-05,1.1182896741956938e-06,-8.95380162546644e-06,5.167999552213587e-05
-1.3390319509198889e-05,4.2585063056321815e-05,-2.2307044673652854e-06,-1.559129304951057e-05,5.045731450081803e-05
-1.0722674232965801e-05,4.7162746341200545e-05,-2.431927669022116e-06,-1.8528791770222597e-05,5.234981290413998e-05
-1.119644548452925e-05,4.767424616147764e-05,-4.4636200868808373e-07,-1.606146906851791e-05,5.620650699711405e-05
-1.2928452633786947e-05,4.379677920951508e-05,1.131899693973537e-06,-1.1739603905880358e-05,5.8685782278189436e-05
-1.605290890438482e-05,4.294089740142226e-05,2.105028443111223e-06,-1.2074153346475214e-05,5.831744056195021e-05
-2.495514854672365e-05,4.187425292911939e-05,5.048967523180181e-06,-1.5913494280539453e-05,5.55080478079617e-05
-3.3462129067629576e-05,2.6393328880658373e-05,9.37343793339096e-06,-1.9972898371634074e-05,5.2460276492638513e-05
-3.5944678529631346e-05,4.736429673357634e-06,1.2034721294185147e-05,-2.2601358068641275e-05,5.447897274279967e-05
-3.18360143864993e-05,6.273560302361147e-07,1.2443611012713518e-05,-2.302173561474774e-05,5.80369851377327e-05
