4.7759938752278686e-05,3.7876809074077755e-05,1.3491279787558597e-05,-6.0747541283490136e-05,7.105546683305874e-05
3.724274574778974e-05,3.728347292053513e-05,7.979304427863099e-06,-7.542270031990483e-05,7.547821587650105e-05
2.428555308142677e-05,3.2822430512169376e-05,7.156269930419512e-06,-6.767236482119188e-05,7.630660547874868e-05
1.014532426779624e-05,3.293614645372145e-05,5.476484147948213e-06,-5.5863489251350984e-05,7.302790618268773e-05
-6.797405603720108e-06,3.475020275800489e-05,4.883947440248448e-06,-3.917799040209502e-05,6.896152626723051e-05
-1.9233555576647632e-05,3.5925502743339166e-05,7.033952442725422e-06,-2.445036625431385e-05,7.202303822850809e-05
-1.7259366359212436e-05,3.147740426356904e-05,8.705474101589061e-06,-1.056962810253026e-05,8.038630767259747e-05
-8.28966949484311e-06,2.787869561871048e-05,9.709234291221946e-06,1.008295475912746e-05,8.47716728458181e-05
-4.0714598981139716e-06,2.6148263714276254e-05,1.2341507499513682e-05,3.420354187255725e-05,8.37963743833825e-05
-1.2556320143630728e-05,2.666265208972618e-05,1.866931597760413e-05,5.637447247863747e-05,7.689293852308765e-05
-3.010187174368184e-05,2.6831716240849346e-05,2.794117790472228e-05,7.305393228307366e-05,6.720801320625469e-05
-4.222816278343089e-05,2.8034224669681862e-05,3.470094452495687e-05,7.654212095076218e-05,5.965691161691211e-05
-4.20515461883042e-05,3.16734985972289e-05,3.497138823149726e-05,6.578389002243057e-05,5.557607801165432e-05
-3.2037667551776394e-05,3.372101855347864e-05,3.086060314672068e-05,4.754262408823706e-05,5.292085916153155e-05
-2.0987587049603462e-05,3.1121056963456795e-05,2.539754132158123e-05,2.8801880034734495e-05,4.7565561544615775e-05
-1.4104837646300439e-05,2.7070906071458012e-05,1.9600016457843594e-05,1.562842953717336e-05,3.8943715480854735e-05
-1.200362567033153e-05,2.4074726752587594e-05,1.4930546058167238e-05,8.415756383328699e-06,3.2233783713309094e-05
-9.80866388999857e-06,1.780005004548002e-05,1.2262012205610517e-05,2.2584110865864204e-06,3.3275518944719806e-05
-5.789131591882324e-06,1.027320740831783e-05,8.691959919815417e-06,-4.845713647227967e-06,3.7304311263142154e-05
-1.8927885321318172e-06,2.8634431146201678e-06,2.8492061119322898e-06,-8.708493623998947e-06,3.58576508006081e-05
-2.740276386248297e-06,-7.265678050316637e-06,-2.0557092739181826e-06,-1.1402538802940398e-05,3.317685332149267e-05
-1.15693128464045e-05,-2.096037133014761e-05,-4.803093361260835e-06,-1.7381227735313587e-05,3.566607119864784e-05
-2.62928988377098e-05,-3.131777702947147e-05,-8.493442692270037e-06,-2.6445532057550736e-05,3.93059199268464e-05
-3.775286677409895e-05,-3.335792644065805e-05,-1.1224755326111335e-05,-3.563806603779085e-05,4.3456300772959366e-05
-4.051938230986707e-05,-2.6074270863318816e-05,-1.1838956197607331e-05,-4.1326657083118334e-05,4.522581002674997e-05
-4.4300446461420506e-05,-1.1679607268888503e-05,-1.0972422387567349e-05,-4.180505857220851e-05,4.285008253646083e-05
-5.335711466614157e-05,-1.528472353129473e-06,-1.0240154551865999e-05,-4.0533635910833254e-05,4.30704458267428e-05
-6.440767901949584e-05,-1.5051740547278314e-06,-1.3986684280098416e-05,-4.151190660195425e-05,5.068429163657129e-05
-7.851184636820108e-05,1.6168182526143937e-07,-1.7034357369993813e-05,-4.2336771002737805e-05,5.6149507145164534e-05
-8.754275768296793e-05,4.69300812255824e-06,-1.682555921433959e-05,-4.351783718448132e-05,5.3443596698343754e-05
-8.4239240095485e-05,1.1257877304160502e-05,-1.6268073522951454e-05,-4.4031039578840137e-05,5.214377597440034e-05
-7.701605500187725e-05,1.6113674064399675e-05,-1.4585722055926453e-05,-3.939843372791074e-05,5.352781226974912e-05
-6.996619049459696e-05,1.9134513422613963e-05,-1.4687791917822324e-05,-3.532172559062019e-05,5.5117987358244136e-05
-5.647035504807718e-05,2.236148611700628e-05,-1.5718507711426355e-05,-2.95755235129036e-05,5.538540062843822e-05
-3.086472861468792e-05,2.6604539016261697e-05,-1.462269119656412e-05,-2.4735903934924863e-05,5.4745622037444264e-05
-7.027873607512447e-07,3.099134119111113e-05,-1.0646030204952694e-05,-2.1652202121913433e-05,5.616407361230813e-05
1.9669983885250986e-05,2.9719260055571795e-05,-3.380871703484445e-06,-1.7700809621601366e-05,6.0427450080169365e-05
2.4524415493942797e-05,2.482730633346364e-05,1.3649429320139461e-06,-1.515186613687547e-05,6.412055518012494e-05
1.9608958609751426e-05,2.8107870093663223e-05,-6.598803281576693e-08,-1.669124139880296e-05,6.564684736076742e-05
1.3277399375510868e-05,4.2487718019401655e-05,-3.3368842196068726e-06,-1.9430966858635657e-05,6.436442345147952e-05
9.112455700233113e-06,5.377755587687716e-05,-2.866021077352343e-06,-1.9432080080150627e-05,6.215502071427181e-05
7.576470579806482e-06,5.580017023021355e-05,2.2894819267094135e-06,-1.5938991055008955e-05,5.8982084738090634e-05
3.863247002300341e-06,6.163813668536022e-05,8.21003777673468e-06,-1.1664758858387358e-05,5.519170736079104e-05
-1.1458154176580138e-06,7.727120100753382e-05,9.257115380023606e-06,-7.3171581789210904e-06,5.5159929615911096e-05
-3.232241624573362e-06,9.263233368983492e-05,5.87067961532739e-06,-1.1920536735487985e-06,5.56067461729981e-05
-4.72991769129294e-06,0.00010299825225956738,2.744098082985147e-06,3.850830580631737e-06,5.519264959730208e-05
-7.0956316449155565e-06,0.00010494771413505077,2.6786292437464e-06,7.229109542095102e-06,5.6586195569252595e-05
-8.151469046424609e-06,9.682754898676649e-05,6.953526735742344e-06,8.799528586678207e-06,5.8706984418677166e-05
-1.2310047168284655e-05,8.343773515662178e-05,1.2627927389985416e-05,9.930839041771833e-06,5.8780613471753895e-05
-2.15479449252598e-05,6.787246093153954e-05,1.4661616660305299e-05,1.0598764674796257e-05,5.887911902391352e-05
-3.165039015584625e-05,5.3171999752521515e-05,1.263981539523229e-05,1.2219192285556346e-05,5.972389044472948e-05
-4.047299444209784e-05,4.181838085060008e-05,1.4354353879753035e-05,1.1096370144514367e-05,6.018089334247634e-05
-4.277658445062116e-05,2.0219924408593215e-05,1.7943411876331083e-05,6.7209662120149005e-06,6.0746941016986966e-05
-4.375920252641663e-05,-8.927784620027523e-06,1.2362972483970225e-05,4.522035851550754e-06,6.201976066222414e-05
-4.7894172894302756e-05,-1.980142951651942e-05,2.2770304894947913e-06,2.5548824851284735e-06,6.217805639607832e-05
-5.231324030319229e-05,-1.988545136555331e-06,-5.190151568967849e-06,-3.77851421262676e-07,6.038084393367171e-05
-4.915781391900964e-05,2.222604598500766e-05,-1.073702696885448e-05,-2.3478041839553043e-06,5.8058220020029694e-05
-3.79279263142962e-05,3.5179029509890825e-05,-1.2615993000508752e-05,-5.681973107130034e-06,5.661888644681312e-05
-2.9093498596921563e-05,3.2999934774124995e-05,-1.2971657270099968e-05,-1.0187677617068402e-05,5.758320548920892e-05
-2.714562288019806e-05,2.0719980966532603e-05,-1.3145732737029903e-05,-1.5025965694803745e-05,5.8710913435788825e-05
-3.488731454126537e-05,1.643559335207101e-05,-1.1260027349635493e-05,-1.5250213436956983e-05,5.866045830771327e-05
-6.348428723867983e-05,2.5868494049063884e-05,-6.872757694509346e-06,-1.5110308595467359e-05,6.009028948028572e-05
-0.00010344287875341251,3.6843492125626653e-05,-3.645689048425993e-06,-1.9975186660303734e-05,6.283987750066444e-05
-0.00012574228458106518,3.669904253911227e-05,-5.188534487388097e-06,-2.9981300031067804e-05,6.669731374131516e-05
-0.00011988657206529751,2.551883335399907e-05,-8.051674740272574e-06,-3.9426486182492226e-05,7.054890011204407e-05
-9.421094000572339e-05,1.609206447028555e-05,-3.6147951050224947e-06,-4.2340685467934236e-05,7.287145126610994e-05
-5.833488467033021e-05,1.653999242989812e-05,6.607383966183988e-06,-3.59794867108576e-05,7.416865992126986e-05
-1.5496081687160768e-05,2.4345719793927856e-05,1.3162199138605502e-05,-2.5715540687087923e-05,7.633747009094805e-05
2.7091244191979058e-05,3.342384661664255e-05,1.6531141227460466e-05,-1.444470490241656e-05,7.779965380905196e-05
6.34383104625158e-05,3.789124093600549e-05,1.990954297070857e-05,-4.06789325779755e-07,7.735282270004973e-05
9.36329597607255e-05,3.760730032809079e-05,2.4211634809034877e-05,1.3191357538744342e-05,7.659303810214624e-05
0.00011898057709913701,3.3515592804178596e-05,2.74881149380235e-05,2.442217373754829e-05,7.347967039095238e-05
0.00012865533062722534,2.893744567700196e-05,2.8064145226380788e-05,3.237881901441142e-05,6.818080873927101e-05
0.00011313481809338555,3.098991874139756e-05,2.8604916224139743e-05,3.786025627050549e-05,6.162920908536762e-05
8.26481482363306e-05,4.209244798403233e-05,2.994137685163878e-05,3.695532359415665e-05,5.666788274538703e-05
5.543695806409232e-05,5.399478322942741e-05,2.9136986995581537e-05,3.089659730903804e-05,5.427902942756191e-05
3.7677651562262326e-05,6.478557043010369e-05,2.8653723347815685e-05,2.3764880097587593e-05,5.252426853985526e-05
1.8943077520816587e-05,7.783220644341782e-05,3.104134520981461e-05,1.715354301268235e-05,5.3961655794410035e-05
-1.1613584320002701e-05,8.878483640728518e-05,3.149864642182365e-05,7.155174444051227e-06,5.639616938424297e-05
-4.791377068613656e-05,9.171518468065187e-05,2.576213410065975e-05,-3.0635394523415016e-06,5.8479145081946626e-05
-8.051687473198399e-05,8.34740130812861e-05,1.2504615369834937e-05,-7.6700744102709e-06,6.0530925111379474e-05
-0.00010219139221590012,5.9956724726362154e-05,3.9605922097507573e-07,-1.149208674178226e-05,6.091687100706622e-05
-0.00010822620970429853,1.486580822529504e-05,-4.496291239775019e-06,-1.646239797992166e-05,6.234864849830046e-05
-0.00011478694796096534,-5.113299630465917e-05,-1.3273388503876049e-05,-1.8216753232991323e-05,6.327426672214642e-05
-0.00011810116848209873,-9.84019716270268e-05,-2.3077402147464454e-05,-1.88026278920006e-05,6.197937182150781e-05
-0.00010734020179370418,-9.604120714357123e-05,-2.8102265787310898e-05,-1.802886981749907e-05,5.8266305131837726e-05
-9.329389285994694e-05,-6.238424975890666e-05,-2.875305108318571e-05,-1.6798981960164383e-05,5.912589767831378e-05
-7.752420788165182e-05,-3.5473993193591014e-05,-2.4786531866993755e-05,-1.6404103007516824e-05,6.287942960625514e-05
-6.024937465554103e-05,-5.102384966448881e-05,-1.72734544321429e-05,-1.3716374269279186e-05,6.564296199940145e-05
-4.9910111556528136e-05,-8.35703031043522e-05,-6.6271177274757065e-06,-9.812228199734818e-06,6.640997162321582e-05
-5.082930510980077e-05,-7.613665366079658e-05,3.150039447064046e-06,-5.913020686421078e-06,6.270024459809065e-05
-5.600938675343059e-05,-2.229971687484067e-05,1.1073968380514998e-05,6.697250682918821e-07,5.861353929503821e-05
-5.440985114546493e-05,3.637572444858961e-05,1.5242600056808442e-05,4.223772521072533e-06,5.4747095418861136e-05
-3.7560432247119024e-05,6.91108507453464e-05,1.6701518688932993e-05,8.256309342868917e-07,5.2765317377634346e-05
-1.333051568508381e-05,7.959177310112864e-05,1.7884694898384623e-05,-3.905209723598091e-06,5.411662277765572e-05
4.765528956340859e-06,7.814755372237414e-05,2.037049489445053e-05,-4.08061578127672e-06,5.571235669776797e-05
1.1625061233644374e-05,6.929662777110934e-05,1.909181992232334e-05,-2.186218353017466e-06,5.525608139578253e-05
7.763529538351577e-06,5.622690514428541e-05,1.4979530533310026e-05,-2.0840482193307253e-06,5.6465760280843824e-05
-4.243271177983843e-06,4.0758110117167234e-05,1.1701148650899995e-05,-4.8322226575692184e-06,5.709814649890177e-05
-1.7604632375878282e-05,2.9045595510979183e-05,8.346818503923714e-06,-8.756989700486884e-06,5.6139888329198584e-05
-3.0987408536020666e-05,3.621598443714902e-05,7.0996893555275165e-06,-1.0488700354471803e-05,5.4915668442845345e-05
-4.716317562269978e-05,6.187637336552143e-05,7.855599506001454e-06,-1.2849098311562557e-05,5.280201366986148e-05
-6.046739508747123e-05,8.404356049140915e-05,5.025598511565477e-06,-1.767544381436892e-05,5.069735925644636e-05
-6.508145452244207e-05,9.282719111070037e-05,-3.059181381104281e-06,-2.193149339291267e-05,5.188616341911256e-05
-6.18315243627876e-05,9.549160313326865e-05,-1.2596109627338592e-05,-2.3071017494658008e-05,5.665640128427185e-05
-5.589460124610923e-05,8.553849329473451e-05,-2.225976641057059e-05,-2.2626054487773217e-05,6.269964796956629e-05
-4.89887097501196e-05,5.935672379564494e-05,-2.7026699171983637e-05,-2.003115150728263e-05,6.697339267702773e-05
-4.310570875531994e-05,3.54595213138964e-05,-2.4538763682357967e-05,-1.899785638670437e-05,6.603328074561432e-05
-3.4767355828080326e-05,3.2913070754148066e-05,-1.896360845421441e-05,-2.0966108422726393e-05,6.0428876167861745e-05
-1.879450610431377e-05,4.580458698910661e-05,-1.0583999028312974e-05,-2.0205754481139593e-05,5.5586511734873056e-05
2.977585609187372e-06,3.5382374335313216e-05,-1.5381615412479732e-06,-1.6321317161782645e-05,5.032891203882173e-05
1.72915642906446e-05,-1.2977976439287886e-05,2.0536265310511226e-06,-1.255258666787995e-05,4.6838111302349716e-05
2.0027024220325984e-05,-4.7533601900795475e-05,4.270727004040964e-06,-1.0042324902315158e-05,4.660919512389228e-05
1.7752841813489795e-05,-3.534031566232443e-05,9.491422133578453e-06,-1.0472543181094807e-05,4.656625242205337e-05
1.3006730114284437e-05,-1.0547521014814265e-05,1.3556139492720831e-05,-1.3690074410988018e-05,5.106678872834891e-05
6.355415280268062e-06,-2.9271495805005543e-06,1.4220944649423473e-05,-1.9597260688897222e-05,5.43004171049688e-05
2.6118525511265034e-06,-8.928404895414133e-06,1.5099447409738787e-05,-2.1982064936310053e-05,5.430185774457641e-05
3.2851296509761596e-06,-1.4918688066245522e-05,1.6618676454527304e-05,-1.7662485333858058e-05,5.2825700549874455e-05
3.959672994824359e-06,-1.948889985214919e-05,1.566262471897062e-05,-1.12171965156449e-05,5.27968950336799e-05
5.136332219990436e-06,-2.4871114874258637e-05,1.1142919902340509e-05,-8.337517101608682e-06,5.2143572247587144e-05
5.653002062899759e-06,-2.1384716092143208e-05,5.311343102221144e-06,-9.716545719129499e-06,5.138010601513088e-05
4.10973325415398e-06,6.688759413009393e-07,1.7545631862958544e-06,-1.0748510248959064e-05,5.328207043930888e-05
-2.8309518711466808e-06,3.132904748781584e-05,3.6444980651140213e-06,-9.058116120286286e-06,5.5985350627452135e-05
-1.4143198313831817e-05,4.939459540764801e-05,9.695742846815847e-06,-5.540146958082914e-06,5.743070869357325e-05
-2.3184806195786223e-05,5.283414066070691e-05,1.3467106327880174e-05,-2.874402753150207e-06,5.992823207634501e-05
-2.5531086066621356e-05,4.757929127663374e-05,1.1998515219602268e-05,-2.0838579075643793e-06,6.091171962907538e-05
-2.455774119880516e-05,3.476992424111813e-05,8.164736755134072e-06,-7.998424393917958e-07,5.900654650758952e-05
-2.7252219297224656e-05,2.4478013074258342e-05,4.784507837030105e-06,2.1562182155321352e-06,5.827942004543729e-05
-3.508352892822586e-05,2.933359246526379e-05,4.837151209358126e-06,4.048162281833356e-06,5.90900526731275e-05
-4.15780050389003e-05,4.0460021409671754e-05,7.333096164074959e-06,4.770291070599342e-06,6.266222771955654e-05
-4.368038207758218e-05,4.260238347342238e-05,9.031536137626972e-06,6.716622010571882e-06,6.591069541173056e-05
-4.430802437127568e-05,4.095545591553673e-05,9.397056601301301e-06,9.666548976383638e-06,6.784867582609877e-05
-4.3994466977892444e-05,4.3610514694591984e-05,9.002354090625886e-06,1.0721926628320944e-05,6.778720853617415e-05
-4.136337884119712e-05,4.6033695980440825e-05,8.65808851813199e-06,1.2840069757658057e-05,6.51546215522103e-05
-4.0919363527791575e-05,4.313933095545508e-05,1.097437234420795e-05,1.486328892497113e-05,6.353855860652402e-05
-4.160377648076974e-05,4.393383642309345e-05,1.6091784345917404e-05,1.3835625395586248e-05,6.34170210105367e-05
-3.716025094036013e-05,4.745460319099948e-05,1.620327020646073e-05,7.890710548963398e-06,6.14714517723769e-05
-3.7869165680604056e-05,4.236254972056486e-05,1.437795435776934e-05,-2.7920614229515195e-06,5.853201218997128e-05
-4.827338852919638e-05,3.238752469769679e-05,1.3558075806940906e-05,-1.0509291314519942e-05,5.607123239315115e-05
-5.923321077716537e-05,2.6179130145465024e-05,1.0159781595575623e-05,-1.3447539458866231e-05,5.475883881445043e-05
-6.008857599226758e-05,3.0065359169384465e-05,6.717199084960157e-06,-1.0001441296481062e-05,5.328742918209173e-05
-4.994976188754663e-05,3.8985068385954946e-05,3.971832484239712e-06,-5.997599146212451e-06,5.534235970117152e-05
-3.8715374103048816e-05,4.650553819374181e-05,3.558184289431665e-06,-4.0204722608905286e-06,5.822678213007748e-05
-3.304562414996326e-05,4.799875387107022e-05,4.536247615760658e-06,-1.9689359760377556e-06,5.9140686062164605e-05
-3.2476033084094524e-05,4.083379099029116e-05,4.2907472561637405e-06,-1.2510494116213522e-06,5.538021287065931e-05
-3.418583219172433e-05,3.3700664062052965e-05,3.276598818047205e-06,2.597682424720915e-08,5.1654995331773534e-05
-3.392747021280229e-05,3.568716783775017e-05,4.914073088002624e-06,-6.172529083414702e-07,5.245876673143357e-05
-3.089506208198145e-05,4.2698342440417036e-05,6.755354206688935e-06,-1.763823775036144e-06,5.672740735462867e-05
-3.074271808145568e-05,4.538917710306123e-05,4.588499905366916e-06,-5.0764424486260395e-06,6.101630788180046e-05
-3.554194699972868e-05,4.299240390537307e-05,1.6686311710145674e-06,-1.0811429092427716e-05,5.958060501143336e-05
-4.205434015602805e-05,3.9028564060572535e-05,2.4881671834009467e-06,-1.4903711416991428e-05,5.299672557157464e-05
-4.6148015826474875e-05,3.466685302555561e-05,4.862852165388176e-06,-1.5669438653276302e-05,4.637227175408043e-05
-4.607599839800969e-05,3.1471019610762596e-05,3.6922297113051172e-06,-1.565269303682726e-05,4.4333857658784837e-05
-4.280432767700404e-05,3.061296956730075e-05,1.06938432509196e-06,-1.6761205188231543e-05,4.637163146981038e-05
-3.991885023424402e-05,2.955105810542591e-05,5.726207064071787e-07,-1.8260310753248632e-05,4.804345007869415e-05
-3.6683188227470964e-05,2.767684964055661e-05,2.813941819113097e-06,-1.8182441635872237e-05,4.665372762246989e-05
-3.49641268257983e-05,3.0172799597494304e-05,5.453057383419946e-06,-1.744661494740285e-05,4.699530472862534e-05
-3.6615787394111976e-05,3.6865480069536716e-05,8.212078682845458e-06,-1.707017690932844e-05,4.833877756027505e-05
-3.563590144040063e-05,3.968000237364322e-05,1.1616562915151007e-05,-1.8752140022115782e-05,4.939394784742035e-05
-3.202590232831426e-05,3.863662641379051e-05,1.319363946095109e-05,-1.9574397811084054e-05,4.930546856485307e-05
-3.090994869126007e-05,3.6509150959318504e-05,1.5648396583856083e-05,-1.7115435184678063e-05,4.9427741032559425e-05
-3.2420815841760486e-05,3.478445432847366e-05,1.6818466974655166e-05,-1.7119988115155138e-05,4.990283923689276e-05
-3.5842833312926814e-05,3.785228909691796e-05,1.298346251132898e-05,-2.02849132620031e-05,5.011703979107551e-05
-3.798696707235649e-05,4.4488497223937884e-05,7.02561555954162e-06,-2.5402632672921754e-05,5.1044353313045576e-05
-3.623608790803701e-05,4.70443774247542e-05,1.2101643278583651e-06,-2.8178728825878352e-05,5.556561882258393e-05
-3.426364855840802e-05,4.6882545575499535e-05,2.893068995035719e-06,-2.7609356038738042e-05,6.260865484364331e-05
-3.407207623240538e-05,3.922522228094749e-05,6.250520073081134e-06,-2.6995241569238715e-05,6.576585292350501e-05
-3.3628875826252624e-05,2.365927502978593e-05,4.548800916381879e-06,-2.7579915695241652e-05,6.301265966612846e-05
-3.063362237298861e-05,1.0920685781456996e-05,4.042261707581929e-07,-2.4307928470079787e-05,6.066127753001638e-05
-2.5807465135585517e-05,3.469189778115833e-06,-7.519049631810049e-07,-1.9830318706226535e-05,6.154904258437455e-05
-2.2423279006034136e-05,-3.253333261454827e-06,1.0636026672727894e-06,-2.02563896891661e-05,6.39931604382582e-05
-1.921278453664854e-05,-1.1608641216298565e-05,1.6026772300392622e-06,-2.2965154130361043e-05,6.785091682104394e-05
-1.4018432921147905e-05,-1.64770899573341e-05,4.818376737603103e-07,-2.3447222702088766e-05,7.069010462146252e-05
-1.1787429684773088e-05,-1.2299227819312364e-05,-1.8096102394338232e-06,-2.4176759325200692e-05,6.953320553293452e-05
-1.2684695320785977e-05,1.943624738487415e-06,-2.453281922498718e-06,-2.50641332968371e-05,6.772566848667338e-05
-1.3183789633330889e-05,2.4469938580296002e-05,-9.225682333635632e-07,-2.3004145987215452e-05,6.633418524870649e-05
-1.187446014228044e-05,4.8736255848780274e-05,3.251006319260341e-06,-2.102886537613813e-05,6.594212754862383e-05
-9.039869837579317e-06,6.709216540912166e-05,7.288459073606646e-06,-2.2088024707045406e-05,6.626682443311438e-05
-5.8541195357975084e-06,7.842354534659535e-05,9.088231308851391e-06,-2.3727237930870615e-05,6.561788177350536e-05
-4.29245528721367e-06,8.55485413921997e-05,9.152006896329112e-06,-2.211313221778255e-05,6.371439667418599e-05
-7.723536299408806e-08,8.717971650185063e-05,8.726785381441005e-06,-1.7524916984257288e-05,6.200866482686251e-05
4.428201464179438e-06,7.149983139242977e-05,6.505430974357296e-06,-1.2927044735988602e-05,6.165257218526676e-05
9.964055607269984e-07,3.851127257803455e-05,4.7180024012050126e-06,-1.3433643289317843e-05,6.425401079468429e-05
-7.992895007191692e-06,1.0832160114659928e-05,5.368872280087089e-06,-1.654240804782603e-05,7.14008419890888e-05
-1.5990131942089647e-05,3.4455822515155887e-06,4.0034005905909e-06,-1.750109913700726e-05,7.694582018302754e-05
-2.2523003281094134e-05,4.631507181329653e-06,-7.635919132553681e-07,-1.611281004443299e-05,7.689318590564653e-05
-3.1670679163653404e-05,4.361155333754141e-06,-2.16536977859505e-06,-1.735239493427798e-05,7.265101885423064e-05
-4.1999253880931064e-05,4.9063446567743085e-06,-1.0860387646971503e-06,-2.2341355361277238e-05,6.813874642830342e-05
-5.347053229343146e-05,2.0127285097260028e-05,6.213546726030472e-07,-2.605416375445202e-05,6.31585789960809e-05
-6.406151806004345e-05,4.746369813801721e-05,4.205122422717977e-06,-2.7729300200007856e-05,5.958243127679452e-05
-6.540914910146967e-05,5.1515904488042e-05,6.990452675381675e-06,-2.5489422114333138e-05,5.7615961850387976e-05
-5.6293662055395544e-05,4.1546350985299796e-05,8.670248462294694e-06,-2.3074935597833246e-05,5.677045919583179e-05
-4.314033503760584e-05,4.5958291593706235e-05,8.427861757809296e-06,-1.697500738373492e-05,6.032056990079582e-05
-3.114221181022003e-05,4.95196036354173e-05,1.0596045285637956e-05,-6.743626727256924e-06,6.381615821737796e-05
-2.8608463253476657e-05,4.0813647501636297e-05,1.5176425222307444e-05,-3.361902372489567e-06,6.16435645497404e-05
-2.7983896870864555e-05,2.7162126571056433e-05,1.682428592175711e-05,-2.784939852062962e-06,5.8392961364006624e-05
-1.8801496480591595e-05,2.329235758224968e-05,1.5405941667268053e-05,-1.6391173858210095e-06,5.858610893483274e-05
-5.937731657468248e-06,2.6554644136922434e-05,1.4543216821039096e-05,-1.0831570307345828e-06,6.020636283210479e-05
7.670013815186394e-07,2.6824640372069553e-05,1.2914848412037827e-05,-3.968386408814695e-06,6.0898702940903604e-05
4.994029950466938e-06,2.258800668641925e-05,1.0199811185884755e-05,-5.184046131034847e-06,6.389269401552156e-05
1.8180653569288552e-05,1.1632002497208305e-05,6.197055427037412e-06,-4.668428118748125e-06,6.598861364182085e-05
3.348139944137074e-05,-1.7481276017861092e-06,7.024552814982599e-07,-4.401001206133515e-06,6.371683411998674e-05
4.085389809915796e-05,-5.877657258679392e-06,-2.8431413738871925e-06,-5.6497797231713776e-06,5.8873956731986254e-05
3.6407840525498614e-05,4.2079732338606846e-06,-5.038918970967643e-06,-8.402333151025232e-06,5.496527592185885e-05
1.767058711266145e-05,2.035593570326455e-05,-6.178023795655463e-06,-1.0275400200043805e-05,5.482411870616488e-05
-1.2760077879647724e-05,3.555988223524764e-05,-3.7727627386630047e-06,-1.1471759535197634e-05,5.704143040929921e-05
-4.556241401587613e-05,4.39282703155186e-05,1.3396536360232858e-06,-1.0072584700537845e-05,5.710163168259896e-05
-6.960018072277308e-05,4.116920899832621e-05,1.0009706556957099e-06,-6.299061169556808e-06,5.639145820168778e-05
-7.834808639017865e-05,3.2762149203335866e-05,-6.899073468957795e-06,-1.1861964139825432e-06,5.746832539443858e-05
-7.451922283507884e-05,3.02186581393471e-05,-1.3799534826830495e-05,3.5742934869631426e-06,5.698441600543447e-05
-6.237076013348997e-05,3.170079435221851e-05,-1.3092160770611372e-05,5.979701654723613e-06,5.369593054638244e-05
-4.976930722477846e-05,3.0162169423419982e-05,-8.954169970820658e-06,4.156187969783787e-06,4.922198786516674e-05
-4.1288880311185494e-05,2.34209746849956e-05,-6.128818313300144e-06,-7.32921705548506e-07,4.732254092232324e-05
-3.308475425001234e-05,1.547049032524228e-05,5.960657176729001e-07,-7.691171958867926e-06,4.754339170176536e-05
-2.6138613975490443e-05,9.678604328655638e-06,1.0846798431884963e-05,-1.036939283949323e-05,5.2496976422844455e-05
-2.4356793801416643e-05,1.0415164069854654e-05,1.6583691831328906e-05,-6.691664566460531e-06,5.942436109762639e-05
-2.6925628844765015e-05,1.8812488633557223e-05,1.9535826140781865e-05,-4.347193680587225e-06,6.033028694218956e-05
-3.156902675982565e-05,2.1144101992831565e-05,2.1146362996660173e-05,-5.265538675303105e-06,5.6286065955646336e-05
-3.5787317756330594e-05,1.4896389075147454e-05,2.109924389515072e-05,-4.309662017476512e-06,5.328865154297091e-05
-3.3554533729329705e-05,6.687194854748668e-06,1.787518158380408e-05,-3.6780959362658905e-06,5.327593316906132e-05
-2.3564665752928704e-05,-2.74538729172491e-06,1.0715530152083375e-05,-2.4792466319922823e-06,5.6609387684147805e-05
-7.340593583649024e-06,-9.706694072519895e-06,5.753911409556167e-06,-2.3692232389294077e-06,6.062521424610168e-05
1.0999622645613272e-05,-9.573156603437383e-06,6.618160114157945e-06,-1.1951605927151832e-07,6.323403067653999e-05
1.94804415514227e-05,-3.634387894635438e-06,1.0326692063244991e-05,5.494593551702565e-06,6.299209780991077e-05
1.1804649147961754e-05,2.060518681901158e-06,1.320964474871289e-05,1.1703698874043766e-05,5.985905590932816e-05
-2.5016536255861865e-06,3.317652499390533e-06,1.5728535800008103e-05,1.3316816875885706e-05,5.858837903360836e-05
-1.501408223703038e-05,2.9882539820391685e-06,1.640182927076239e-05,5.3319458857004065e-06,5.8925706980517134e-05
-2.7814157874672674e-05,7.476407517970074e-06,1.512053313490469e-05,-6.9045540840306785e-06,5.9795856941491365e-05
-4.051766518387012e-05,1.7582107830094174e-05,1.1314657058392186e-05,-1.4474597264779732e-05,5.944096847088076e-05
-4.790646562469192e-05,2.872550794563722e-05,6.364576620399021e-06,-1.4794500202697236e-05,5.918786337133497e-05
-4.456958777154796e-05,3.873364767059684e-05,2.551822262830683e-06,-1.4692346667288803e-05,5.879427044419572e-05
-3.360240225447342e-05,4.7146746510406956e-05,-5.982909101476253e-08,-1.7692858818918467e-05,5.6534896430093795e-05
-2.3466689526685514e-05,5.495822915690951e-05,-4.351837105787126e-06,-2.241396578028798e-05,5.521772982319817e-05
-1.8567747247288935e-05,6.0979011323070154e-05,-9.444197530683596e-06,-2.4403441784670576e-05,5.607723869616166e-05
-1.581607648404315e-05,6.039965956006199e-05,-1.315844838245539e-05,-2.3988372049643658e-05,5.8548172091832384e-05
-1.1796550097642466e-05,5.147792035131715e-05,-1.5791772966622375e-05,-2.3103339117369615e-05,6.012477388139814e-05
-9.39250094234012e-06,3.328921593492851e-05,-1.3151704479241744e-05,-2.1012579964008182e-05,5.8320532843936235e-05
-1.1230532436456997e-05,1.0476008355908561e-05,-3.406723863008665e-06,-1.7637465134612285e-05,5.580813012784347e-05
-1.6566942576901056e-05,-5.526766472030431e-06,3.90594277632772e-06,-1.538651849841699e-05,5.638952279696241e-05
-2.424341619189363e-05,-1.1468803677416872e-05,2.1039975308667636e-06,-1.3619223864225205e-05,5.792811862193048e-05
-2.6948891900246963e-05,-1.0503784324100707e-05,-1.7169821830975707e-06,-1.2744775631290395e-05,5.617853457806632e-05
-2.195951310568489e-05,-5.462760782393161e-06,-1.0016426585934823e-06,-1.1368383638910018e-05,5.306881575961597e-05
-1.390306351822801e-05,3.1281306291930377e-06,3.3570872801647056e-06,-9.88695683190599e-06,5.3321880841394886e-05
-1.1254863238718826e-05,1.8864086086978205e-05,6.2733679442317225e-06,-1.0761385965452064e-05,5.457687802845612e-05
-1.4375043065228965e-05,3.677847416838631e-05,1.4930343468222418e-06,-1.1338339390931651e-05,5.704488285118714e-05
-1.8119055312126875e-05,5.4650776291964576e-05,-8.133774827001616e-06,-1.1666246791719459e-05,5.974468876956962e-05
-2.1170670152059756e-05,6.941498577361926e-05,-1.129469364968827e-05,-1.7457010471844114e-05,5.966933167655952e-05
-2.2882029952597804e-05,7.005839142948389e-05,-8.599711691203993e-06,-2.1413556169136427e-05,5.9531786973821e-05
-2.9375152735156007e-05,6.0535541706485674e-05,-6.3515435613226146e-06,-1.9136519767926075e-05,6.011889490764588e-05
-3.524587373249233e-05,5.110802158014849e-05,-5.414096449385397e-06,-1.773892654455267e-05,6.29173155175522e-05
-4.15405556850601e-05,4.6826629841234535e-05,-5.3674689297622535e-06,-2.1087857021484524e-05,6.520818715216592e-05
-4.5663327910006046e-05,4.638467726181261e-05,-7.229232778627193e-06,-2.4838918761815876e-05,6.267627031775191e-05
-4.503297896008007e-05,4.7457160690100864e-05,-6.352656782837585e-06,-2.5423381885048002e-05,5.9532507293624803e-05
-4.5105953176971525e-05,4.966058986610733e-05,-1.1149671763632796e-06,-2.4478620616719127e-05,5.778747072326951e-05
-5.0716382247628644e-05,5.293738286127336e-05,5.984223662380828e-06,-2.1219408154138364e-05,5.933571083005518e-05
-6.229541031643748e-05,5.506384331965819e-05,1.442770371795632e-05,-1.639986840018537e-05,6.028883217368275e-05
-6.829362246207893e-05,5.328018596628681e-05,2.2424823328037746e-05,-1.2249697647348512e-05,5.928207247052342e-05
-6.013175152475014e-05,4.770568557432853e-05,2.7693467927747406e-05,-1.1285821528872475e-05,5.8652258303482085e-05
-4.11001019529067e-05,3.902819298673421e-05,2.9822898795828223e-05,-1.2464790415833704e-05,5.913084896747023e-05
-2.2704911316395737e-05,3.1904120987746865e-05,2.8058535463060252e-05,-1.1307417480566073e-05,6.218127236934379e-05
-1.290413365495624e-05,3.442860906943679e-05,2.3902755856397562e-05,-6.246957582334289e-06,6.739544915035367e-05
-1.4318898138299119e-05,4.365210043033585e-05,2.2912659915164113e-05,-4.4689775791084685e-07,7.166166324168444e-05
-2.1276257029967383e-05,4.753026951220818e-05,2.5035260478034616e-05,2.0878824216197245e-06,6.896819832036272e-05
-2.613044489407912e-05,4.179174720775336e-05,2.6450061341165565e-05,4.880120627603901e-07,6.263949035201222e-05
-2.667758599272929e-05,3.298739102319814e-05,2.7075971956946887e-05,1.4506611023534788e-07,6.032958481227979e-05
-2.951684655272402e-05,3.073357220273465e-05,2.665487954800483e-05,2.6648875106616288e-08,6.087437577662058e-05
-3.7001653254264966e-05,3.656843182398006e-05,2.3160906494013034e-05,-6.739537070643564e-07,6.078957085264847e-05
-4.6579953050240874e-05,4.7389949031639844e-05,2.0842169760726392e-05,-3.6914096313012124e-07,6.16213510511443e-05
-5.546321699512191e-05,5.612571112578735e-05,2.0897323338431306e-05,-5.420137085820897e-07,6.0468741139629856e-05
-6.405956082744524e-05,5.7878412917489186e-05,1.8246937543153763e-05,4.622869766990334e-07,5.8518311561783776e-05
-7.172955520218238e-05,5.216706631472334e-05,9.651876098359935e-06,1.42579835937795e-06,5.803325620945543e-05
-6.730017776135355e-05,4.1278308344772086e-05,-3.505380163915106e-07,9.952527761925012e-07,5.7558081607567146e-05
-4.774618719238788e-05,2.1953768737148494e-05,-6.338887942547444e-06,-1.8955322502733907e-06,5.46420669707004e-05
-2.5102159270318225e-05,3.47241234521789e-06,-8.252864972746465e-06,-6.9105699367355555e-06,5.327690450940281e-05
-1.4241975350159919e-06,-1.1686704510793788e-06,-1.10561177280033e-05,-1.079384583135834e-05,5.4268228268483654e-05
2.008547744480893e-05,-1.001552504931169e-06,-1.4048943739908282e-05,-1.383432845614152e-05,5.597099516307935e-05
2.8799024221370928e-05,-2.8230604129930725e-06,-1.1210754564672243e-05,-1.4458217265200801e-05,5.78393810428679e-05
1.9976720068370923e-05,-4.295215603633551e-06,-3.1336744541476946e-06,-1.6322826922987588e-05,5.798356869490817e-05
-2.053899152087979e-06,2.8477181786001893e-06,4.318639184930362e-06,-2.067700552288443e-05,5.8150359109276906e-05
-2.127167499565985e-05,1.1201083907508291e-05,3.6775322769244667e-06,-2.3694048650213517e-05,5.610259540844709e-05
-2.4184004359995015e-05,1.3161564311303664e-05,-1.1802562767115887e-06,-2.2545711544808e-05,5.284434882923961e-05
-7.649019607924856e-06,1.1605336112552322e-05,-1.4759685882381746e-06,-1.984641858143732e-05,5.2702336688525975e-05
1.3818862498737872e-05,1.0009178367909044e-05,2.2864512629894307e-06,-2.0488330847001635e-05,5.665026037604548e-05
2.1313233446562663e-05,1.114900442189537e-05,4.6542622840206604e-06,-2.3549420802737586e-05,6.0741513152606785e-05
1.3267764188640285e-05,1.639922811591532e-05,6.138427124824375e-06,-2.6705491109169088e-05,6.0913025663467124e-05
-6.23163089130685e-07,2.7631191187538207e-05,8.451721441815607e-06,-2.755240348051302e-05,5.7667111832415685e-05
-1.301751944993157e-05,4.030197305837646e-05,1.0411091352580115e-05,-2.6320874894736335e-05,5.527260873350315e-05
-2.2191627067513764e-05,4.7278128477046266e-05,1.1491169971122872e-05,-2.2419480956159532e-05,5.367778067011386e-05
-3.0608323868364096e-05,4.645769513444975e-05,1.0570139238552656e-05,-1.6149218936334364e-05,5.152956146048382e-05
-4.0856131818145514e-05,4.0736569644650444e-05,9.292596587329172e-06,-1.053913092619041e-05,5.0158603698946536e-05
-5.137326297699474e-05,3.338776878081262e-05,9.935615707945544e-06,-9.338423296867404e-06,5.065550431027077e-05
-5.80913620069623e-05,3.029789513675496e-05,1.0679596925911028e-05,-1.2647923540498596e-05,5.196996789891273e-05
-5.961788338026963e-05,2.996915100084152e-05,8.92827029019827e-06,-1.5637351680197753e-05,5.219182639848441e-05
-5.994567254674621e-05,2.695644616323989e-05,6.7892447077610996e-06,-1.628511745366268e-05,5.2640829380834475e-05
-5.979837442282587e-05,2.2744101443095133e-05,4.6252357606135774e-06,-1.6119409337989055e-05,5.2997522288933396e-05
-5.593266541836783e-05,2.3135011360864155e-05,1.6775027233961737e-06,-1.464772503823042e-05,5.2277180657256395e-05
-5.274261275189929e-05,2.6307690859539434e-05,-8.186922286768095e-07,-1.2373466233839281e-05,5.431796671473421e-05
-5.381970913731493e-05,2.842217327270191e-05,5.580694732998381e-07,-7.540475962741766e-06,5.7070530601777136e-05
-5.341153155313805e-05,3.195024328306317e-05,4.148826064920286e-06,-3.3073868053179467e-06,5.762162254541181e-05
-4.79789414384868e-05,3.8514375773957e-05,8.418231118412223e-06,-2.133716861862922e-06,5.9409452660474926e-05
-4.022567009087652e-05,4.411441841511987e-05,1.1130423445138149e-05,-4.789141712535638e-06,6.19427373749204e-05
-3.375509913894348e-05,4.7327779611805454e-05,8.903567504603416e-06,-9.506113201496191e-06,6.256409687921405e-05
-3.149883559672162e-05,4.884021473117173e-05,4.8314213927369565e-06,-1.1648614417936187e-05,6.303954432951286e-05
-2.900045001297258e-05,4.539727160590701e-05,1.035240302371676e-06,-9.244952707376797e-06,6.583630602108315e-05
-2.1255067622405477e-05,3.355505396029912e-05,-3.2880279832170345e-08,-3.7763013551739277e-06,6.859131826786324e-05
-1.199320649902802e-05,1.6108517229440622e-05,6.066172772989376e-07,-1.7822223981056595e-06,6.995988223934546e-05
-2.875578957173275e-06,2.5894605641951784e-06,1.0736340527728316e-06,-4.75445403935737e-06,7.052276487229392e-05
5.3800777095602825e-06,-1.3876859839001554e-06,-2.6833686206373386e-06,-8.661650099384133e-06,7.21323667676188e-05
1.142771179729607e-05,1.2815164609492058e-06,-5.617293936666101e-06,-8.304150469484739e-06,7.576715142931789e-05
1.5171944141911808e-05,-1.2743070101350895e-06,-4.35673291576677e-06,-5.789559509139508e-06,8.080631960183382e-05
1.1541880667209625e-05,-1.2809736290364526e-05,-3.53371206074371e-06,-5.983341452520108e-06,8.26930845505558e-05
-2.2279753011389403e-06,-1.904965210997034e-05,-5.335316927812528e-06,-9.563190360495355e-06,7.716082473052666e-05
-2.0383737137308344e-05,-9.6643752840464e-06,-6.897933872096473e-06,-1.183965378004359e-05,6.946791108930483e-05
-3.2271771488012746e-05,9.70601467997767e-06,-3.123938540738891e-06,-1.1282020750513766e-05,6.570484401891008e-05
-3.670619480544701e-05,2.966718420793768e-05,4.173277829977451e-06,-8.218537004722748e-06,6.180872151162475e-05
-3.5986548027722165e-05,4.3901181925321e-05,8.833675565256272e-06,-3.89776596421143e-06,5.58043502678629e-05
-3.241931335651316e-05,4.820169124286622e-05,8.287813216156792e-06,-8.081547093752306e-07,5.3020667110104114e-05
-3.226536500733346e-05,4.306908158469014e-05,8.458056981908157e-06,1.8060624142890447e-06,5.609194340649992e-05
-3.55438569386024e-05,3.2211468351306394e-05,1.0763203135866206e-05,5.251833499642089e-06,6.0283644415903836e-05
-3.3479343983344734e-05,1.520498153695371e-05,1.0615878636599518e-05,7.22854929335881e-06,6.110488902777433e-05
-2.6601665013004094e-05,-6.953477623028448e-06,8.278804671135731e-06,6.1263726820470765e-06,5.975428575766273e-05
-2.4338543880730867e-05,-1.9422326658968814e-05,7.44584167478024e-06,3.553730493877083e-06,5.794475509901531e-05
-2.345814209547825e-05,-1.1322850696160458e-05,7.118320354493335e-06,4.8177067668575546e-08,5.684521602233872e-05
-2.0420180590008385e-05,3.476212441455573e-06,8.547194738639519e-06,-2.843980837496929e-06,5.6017237511696294e-05
-2.305902489752043e-05,1.402393445459893e-05,9.172631507681217e-06,-2.601971118565416e-06,5.839201548951678e-05
-3.389488847460598e-05,2.6740402972791344e-05,7.309865395654924e-06,1.184426992040244e-06,6.209420826053247e-05
-3.916978675988503e-05,4.204875585855916e-05,4.246989647072041e-06,5.670569407811854e-06,6.286108691710979e-05
-3.703322363435291e-05,5.477469676407054e-05,2.444836127324379e-06,6.38008896203246e-06,6.242717790883034e-05
-3.3327996789012104e-05,5.7609056966612116e-05,4.375879143481143e-06,1.3915978342993185e-06,6.664104876108468e-05
-2.842979483830277e-05,5.263880666461773e-05,4.7300104597525205e-06,-1.931762881213217e-06,7.326777267735451e-05
-2.281750312249642e-05,5.0202135753352195e-05,2.395051978965057e-06,-4.867392817686778e-07,7.274423114722595e-05
-1.8611355699249543e-05,5.025978680350818e-05,2.933256155301933e-06,2.1426301373139722e-06,6.609108822885901e-05
-1.9482509742374532e-05,5.038303061155602e-05,7.056232334434753e-06,3.076423354286817e-06,5.9433132264530286e-05
-2.1687805201509036e-05,4.685592284658924e-05,8.79966864886228e-06,1.8260351453136536e-06,5.5985325161600485e-05
-2.159711584681645e-05,4.110655208933167e-05,7.734401151537895e-06,-1.3712043482883018e-06,5.688123928848654e-05
-2.0602492440957576e-05,3.583546640584245e-05,9.492712706560269e-06,-5.478904313349631e-06,5.9468122344696894e-05
-2.1935460608801804e-05,3.624975215643644e-05,1.3017232959100511e-05,-8.810135113890283e-06,6.28417037660256e-05
-2.4243132429546677e-05,4.231119601172395e-05,1.402557609253563e-05,-1.2809878171538003e-05,6.648163252975792e-05
-2.6268313376931474e-05,4.3408879719208926e-05,1.1867371540574823e-05,-1.7387465049978346e-05,6.645328539889306e-05
-2.9880076908739284e-05,3.6558460124069825e-05,9.200440217682626e-06,-1.9019556930288672e-05,6.345056317513809e-05
-3.5218006814830005e-05,2.9106207875884138e-05,6.8338763412612025e-06,-1.6225203580688685e-05,6.183374352985993e-05
-3.980756810051389e-05,2.7234385925112292e-05,4.869621079706121e-06,-1.2879873793281149e-05,6.127879169071093e-05
-4.033085861010477e-05,3.1280782422982156e-05,5.318342118698638e-06,-1.1560890925466083e-05,6.093041520216502e-05
-3.812630893662572e-05,3.649739301181398e-05,7.700401511101518e-06,-9.773074452823494e-06,6.20975042693317e-05
-3.86602696380578e-05,3.455391197348945e-05,8.145333595166449e-06,-6.8010808718099725e-06,6.417754775611684e-05
-4.320564403315075e-05,3.0226816306822002e-05,6.920935447851662e-06,-5.283252448862186e-06,6.570163532160223e-05
-4.954589530825615e-05,2.9074446501908824e-05,8.210011401388329e-06,-8.557035471312702e-06,6.747266161255538e-05
-5.329020495992154e-05,3.1764531740918756e-05,1.1098309187218547e-05,-1.2352735211607069e-05,6.715373456245288e-05
-5.048477032687515e-05,3.807509710895829e-05,1.0773920621431898e-05,-1.193876323668519e-05,6.281662354012951e-05
-4.805647404282354e-05,4.1120321839116514e-05,5.266566404316109e-06,-1.3241533451946452e-05,6.059407314751297e-05
-4.920964056509547e-05,4.205929872114211e-05,1.4078208323553554e-06,-1.8271346561959945e-05,6.215707981027663e-05
-4.9463415052741766e-05,4.164091296843253e-05,3.2960074349830393e-06,-2.010447315115016e-05,6.382435822160915e-05
-4.704019374912605e-05,3.657089109765366e-05,5.135138053447008e-06,-1.6796173440525308e-05,6.403010047506541e-05
-4.138550139032304e-05,3.449869836913422e-05,7.03202249496826e-06,-1.706650982669089e-05,6.364252476487309e-05
-2.9866787372156978e-05,3.703860056702979e-05,9.888785825751256e-06,-2.0527511878754012e-05,6.155146547826007e-05
-1.8535049093770795e-05,3.7740723200840876e-05,1.0465185368957464e-05,-1.8328555597690865e-05,5.8516834542388096e-05
-1.3449352991301566e-05,3.3500971767352894e-05,1.0399930033599958e-05,-1.2952753422723617e-05,5.454082929645665e-05
-1.3182633665564936e-05,3.135095175821334e-05,8.81130836205557e-06,-1.1258391168667004e-05,4.782213727594353e-05
-1.5871677533141337e-05,3.6266701499698684e-05,6.6919878918270115e-06,-1.3209762073529419e-05,4.3705014832085e-05
-1.719043757475447e-05,4.2617473809514195e-05,2.5458339223405346e-06,-1.540820812806487e-05,4.6098779421299696e-05
-1.5757865185150877e-05,4.262449510861188e-05,-2.5152787657134468e-06,-1.4943100723030511e-05,4.715551403933205e-05
-1.0701771316234954e-05,3.602971992222592e-05,-6.208262675500009e-06,-1.5521089153480716e-05,4.367440124042332e-05
1.5326347693189746e-06,2.8662858312600292e-05,-5.539805442822399e-06,-1.5145437828323338e-05,4.2274463339708745e-05
2.016699727391824e-05,2.1698766431654803e-05,-1.5329218285842217e-06,-1.3031304661126342e-05,4.6542925701942295e-05
3.3754640753613785e-05,1.614177381270565e-05,1.349187641608296e-06,-1.4139353879727423e-05,5.091034108772874e-05
3.310566899017431e-05,1.2527828403108288e-05,2.960993015221902e-06,-1.518719636806054e-05,5.201438762014732e-05
1.93535270227585e-05,1.3301494618644938e-05,5.143532234797021e-06,-1.2306350072321948e-05,5.333453373168595e-05
4.048473329021363e-06,1.7887958165374584e-05,8.86410543898819e-06,-7.915275091363583e-06,5.4571482905885205e-05
-5.6657654567970894e-06,2.3398171833832748e-05,1.0655308869900182e-05,-5.38617086931481e-06,5.2706101996591315e-05
-1.540956145618111e-05,2.5876219297060743e-05,9.44660041568568e-06,-3.9502192521467805e-06,5.017255898565054e-05
-3.233896495657973e-05,2.381894773861859e-05,8.76991543918848e-06,-3.379239387868438e-06,4.8293524741893634e-05
-4.691576395998709e-05,2.0641524315578863e-05,1.3653910173161421e-05,-3.87382942790282e-06,4.575750062940642e-05
-4.816856744582765e-05,1.858236464613583e-05,1.8215834643342532e-05,-3.840784302155953e-06,4.627259113476612e-05
-4.5468750613508746e-05,1.895460627565626e-05,1.7265485439565964e-05,-1.9044293821934843e-06,4.9951893743127584e-05
-4.9883230531122535e-05,2.162104101444129e-05,1.3401711839833297e-05,3.299052764305088e-07,5.518611578736454e-05
-5.983004666632041e-05,2.0120674889767542e-05,1.1096675734734163e-05,-1.9352124525084946e-07,6.0187328926986083e-05
-6.44437168375589e-05,1.5313486073864624e-05,1.1143431038362905e-05,-4.820327831112081e-06,5.913609857088886e-05
-5.916524969507009e-05,1.524384606454987e-05,1.2273136235307902e-05,-7.09672622178914e-06,5.592405432253145e-05
-5.058816896053031e-05,1.5033506315376144e-05,7.94901825429406e-06,-9.30165515455883e-06,5.732073259423487e-05
-4.456029273569584e-05,9.29834095586557e-06,7.621496820320317e-07,-1.2872156730736606e-05,5.6929729908006266e-05
-3.492580071906559e-05,6.525164735649014e-06,-3.5123543966619764e-06,-1.1824856301245745e-05,5.3393847338156775e-05
-2.3063988919602707e-05,6.230104645510437e-06,-4.220018581690965e-06,-7.362581527559087e-06,5.191232776269317e-05
-1.4939800166757777e-05,-2.9370694392127916e-06,3.350889130615542e-07,-3.404456947464496e-06,5.36676961928606e-05
-1.3185453099140432e-05,-1.5040251128084492e-05,4.281067504052771e-06,-3.5560128708311822e-06,5.5488231737399474e-05
-1.5234677448461298e-05,-2.1589106836472638e-05,8.666896064823959e-06,-6.189278792589903e-06,5.750666605308652e-05
-1.50508230944979e-05,-1.9230896214139648e-05,6.625056357734138e-06,-5.840696758241393e-06,6.025332186254673e-05
-1.2192312169645447e-05,-8.713992428965867e-06,-3.7741031064797426e-06,-2.24214136324008e-06,6.155733717605472e-05
-3.454448915363173e-06,7.717892913206015e-06,-1.35275495267706e-05,1.09941993287066e-06,5.923565186094493e-05
5.123374648974277e-06,3.100075991824269e-05,-1.801336657081265e-05,2.5933470624295296e-06,5.713714563171379e-05
9.45465490076458e-06,5.995571336825378e-05,-1.7325561202596873e-05,2.8105223464081064e-06,5.762348519056104e-05
1.089665420295205e-05,9.007406333694234e-05,-1.8119906599167734e-05,3.223340172553435e-06,5.8867415646091104e-05
1.153969787992537e-05,0.00011806699330918491,-1.9006512957275845e-05,3.1744129955768585e-06,5.975184467388317e-05
9.2950731414021e-06,0.00013748707715421915,-1.44570876727812e-05,2.855250897937367e-07,5.8938763686455786e-05
1.9309859453642275e-06,0.0001374342682538554,-5.833766408613883e-06,-4.756647740578046e-06,5.5965236242627725e-05
-6.944160304556135e-06,0.00011406254634493962,9.17713862236269e-07,-5.543341103475541e-06,5.3391107940115035e-05
-1.4786636711505707e-05,7.687267498113215e-05,3.5728030525206123e-06,-3.155477315885946e-06,5.39027969352901e-05
-2.166630292776972e-05,5.3228690376272425e-05,3.0970493298809743e-06,-3.6382093639986124e-06,5.5166110541904345e-05
-2.6256555429426953e-05,5.695200525224209e-05,2.8925032893312164e-06,-7.253988769662101e-06,5.601902739726938e-05
-2.6710207748692483e-05,6.320667307591066e-05,5.024356141802855e-06,-8.066629561653826e-06,5.662902913172729e-05
-3.0582330509787425e-05,4.685322710429318e-05,8.358680133824237e-06,-5.551122285396559e-06,5.7017943618120626e-05
-3.94327835238073e-05,1.4010681297804695e-05,1.075757245416753e-05,-5.220035291131353e-06,5.7358513004146516e-05
-4.921228173770942e-05,-1.4928512428014074e-05,1.3493377082340885e-05,-5.538858658837853e-06,5.641566895064898e-05
-5.725435767089948e-05,-2.376654629188124e-05,1.7465983546571806e-05,-5.44216891285032e-06,5.455377322505228e-05
-6.0541893617482856e-05,-1.4477329386863858e-05,1.7514004866825417e-05,-4.4379466999089345e-06,5.6436187151120976e-05
-6.15712342550978e-05,3.3783787785068853e-06,9.925113772624172e-06,-1.5016471479611937e-06,6.010914876242168e-05
-5.964077354292385e-05,2.3099912141333334e-05,2.876577411825565e-07,1.3845374269294553e-06,6.040506195859052e-05
-5.280436744214967e-05,2.7361771572032012e-05,-3.628457761806203e-06,2.4731853045523167e-06,5.678661182173528e-05
-4.0998918848345056e-05,1.5105323655006941e-05,-4.389445109609369e-07,1.4328751376524451e-06,5.2739251259481534e-05
-2.939965452242177e-05,4.958303634339245e-06,6.5720205384423025e-06,2.095519676004187e-06,5.380396032705903e-05
-2.3327509552473202e-05,-6.705518444505287e-06,1.0662727618182544e-05,2.464479621266946e-06,5.7633675169199705e-05
-1.4191368791216519e-05,-1.774186057446059e-05,1.0993492651323322e-05,1.0745126246547443e-06,6.031235898262821e-05
-2.02165051632619e-06,-1.843029349402059e-05,1.2258544302312657e-05,-2.4811740786390146e-06,6.420555291697383e-05
8.63041259435704e-06,-7.27200449546217e-06,1.4730975635757204e-05,-7.92624632595107e-06,6.660031067440286e-05
1.918215821206104e-05,9.350041182187852e-06,1.749697548802942e-05,-1.1211758646823e-05,6.516798748634756e-05
3.2440180802950636e-05,1.6694753867341205e-05,2.0033436157973483e-05,-1.6159612641786225e-05,6.0132300859550014e-05
4.532909588306211e-05,1.818805503717158e-05,2.3548824174213223e-05,-2.094773117278237e-05,5.772195436293259e-05
5.030015381635167e-05,2.3733809939585626e-05,2.7794911147793755e-05,-2.190849045291543e-05,5.774565215688199e-05
4.1106861317530274e-05,3.554712748154998e-05,2.9233675377327017e-05,-2.314998891961295e-05,5.806098852190189e-05
2.1358653611969203e-05,4.37769376731012e-05,2.7202151613892056e-05,-2.596721787995193e-05,5.8260338846594095e-05
-9.62950252869632e-07,4.0773218643153086e-05,2.5101688152062707e-05,-3.021021984750405e-05,5.8495446864981204e-05
-1.856345079431776e-05,2.828966717061121e-05,2.4015067538130097e-05,-3.425421527936123e-05,6.03404150751885e-05
-3.144911170238629e-05,1.56914957187837e-05,2.0952349586877972e-05,-3.6181787436362356e-05,6.259919609874487e-05
-4.4786185753764585e-05,1.089890611183364e-05,1.4350023775477894e-05,-3.8472888263640925e-05,6.0818318161182106e-05
-5.651752508128993e-05,1.3247095012047794e-05,7.430204732372658e-06,-4.0966882806969807e-05,5.544180385186337e-05
-6.211624713614583e-05,1.853567846410442e-05,4.091879873158177e-06,-3.924384145648219e-05,5.298846008372493e-05
-6.0651109379250556e-05,2.3363580112345517e-05,2.4513656171620823e-06,-3.438964267843403e-05,5.1538947445806116e-05
-5.7370161812286824e-05,2.8076476155547425e-05,3.920894755538029e-07,-3.1730094633530825e-05,5.04038471262902e-05
-5.6082546507241204e-05,3.2201747671933845e-05,-2.253217274983399e-07,-2.7548823709366843e-05,4.916979014524259e-05
-5.653835250996053e-05,2.9993128919159062e-05,4.995014819542121e-07,-1.95378961507231e-05,4.940661892760545e-05
-5.4984666348900646e-05,2.263322312501259e-05,-2.5510632895020535e-06,-1.4257121620175894e-05,5.1017173973377794e-05
-5.278748722048476e-05,2.2246713342610747e-05,-5.802084160677623e-06,-1.660492125665769e-05,5.452529512695037e-05
-5.1692135457415134e-05,2.518967812648043e-05,-6.876703992020339e-06,-2.1922873202129267e-05,5.799307837150991e-05
-4.711266592494212e-05,2.5748617190402e-05,-3.747397158804233e-06,-2.3222613890538923e-05,5.643343320116401e-05
-4.4827829697169363e-05,2.924461296061054e-05,3.1189442779577803e-06,-2.2554680981556885e-05,5.684445204678923e-05
-4.948993228026666e-05,3.186717367498204e-05,7.13281497155549e-06,-2.140406286343932e-05,5.996017353027128e-05
-5.166322080185637e-05,2.997489536937792e-05,7.660656592634041e-06,-2.0516970835160464e-05,5.923846401856281e-05
-4.966972119291313e-05,2.674365896382369e-05,3.5299494811624754e-06,-1.9786919438047335e-05,5.7102581195067614e-05
-4.2724073864519596e-05,2.5163708414766006e-05,-1.8982378833243274e-06,-1.8412905774312094e-05,5.52621204406023e-05
-3.896127236657776e-05,2.5533830921631306e-05,-4.430571607372258e-06,-1.7909444068209268e-05,5.556529140449129e-05
-4.0459621232002974e-05,2.5637609724071808e-05,-4.642144631361589e-06,-1.989350676012691e-05,5.997561675030738e-05
-4.0082235500449315e-05,2.229960955446586e-05,-3.3240587526961463e-06,-2.2358663045451976e-05,6.259029032662511e-05
-3.6326317058410496e-05,1.373352097289171e-05,8.372416004931438e-07,-2.1395899238996208e-05,5.989238707115874e-05
-3.213805757695809e-05,4.78422316518845e-06,6.361820396705298e-06,-2.083339677483309e-05,5.742162829847075e-05
-2.7165055143996142e-05,6.650022896792507e-06,9.294873962062411e-06,-2.2194393750396557e-05,5.506454544956796e-05
-1.76533758349251e-05,2.2921622075955383e-05,6.812088031438179e-06,-2.220947681053076e-05,5.494040306075476e-05
-5.479937954078196e-06,3.775713048526086e-05,1.3466700465869508e-06,-1.8761191313387826e-05,5.7582925364840776e-05
2.631829147503595e-06,4.1960913222283125e-05,-2.5210224521288183e-06,-1.4841735719528515e-05,6.082175605115481e-05
4.2510322373345844e-07,3.7436879210872576e-05,-3.3854062166938093e-06,-1.407964555255603e-05,6.235127511899918e-05
-8.95636185305193e-06,3.358589674462564e-05,-2.8559493330249097e-06,-1.621671617613174e-05,6.274039333220571e-05
-1.82099702215055e-05,3.464960536803119e-05,-1.3541113048631814e-06,-1.797329241526313e-05,6.088283771532588e-05
-2.2821937818662263e-05,3.6541314329952e-05,1.1617437678523856e-07,-1.5128311133594252e-05,5.9708356275223196e-05
-2.4378616217290983e-05,3.64821644325275e-05,-7.905395023044548e-07,-9.542430234432686e-06,6.029738869983703e-05
-2.513413164706435e-05,3.5596229281509295e-05,-2.3345269255514722e-06,-9.512938049738295e-06,6.0579295677598566e-05
-2.608126487757545e-05,3.3567866921657696e-05,-2.6142763545067282e-06,-1.636218985368032e-05,6.199751078383997e-05
-2.4936593035818078e-05,2.817145286826417e-05,-1.5942919162625913e-06,-1.8573104171082377e-05,6.317559746094048e-05
-2.6601002900861204e-05,2.431162283755839e-05,8.854273687575187e-07,-1.6068521290435456e-05,6.661815859843045e-05
-3.4513701393734664e-05,2.658484663697891e-05,4.193938366370276e-06,-1.7494101484771818e-05,7.077533518895507e-05
-4.309182259021327e-05,3.142638161079958e-05,4.18945182900643e-06,-2.030504765571095e-05,6.850813224446028e-05
-4.4106309360358864e-05,3.290314998594113e-05,-1.6414138315212767e-07,-1.9996639821329154e-05,6.222158845048398e-05
-3.607216422096826e-05,3.4340439015068114e-05,-1.1026460242646863e-06,-1.4480894606094807e-05,6.085539280320518e-05
-3.0672585126012564e-05,3.5873606975656e-05,4.11453493143199e-06,-5.132275873620529e-06,6.178871990414336e-05
-3.061573806917295e-05,3.4059186873491853e-05,7.92977061792044e-06,2.1326889054762432e-06,6.44463361823e-05
-3.457664206507616e-05,2.6682189854909666e-05,7.4879644671455026e-06,1.985190692721517e-06,6.539954483741894e-05
-3.988716343883425e-05,2.4006898456718773e-05,6.832673534518108e-06,-2.4423247850791086e-06,6.298832886386663e-05
-4.266430187271908e-05,3.174909943481907e-05,1.0499922609596979e-05,-3.6775122680410277e-06,5.904697536607273e-05
-4.569020893541165e-05,4.0164621168514714e-05,1.4188656678015832e-05,-1.1866054592246655e-06,5.686680742655881e-05
-4.777537833433598e-05,4.392816117615439e-05,1.2158622666902374e-05,-8.729664386919467e-07,5.361279545468278e-05
-4.9630372814135626e-05,4.321076994528994e-05,7.917911716504022e-06,-3.94547896576114e-06,5.019185846322216e-05
-5.054352732258849e-05,4.090070433449e-05,8.105374945444055e-06,-3.83130281988997e-06,5.134166349307634e-05
-5.271361442282796e-05,3.77252436010167e-05,9.834696356847417e-06,6.21528727151599e-07,5.41892513865605e-05
-5.748714102082886e-05,3.231538721593097e-05,8.174896720447578e-06,5.863822934770724e-06,5.645067722070962e-05
-6.607163231819868e-05,2.3358694306807593e-05,4.894619905826403e-06,9.272705938201398e-06,5.786998008261435e-05
-7.543391257058829e-05,1.3626861800730694e-05,4.14282612837269e-06,1.201171016873559e-05,5.932791827945039e-05
-7.732914673397318e-05,7.488014944101451e-06,4.841300778934965e-06,1.2366162081889343e-05,5.8865523897111416e-05
-6.573786231456324e-05,7.799504601280205e-06,6.036916602170095e-06,1.0055799066321924e-05,5.5685799452476203e-05
-4.119934965274297e-05,1.3814882549922913e-05,6.97697896612226e-06,7.202889719337691e-06,5.3927957196719944e-05
-9.782027518667746e-06,2.486449375282973e-05,4.742543751490302e-06,5.715226507163607e-06,5.555154348257929e-05
2.0671854144893587e-05,4.036135578644462e-05,2.522830527595943e-06,5.673048235621536e-06,5.828410940011963e-05
3.9717746403766796e-05,5.335305104381405e-05,3.6129272302787285e-06,6.53345250611892e-06,6.0095659137004986e-05
4.430663102539256e-05,5.963881631032564e-05,7.058753908495419e-06,5.581697223533411e-06,6.258184293983504e-05
4.697783151641488e-05,5.7669589295983315e-05,8.583732778788544e-06,4.001044544565957e-06,6.714287883369252e-05
5.675129432347603e-05,4.615851867129095e-05,7.215920504677342e-06,4.2052861317642964e-06,7.096161425579339e-05
6.304126873146743e-05,3.6242770875105634e-05,8.791540494712535e-06,2.24866153075709e-06,7.312579691642895e-05
5.618625073111616e-05,3.025144906132482e-05,1.4370204553415533e-05,-3.752344809981878e-06,7.27011647541076e-05
3.179932900820859e-05,1.5167006495175883e-05,1.7061778635252267e-05,-1.1031954272766598e-05,7.091946463333443e-05
-1.7122124518209603e-06,-4.285937848180765e-06,1.6861071344465017e-05,-1.4861374438623898e-05,6.919862062204629e-05
-3.3612857805565e-05,-1.3803819456370547e-05,1.9016018995898776e-05,-1.5313582480303012e-05,6.394643423845991e-05
-4.8389880248578265e-05,-6.55073517918936e-06,1.8196400560555048e-05,-1.4657470273959916e-05,5.8258126955479383e-05
-4.314290708862245e-05,8.698985766386613e-06,1.4515524526359513e-05,-1.5671457731514238e-05,5.623631659545936e-05
-3.634041786426678e-05,2.211769242421724e-05,1.4577811271010432e-05,-1.605560646567028e-05,5.777291880804114e-05
-3.995966471848078e-05,3.0196468287613243e-05,1.310369225393515e-05,-1.7342224964522757e-05,6.142793426988646e-05
-4.944932152284309e-05,3.002999619639013e-05,1.0121570994670037e-05,-1.699705171631649e-05,5.929200415266678e-05
-5.1829443691531196e-05,2.6712425096775405e-05,7.0729856815887615e-06,-1.354716187051963e-05,5.4913165513426065e-05
-5.0511396693764254e-05,2.6060008167405613e-05,6.790457064198563e-06,-1.1506263035698794e-05,5.043591954745352e-05
-4.6001747250556946e-05,2.702053461689502e-05,7.516362984461011e-06,-1.2672678167291451e-05,5.032214176026173e-05
-3.839087730739266e-05,2.9467828426277265e-05,6.533830855914857e-06,-1.543348844279535e-05,5.4249125241767615e-05
-3.145574373775162e-05,3.242953971493989e-05,4.602240551321302e-06,-1.66014888236532e-05,5.693324055755511e-05
-2.8534304874483496e-05,3.5755045246332884e-05,3.986757292295806e-06,-1.52876709762495e-05,5.6291195505764335e-05
-3.175959864165634e-05,3.818281038547866e-05,5.064301603852073e-06,-1.3054012924840208e-05,5.283981590764597e-05
-3.412716250750236e-05,3.759636092581786e-05,6.688988378300564e-06,-1.2624106602743268e-05,5.216963108978234e-05
-3.4474385756766424e-05,3.7141668144613504e-05,8.796793736109976e-06,-1.4230105989554431e-05,5.381805749493651e-05
-3.3856238587759435e-05,3.8466059777420014e-05,8.125826752802823e-06,-1.872576649475377e-05,5.429162411019206e-05
-3.207202462363057e-05,4.188232196611352e-05,4.483556494960794e-06,-2.177137321268674e-05,5.368305210140534e-05
-2.862543442461174e-05,4.409500252222642e-05,1.3402262766248896e-06,-1.960541158041451e-05,5.470948599395342e-05
-2.510721969883889e-05,4.3703530536731705e-05,4.530976696059952e-07,-1.5257408449542709e-05,5.3993378969607875e-05
-2.4472539735143073e-05,4.2615833081072196e-05,-3.441488161115558e-07,-1.2279217116883956e-05,5.0068691052729264e-05
-2.5314880986115895e-05,4.167881343164481e-05,1.971199026229442e-07,-1.1699522474373225e-05,4.7415240260306746e-05
-2.3376769604510628e-05,3.922857649740763e-05,2.9079110390739515e-06,-1.0777145689644385e-05,4.9970018153544515e-05
-2.189375663874671e-05,4.1436549508944154e-05,7.718928827671334e-06,-8.395900294999592e-06,5.4978339903755113e-05
-2.1952519091428258e-05,4.3210176954744384e-05,9.47491753322538e-06,-7.820629434718285e-06,5.8983172493753955e-05
-1.8394006474409252e-05,3.6171182728139684e-05,6.916250640642829e-06,-6.453657988458872e-06,6.0938069509575143e-05
-1.3470260455505922e-05,3.19386635965202e-05,3.508705731292139e-06,-5.224039341555908e-06,6.155273877084255e-05
-1.4632344573328737e-05,3.372213541297242e-05,1.982183221116429e-06,-7.998249202501029e-06,6.133662100182846e-05
-2.4991562895593233e-05,3.205169196007773e-05,2.8751752978450895e-08,-1.1019272278645076e-05,6.208180275280029e-05
-3.410263525438495e-05,2.754202068899758e-05,-5.618769591819728e-06,-6.157996267575072e-06,6.434308306779712e-05
-3.654596730484627e-05,2.6784280635183677e-05,-1.1590123904170468e-05,-1.3763537936029024e-06,6.320027023321018e-05
-3.8850561395520344e-05,2.6178511689067818e-05,-1.3190799108997453e-05,-2.3490856619901024e-06,5.9172696637688205e-05
-4.232805804349482e-05,2.225418938905932e-05,-1.2204226550238673e-05,-3.9563337850268e-06,5.755402526119724e-05
-4.563392576528713e-05,1.7160173229058273e-05,-1.2361876542854588e-05,-4.744320449390216e-06,5.5751221225364134e-05
-4.726658153231256e-05,1.4473518604063429e-05,-1.0626679795677774e-05,-4.336663096182747e-06,5.515087104868144e-05
-5.0253034714842215e-05,1.776790668372996e-05,-4.676440767070744e-06,-6.4096066125785e-06,5.612833410850726e-05
-5.2505107305478305e-05,2.5318877305835485e-05,1.8914283828053158e-06,-8.619127584097441e-06,5.578545460593887e-05
-4.89312042191159e-05,3.214316529920325e-05,5.217727448325604e-06,-1.1025182175217196e-05,5.3990690503269434e-05
-4.244027513777837e-05,3.626900797826238e-05,5.3491285143536516e-06,-1.0268122423440218e-05,5.465525828185491e-05
-3.7813824746990576e-05,3.744655987247825e-05,5.157657597010257e-06,-7.65249478718033e-06,5.817132114316337e-05
-3.552998532541096e-05,3.4689564927248284e-05,8.312253157782834e-06,-7.355677553277928e-06,6.121672049630433e-05
-3.060571543755941e-05,3.367542376508936e-05,1.1952517525060102e-05,-9.55819632508792e-06,6.183775258250535e-05
-2.2281314159044996e-05,3.9902766729937866e-05,1.2816947673854884e-05,-1.1652441571641248e-05,5.890451939194463e-05
-1.2934572623635177e-05,4.437839743332006e-05,1.154083111032378e-05,-1.223961680807406e-05,5.579213029704988e-05
-3.0328933462442365e-06,3.650382859632373e-05,9.298148142988794e-06,-1.2738190889649559e-05,5.824127947562374e-05
9.87721978162881e-06,1.9891755073331296e-05,7.768208888592198e-06,-1.3632638001581654e-05,6.396308890543878e-05
2.3509002858190797e-05,7.93858362158062e-06,8.060740583459847e-06,-1.3313017916516401e-05,6.658849451923743e-05
3.007801205967553e-05,5.249788500805153e-06,7.83715040597599e-06,-1.081006666936446e-05,6.668586138403043e-05
2.4508850401616655e-05,3.283704245404806e-06,2.9142104267521063e-06,-7.267735782079399e-06,6.725492858095095e-05
1.2043627066304907e-05,-8.755877729527128e-07,-3.6256944895285415e-06,-3.232989456591895e-06,6.858837878098711e-05
1.0856311973839183e-06,1.9025230812985683e-07,-4.667034318117658e-06,-2.5537872261338634e-06,6.411744107026607e-05
-8.920738764572889e-06,4.802154762728605e-06,-1.9433971374382963e-06,-5.550120931729907e-06,5.609854270005599e-05
-2.3133892682380974e-05,4.468493898457382e-06,-2.381458671152359e-06,-9.421647519047838e-06,5.2544110076269135e-05
-3.89135857403744e-05,-2.602669837870053e-06,-4.958087174600223e-06,-1.1000433914887253e-05,5.4577361879637465e-05
-4.643979264074005e-05,-8.367487680516206e-06,-5.7271786317869555e-06,-1.1145552889502142e-05,5.608441642834805e-05
-3.8488338759634644e-05,-3.536292979333666e-06,-3.965538780903444e-06,-8.72326381795574e-06,5.604511534329504e-05
-2.542988477216568e-05,7.162786005210364e-06,-3.4627976219780976e-06,-5.346927991922712e-06,5.9391491959104314e-05
-2.0395042156451382e-05,1.9665068975882605e-05,-3.883834324369673e-06,-1.9685928691615118e-06,6.292772013694048e-05
-2.174705696234014e-05,3.2871768780751154e-05,-5.322931428963784e-06,1.4682664186693728e-06,6.279376248130575e-05
-2.204396514571272e-05,3.798921898123808e-05,-8.098048965621274e-06,2.1091427697683685e-06,5.887858787900768e-05
-2.0270412278478034e-05,3.268363798270002e-05,-7.3717546911211684e-06,2.9551796387750073e-07,5.695125582860783e-05
-1.4204292710928712e-05,2.6135694497497752e-05,-2.992339204865857e-06,-1.1093077318946598e-06,6.268874858506024e-05
-2.5999856916314457e-06,2.849527845683042e-05,8.20843354176759e-07,-2.1701866899093147e-06,6.729805318173021e-05
3.1514027796220034e-06,3.834007657133043e-05,1.3987881857246975e-06,-3.3825695027189795e-06,6.811919593019411e-05
1.1834086421913526e-07,4.531213198788464e-05,1.417417934135301e-06,-2.512484115868574e-06,6.680539081571624e-05
-6.425093033612939e-06,4.336826896178536e-05,8.99213375760155e-07,-5.520734021047247e-07,6.429371569538489e-05
-1.2037409760523587e-05,3.520401878631674e-05,2.7811659037979553e-06,-2.2040730982553214e-06,6.086614666855894e-05
-1.6161937310243957e-05,2.5906572773237713e-05,4.367569999885745e-06,-7.171161996666342e-06,5.872837209608406e-05
-1.8783926861942746e-05,1.915290158649441e-05,4.940106464346172e-06,-1.1329646440572105e-05,5.890016473131254e-05
-1.8011420252150856e-05,1.8399825421511196e-05,7.113484116416657e-06,-1.4408356037165504e-05,5.8256635384168476e-05
-1.8288250430487096e-05,2.236555883428082e-05,8.720216101210099e-06,-1.547807187307626e-05,5.747581599280238e-05
-2.43788308580406e-05,2.7724543542717583e-05,9.201866305375006e-06,-1.4106327398621943e-05,5.838146898895502e-05
-3.247963104513474e-05,3.282615580246784e-05,1.1930966138606891e-05,-1.183199401566526e-05,5.929939288762398e-05
-3.651754741440527e-05,4.0766641177469864e-05,1.4834039575362112e-05,-9.532821422908455e-06,6.105765351094306e-05
-3.648066922323778e-05,5.331536158337258e-05,1.205019452754641e-05,-5.254525149211986e-06,6.448387284763157e-05
-3.5395089071244e-05,6.574818689841777e-05,9.341886652691755e-06,-3.0602038805227494e-06,6.535839929711074e-05
-3.3746560802683234e-05,7.345832273131236e-05,1.019423234538408e-05,-5.3113303692953195e-06,6.379817932611331e-05
-3.384818046470173e-05,7.495777390431613e-05,1.0728361303335987e-05,-8.048469680943526e-06,6.128138193162158e-05
-3.6162924516247585e-05,7.439222827088088e-05,6.4328114603995346e-06,-7.986895070644096e-06,6.033985482645221e-05
-3.654804822872393e-05,7.451829878846183e-05,-9.444643183087464e-07,-7.688919140491635e-06,6.112466508056968e-05
-3.509331145323813e-05,7.62076087994501e-05,-5.90429590374697e-06,-9.667635822552256e-06,6.049011062714271e-05
-3.19526152452454e-05,7.712461956543848e-05,-9.901743396767415e-06,-9.48705474002054e-06,5.694132414646447e-05
-3.466205453150906e-05,6.576238229172304e-05,-1.945173971762415e-05,-1.018096099869581e-05,5.483067798195407e-05
-4.161714969086461e-05,4.087157140020281e-05,-3.296043360023759e-05,-1.5026870642032009e-05,5.5732154578436166e-05
-4.123202961636707e-05,2.3834134481148794e-05,-4.101781451026909e-05,-2.1264586393954232e-05,5.761709326179698e-05
-3.7468351365532726e-05,1.9894945580745116e-05,-4.03516496589873e-05,-2.3471367967431433e-05,5.747225077357143e-05
-3.53576906491071e-05,1.9120740034850314e-05,-3.147182724205777e-05,-2.2147227355162613e-05,5.811103619635105e-05
-3.5576402297010645e-05,2.180482078983914e-05,-1.4857832866255194e-05,-2.226107426395174e-05,6.039649451849982e-05
-3.5316890716785565e-05,2.5665662178653292e-05,2.4418432076345198e-06,-2.2113648810773157e-05,6.253154424484819e-05
-3.5677876439876854e-05,3.189601920894347e-05,1.592640001035761e-05,-1.9384806364541873e-05,6.125183426775038e-05
-3.9398681110469624e-05,3.463910616119392e-05,2.12108589039417e-05,-1.8209142581326887e-05,5.7047614973271266e-05
-4.201685806037858e-05,3.326047954033129e-05,2.269497053930536e-05,-1.9539706045179628e-05,5.690221951226704e-05
-4.1459414205746725e-05,3.283288606326096e-05,2.6705485652200878e-05,-1.9915367374778725e-05,6.124965875642374e-05
-3.933587504434399e-05,2.95837817247957e-05,3.1093812140170485e-05,-1.8647100660018623e-05,6.332963675959036e-05
-3.0451657949015498e-05,1.853908361226786e-05,3.3103020541602746e-05,-1.4525056030834094e-05,6.127329834271222e-05
-1.48462941069738e-05,1.174647422885755e-06,3.39358884957619e-05,-8.313907528645359e-06,5.816471093567088e-05
1.8859623196476605e-06,-1.1151269063702784e-05,3.701776222442277e-05,-4.935740889777662e-06,5.493322169058956e-05
1.1584124877117574e-05,-1.1258690392423887e-05,4.1368148231413215e-05,-8.218857146857772e-06,5.535386299015954e-05
6.84659198668669e-06,-6.021830813551787e-06,4.198414899292402e-05,-1.4039225789019838e-05,5.927704842179082e-05
-1.080321817426011e-05,-2.8650292733800597e-06,3.62409082299564e-05,-1.7497921362519264e-05,6.106267392169684e-05
-2.9656899641850032e-05,6.411072263290407e-06,3.060352537431754e-05,-1.7069414752768353e-05,6.067747381166555e-05
-4.034614175907336e-05,2.191632847825531e-05,2.8722572096739896e-05,-1.4535771697410382e-05,6.223643867997453e-05
-4.35156725870911e-05,3.1086332455743104e-05,2.9372120479820296e-05,-1.190967668662779e-05,6.255458720261231e-05
-3.851886503980495e-05,2.786442382785026e-05,2.9736482247244567e-05,-9.73520855040988e-06,6.027702693245374e-05
-3.064162956434302e-05,2.075053816952277e-05,2.7453117581899278e-05,-9.22778417589143e-06,5.837228673044592e-05
-3.004056998179294e-05,2.14345745916944e-05,2.3979629986570217e-05,-1.0104104148922488e-05,5.641021198243834e-05
-3.447163544478826e-05,2.785591823339928e-05,2.302399298059754e-05,-8.506054655299522e-06,5.4449206800200045e-05
-3.79910743504297e-05,3.624225428211503e-05,1.9739030904020183e-05,-3.902265689248452e-06,5.218146907282062e-05
-4.350158997112885e-05,4.4677395635517314e-05,1.1134779924759641e-05,-1.333280351900612e-06,4.9416132242185995e-05
-4.61014496977441e-05,4.783961776411161e-05,4.902165073872311e-06,2.672997652553022e-06,5.043254350312054e-05
-3.428713898756541e-05,4.343398177297786e-05,4.5286074055184145e-06,7.249842383316718e-06,5.423195398179814e-05
-8.04482897365233e-06,3.5443157685222104e-05,7.235723842313746e-06,6.564755949511891e-06,5.7638855651021004e-05
1.7332282368442975e-05,4.0260587411466986e-05,8.678750418766867e-06,5.008100742998067e-06,6.05023124080617e-05
2.4283006496261805e-05,5.370746657717973e-05,7.924889359856024e-06,3.654165766420192e-06,6.419877900043502e-05
1.1938832358282525e-05,5.7635425037005916e-05,4.420516233949456e-06,3.760787649298436e-06,6.602679786738008e-05
-2.734684358074446e-06,4.4817395973950624e-05,2.2531232843903126e-06,7.71351460571168e-06,6.603389920201153e-05
-1.1058583368139807e-05,2.419100383121986e-05,7.041027856757864e-06,8.147669177560601e-06,6.834569649072364e-05
-1.6582082025706768e-05,1.0278326044499408e-05,1.2824873920180835e-05,2.0881020645902026e-06,6.89873268129304e-05
-2.4002838472370058e-05,2.1980788460496115e-06,1.4454777556238696e-05,-3.052178954021656e-06,6.51008085696958e-05
-3.140689295832999e-05,-1.306611011386849e-06,1.2760891877405811e-05,-3.848847427434521e-06,6.341029074974358e-05
-4.0645729313837364e-05,1.4279655715654371e-06,1.2769542081514373e-05,-1.929067138917162e-06,6.507737998617813e-05
-5.100762064103037e-05,8.567706572648603e-06,1.3478701475833077e-05,-3.258929837102187e-06,6.493087130365893e-05
-5.8000015997095034e-05,1.575116766616702e-05,1.0525440302444622e-05,-8.997052646009251e-06,6.595664308406413e-05
-5.970178244751878e-05,2.037093508988619e-05,6.071861662348965e-06,-1.5375413568108343e-05,6.835431850049645e-05
-5.791179501102306e-05,2.427743856969755e-05,4.016914772364544e-06,-2.069186302833259e-05,6.88683649059385e-05
-5.453638004837558e-05,2.9635231840074994e-05,3.6912445011694217e-06,-2.3713520931778476e-05,6.830640631960705e-05
-4.950497896061279e-05,3.556815136107616e-05,2.297402261319803e-06,-2.4373519408982247e-05,6.617892358917743e-05
-4.316608465160243e-05,4.041649663122371e-05,-6.711475180054549e-07,-2.596770900709089e-05,6.21843064436689e-05
-3.411358193261549e-05,3.834380186162889e-05,-5.613313987851143e-06,-2.8071613996871747e-05,5.943045471212827e-05
-2.1931531591690145e-05,3.289774031145498e-05,-9.639463314670138e-06,-2.662066981429234e-05,5.894786590943113e-05
-8.209936822822783e-06,3.309162275400013e-05,-9.257000783691183e-06,-2.5702178390929475e-05,5.875952774658799e-05
-3.794465328610386e-07,3.505454151309095e-05,-8.376782716368325e-06,-2.7776377464761026e-05,5.8164132497040555e-05
4.120465746382251e-06,3.291003667982295e-05,-7.639353498234414e-06,-2.9029935831204057e-05,5.7394165196456015e-05
1.0144182851945516e-05,2.523573493817821e-05,-5.068310201750137e-06,-2.8941756681888364e-05,5.849199806107208e-05
1.711500226520002e-05,1.7176989786094055e-05,-4.743015324493172e-06,-2.7750187655328773e-05,6.192654836922884e-05
1.7423451936338097e-05,1.457206963095814e-05,-5.602400506177219e-06,-2.234771818621084e-05,6.257260247366503e-05
1.6114024674607208e-06,1.0878044122364372e-05,-6.230327471712371e-07,-1.677516775089316e-05,5.916472582612187e-05
-1.831290137488395e-05,5.30101942786132e-06,4.46013109467458e-06,-1.3961765944259241e-05,5.618510476779193e-05
-3.186616595485248e-05,6.529576694447314e-06,3.085241132794181e-06,-1.262731893802993e-05,5.285831866785884e-05
-4.177414666628465e-05,1.683962545939721e-05,-1.3066605575318135e-08,-1.0816430403792765e-05,4.9595622840570286e-05
-4.846127194468863e-05,2.5665956854936667e-05,-3.5899113299819874e-06,-1.223407616635086e-05,5.0155900680692866e-05
-5.315957241691649e-05,2.6828785848920234e-05,-3.976941570726922e-06,-1.2959092600794975e-05,5.249261812423356e-05
-5.339507697499357e-05,2.4378556190640666e-05,-3.827771251962986e-06,-1.007983519230038e-05,5.5121505283750594e-05
-4.976684431312606e-05,2.2348311176756397e-05,-4.9493619371787645e-06,-9.271629096474499e-06,5.509565016836859e-05
-4.417432501213625e-05,2.3427426640409976e-05,-6.41564429315622e-06,-1.1605657164182048e-05,5.323166260495782e-05
-4.300459477235563e-05,2.8069018298992887e-05,-6.501908501377329e-06,-1.617172165424563e-05,5.291432898957282e-05
-4.612728662323207e-05,3.445693073445e-05,-6.181793196446961e-06,-1.6647132724756375e-05,5.7037657825276256e-05
-4.4723663449985906e-05,4.19182724726852e-05,-6.579541604878614e-06,-1.2029556273773778e-05,6.158323958516121e-05
-3.666950578917749e-05,4.813223858946003e-05,-6.860957910248544e-06,-5.910314939683303e-06,6.28527341177687e-05
-2.9072261895635165e-05,4.9565816880203784e-05,-5.864253580512013e-06,-5.724896823267045e-07,6.304106500465423e-05
-2.6488129151402973e-05,4.8315316234948114e-05,-3.2735897548263893e-06,4.530822934611933e-06,6.159897748148069e-05
-2.4418088287347928e-05,4.8782188969198614e-05,-6.844735480626696e-07,4.253180122759659e-06,6.019764259690419e-05
-2.4967672288767062e-05,5.181672895560041e-05,1.5460849454029812e-06,-2.0527322703856044e-06,5.964276715531014e-05
-3.523648047121242e-05,5.3961553931003436e-05,4.6836889850965235e-06,-7.359852133959066e-06,5.760906060459092e-05
-5.0761664169840515e-05,5.3167332225712016e-05,1.0613967788231093e-05,-8.249494385381695e-06,5.311937638907693e-05
-5.810368020320311e-05,4.791617175214924e-05,1.5992553016985767e-05,-7.19672334525967e-06,5.1729672122746706e-05
-5.239513484411873e-05,3.709634256665595e-05,1.7103238860727288e-05,-5.264051196718356e-06,5.63155444979202e-05
-3.881145312334411e-05,2.5651361283962615e-05,1.4005211596668232e-05,-2.957797050839872e-06,6.184029916767031e-05
-2.7196852897759527e-05,1.981691639230121e-05,1.3110854524711613e-05,-2.784657681331737e-06,6.419362762244418e-05
-2.8648573788814247e-05,1.848648753366433e-05,1.5148294551181607e-05,-4.467444341571536e-06,6.561678310390562e-05
-3.801997081609443e-05,1.9019173123524524e-05,1.703033922240138e-05,-2.8807876333303284e-06,6.661637598881498e-05
-4.27912273153197e-05,1.7816471881815232e-05,1.6292155123664998e-05,3.5806368714474957e-07,6.611830758629367e-05
-4.810651080333628e-05,1.1840826118714176e-05,1.2841572242905386e-05,-3.055766626403056e-07,6.334477802738547e-05
-4.945403998135589e-05,9.678083046082975e-08,9.192156539938878e-06,-4.670588168664835e-06,6.319277599686757e-05
-4.2275099985999987e-05,-6.926486548763933e-06,8.122509825625457e-06,-1.1215111953788437e-05,6.643325468758121e-05
-3.1701038096798584e-05,-2.9459067718562437e-06,6.977323664614232e-06,-1.5433053704327904e-05,6.672483868896961e-05
-2.304045483469963e-05,8.36139042803552e-06,5.309975222189678e-06,-1.7638423742027953e-05,6.42401137156412e-05
-1.9714650989044458e-05,2.123283593391534e-05,5.479732408275595e-06,-1.7502867194707505e-05,6.3683110056445e-05
-2.044278517132625e-05,2.4874376322259195e-05,3.924974407709669e-06,-1.88593130587833e-05,6.270383164519444e-05
-1.847136445576325e-05,1.5917134078335948e-05,-8.185061233234592e-07,-2.2532187358592637e-05,5.7432567700743675e-05
-9.730678357300349e-06,1.747092028381303e-06,-3.748661583813373e-06,-2.6306803192710504e-05,5.1314775191713125e-05
-5.451570928016736e-07,-5.698095264961012e-06,-3.148493988192058e-06,-2.742095421126578e-05,4.801524119102396e-05
2.890847781600314e-06,-3.5622781524580205e-06,1.1726256161637139e-06,-2.7087000489700586e-05,4.677756442106329e-05
3.1897215535536816e-07,4.759807325172005e-06,3.477294512777007e-06,-2.7468535336083733e-05,4.4645610614679754e-05
-3.2951718367257854e-06,1.240808705915697e-05,-1.8874726492867921e-06,-2.6936797439702787e-05,4.260214700479992e-05
-8.707109373062849e-06,1.4446526620304212e-05,-8.614213584223762e-06,-2.4665605451446027e-05,4.195789369987324e-05
-1.3766202755505219e-05,1.3483984730555676e-05,-1.110231733036926e-05,-2.167644015571568e-05,4.345887646195479e-05
-1.75681689142948e-05,1.6393914847867563e-05,-1.119025364459958e-05,-1.9226343283662573e-05,4.5841359678888693e-05
-1.9865094145643525e-05,2.4993851184262894e-05,-1.1818413440778386e-05,-1.4872515748720616e-05,4.6799959818599746e-05
-2.3332819182542153e-05,3.407141048228368e-05,-1.1552796422620304e-05,-1.1175145118613727e-05,4.674219962907955e-05
-2.9901284506195225e-05,4.266312680556439e-05,-7.5428774835017975e-06,-9.804687579162419e-06,4.647914829547517e-05
-3.659762296592817e-05,5.3876596211921424e-05,7.334566589634051e-07,-9.319781383965164e-06,4.746497143059969e-05
-3.9067686884664e-05,6.489040970336646e-05,8.020621862669941e-06,-6.333456894935807e-06,5.050401887274347e-05
-3.5929693694924936e-05,6.715648487443104e-05,1.0545870281930547e-05,-2.723307716223644e-06,5.3677063988288864e-05
-3.223509338567965e-05,5.9468893596204e-05,1.1406045814510435e-05,-1.97136728274927e-06,5.523737854673527e-05
-2.9926246497780085e-05,4.8439702368341386e-05,1.1372741937520914e-05,-2.08967549042427e-06,5.479641549754888e-05
-2.8366152037051506e-05,3.7862322642467916e-05,1.1305455700494349e-05,2.882676142235141e-08,5.490931653184816e-05
-3.037162787222769e-05,2.7731588488677517e-05,1.2543724551505875e-05,3.6531916975945933e-06,5.644725024467334e-05
-3.2939777156570926e-05,1.9600749510573223e-05,1.281651475437684e-05,6.315793143585324e-06,5.572305963141844e-05
-2.817787571984809e-05,7.191391887317877e-06,1.5193667422863655e-05,6.437373031076277e-06,5.573169619310647e-05
-2.123720696545206e-05,-1.3354841030377429e-05,1.7382941223331727e-05,6.035454134689644e-06,5.7487031881464645e-05
-1.5745588825666346e-05,-2.1576091967290267e-05,1.695985883998219e-05,8.265754331659991e-06,5.7893161283573136e-05
-1.2120157407480292e-05,-1.2861500181315932e-05,1.640196205698885e-05,9.813436918193474e-06,5.97944890614599e-05
-1.0143688086827751e-05,-6.819298619120673e-07,1.625091681489721e-05,7.561631264252355e-06,6.275267514865845e-05
-1.0839643437066115e-05,9.171567398880143e-06,1.4819575881119817e-05,6.413333267119015e-06,6.316897633951157e-05
-1.983570291486103e-05,1.8995477148564532e-05,1.2943046385771595e-05,5.518739726539934e-06,5.927556776441634e-05
-3.097802255069837e-05,3.4223852708237246e-05,1.3249723451735917e-05,5.759629402746214e-06,5.567731204791926e-05
-3.316938455100171e-05,4.8482310376130044e-05,1.5169915059232153e-05,7.4611048148653936e-06,5.4230848036240786e-05
-2.8354830647003837e-05,5.803654494229704e-05,1.9018700186279602e-05,6.786787253076909e-06,5.445781789603643e-05
-2.3015883925836533e-05,6.174360896693543e-05,2.1173393179196864e-05,7.0011460593377706e-06,5.398765642894432e-05
-2.130050961568486e-05,6.411568756448105e-05,2.0091738406335935e-05,7.3779024205578025e-06,5.202659303904511e-05
-2.1687035768991336e-05,6.905556801939383e-05,1.9407138097449206e-05,7.221742635010742e-06,5.2241193770896643e-05
-2.2117377739050426e-05,7.658426329726353e-05,1.631528721190989e-05,7.199136689450825e-06,5.4335901950253174e-05
-2.2512740542879328e-05,7.863014616305009e-05,1.1421485396567732e-05,5.905694706598297e-06,5.510791015694849e-05
-2.2751130018150434e-05,7.261605787789449e-05,7.853647730371449e-06,3.3511591936985496e-06,5.4286789236357436e-05
-2.1890355128562078e-05,6.686170672765002e-05,6.785654477425851e-06,3.2547061437071534e-06,5.668518861057237e-05
-1.7317595847998746e-05,6.115106225479394e-05,5.249994956102455e-06,5.216466433921596e-06,6.283030234044418e-05
-1.1866904060298111e-05,4.5616572606377304e-05,2.771154186120839e-06,5.52369328943314e-06,6.628495611948892e-05
-1.0588874829409178e-05,2.1978612494422123e-05,2.5895838007272687e-06,2.290302518304088e-06,6.535521970363334e-05
-1.261629495274974e-05,7.185624781413935e-06,4.15689237343031e-06,-2.769327466012328e-06,6.278200453380123e-05
-1.4783436199650168e-05,9.66183597483905e-06,5.313843757903669e-06,-7.135599389584968e-06,6.160735210869461e-05
-1.7401885997969657e-05,2.112823312927503e-05,6.3553065956512e-06,-8.710590918781236e-06,6.248166027944535e-05
-2.3175676687969826e-05,2.7768235668190755e-05,8.36891103972448e-06,-5.838278866576729e-06,6.483943434432149e-05
-3.282132820459083e-05,2.9508313673431985e-05,8.413139767071698e-06,-2.9422731131489854e-06,6.75373594276607e-05
-3.728096271515824e-05,3.290450695203617e-05,5.7367597037227824e-06,-4.591835931933019e-06,6.717257929267362e-05
-3.0524628527928144e-05,3.840643694275059e-05,4.174705168225046e-07,-9.032913112605456e-06,6.509054219350219e-05
-2.2461619664682075e-05,3.87768232030794e-05,-9.733083743412863e-07,-1.3764312825514935e-05,6.391791976056993e-05
-2.1894096789765172e-05,3.443804234848358e-05,6.181242042657686e-06,-1.4675947568321135e-05,6.312986806733534e-05
-2.90145162580302e-05,3.2350417313864455e-05,1.3047077118244488e-05,-1.2016371329082176e-05,6.248753925319761e-05
-3.438928979448974e-05,3.5177439713152125e-05,1.1654767149593681e-05,-1.13567293738015e-05,6.140909681562334e-05
-3.416667095734738e-05,3.8013557059457526e-05,6.9349666773632634e-06,-1.2250443433003966e-05,5.731613782700151e-05
-3.4089058317476884e-05,3.631847721408121e-05,2.657997356436681e-06,-1.3924289305577986e-05,5.763935041613877e-05
-3.28722526319325e-05,2.8764256057911552e-05,-1.7848988136393018e-06,-1.503760267951293e-05,6.107635999796912e-05
-3.097426815656945e-05,1.682557922322303e-05,-7.674587322981097e-06,-1.683184200373944e-05,6.243991811061278e-05
-2.9456845368258655e-05,9.624491212889552e-07,-1.2128614798712078e-05,-1.7796362953959033e-05,5.962137583992444e-05
-3.2069950975710526e-05,-7.339217518165242e-06,-1.203868305310607e-05,-1.6655949366395362e-05,5.6454089644830674e-05
-3.4089745895471424e-05,-2.8274414489715127e-06,-9.652521839598194e-06,-1.7709084204398096e-05,5.792159208795056e-05
-2.7234807930653915e-05,6.1977116274647415e-06,-8.867226824804675e-06,-2.025442518061027e-05,6.017303530825302e-05
-1.623323987587355e-05,1.2238335330039263e-05,-1.1859940968861338e-05,-2.2244859792408533e-05,5.976326792733744e-05
-1.2315679668972734e-05,1.783574953151401e-05,-1.4579381058865692e-05,-2.2281887140707113e-05,5.8205911045661196e-05
-1.7086946172639728e-05,3.227782144676894e-05,-1.2577454072015826e-05,-2.3377026082016528e-05,5.9440790209919214e-05
-2.3410635549225844e-05,5.279085235088132e-05,-5.424518349173013e-06,-2.5778992494451813e-05,6.148213287815452e-05
-2.748412953224033e-05,6.673896859865636e-05,9.78317302724463e-07,-2.908446913352236e-05,6.146956729935482e-05
-2.99008606816642e-05,6.424927414627746e-05,2.4042117274802877e-06,-3.5049684811383486e-05,6.023651440045796e-05
-3.340981129440479e-05,5.05593852722086e-05,4.005113169114338e-06,-4.124855331610888e-05,5.931218765908852e-05
-3.678327993839048e-05,3.49662805092521e-05,9.428946214029565e-06,-4.2999112338293344e-05,5.75302547076717e-05
-3.9064951124601066e-05,2.0755989680765197e-05,1.483441246818984e-05,-4.162347977398895e-05,5.441237590275705e-05
-3.4334821975789964e-05,9.817839782044757e-06,1.5980383977876045e-05,-4.0265953430207446e-05,5.204767512623221e-05
-2.0950647012796253e-05,3.7807833450642647e-06,1.246551710210042e-05,-3.82254074793309e-05,5.1778857596218586e-05
-1.0056587598228361e-05,-9.184709881537856e-08,8.725851330382284e-06,-3.576564631657675e-05,5.245168722467497e-05
-9.08492165763164e-06,4.0707493553782115e-07,9.239155588147696e-06,-3.171424395986833e-05,5.279079778119922e-05
-1.9185370547347702e-05,2.4881096578610595e-06,1.011361109704012e-05,-2.625681554491166e-05,5.194491313886829e-05
-3.136304803774692e-05,4.601727141562151e-06,8.936060112318955e-06,-2.246786425530445e-05,5.493581556947902e-05
-3.578120958991349e-05,1.0400867722637486e-05,7.2988818828889634e-06,-2.1265299437800422e-05,5.8280580560676754e-05
-3.6893514334224164e-05,1.653211802477017e-05,5.118141416460276e-06,-1.932714985741768e-05,5.736889943364076e-05
-4.027933755423874e-05,1.6176127246581018e-05,8.27922485768795e-06,-1.3994107575854287e-05,5.377972047426738e-05
-4.5095421228324994e-05,1.547309148008935e-05,1.6496045645908453e-05,-8.296475243696477e-06,5.369216887629591e-05
-4.7581084800185636e-05,1.8334332708036527e-05,2.080279227811843e-05,-6.090863280405756e-06,5.8389930927660316e-05
-4.8585072363493964e-05,2.1796071450808086e-05,1.5450048522325233e-05,-6.586882136616623e-06,6.311739707598463e-05
-5.077092282590456e-05,2.451297223160509e-05,4.4239163798920345e-06,-6.30176600679988e-06,6.381649291142821e-05
-5.0800343160517514e-05,2.6987177989212796e-05,-3.0713727028341964e-06,-4.565722974803066e-06,6.191146530909464e-05
-4.314747639000416e-05,3.252200622227974e-05,-4.53769007435767e-06,-5.96552627030178e-06,6.190058775246143e-05
-3.220535290893167e-05,3.953474515583366e-05,-3.494698603390134e-06,-7.969375474203844e-06,6.088749069022015e-05
-2.3435517505276948e-05,4.556652493192814e-05,-1.4831165344730834e-06,-7.044000085443258e-06,5.6948181736515835e-05
-1.9855075152008794e-05,4.909478593617678e-05,2.9084807806611934e-07,-5.948351827100851e-06,5.315390444593504e-05
-1.7143924196716398e-05,5.0800379540305585e-05,-4.138467375014443e-06,-1.0563115210970864e-05,5.1051647460553795e-05
-1.2574931133713108e-05,4.933266245643608e-05,-1.3286129615153186e-05,-1.63910099217901e-05,5.218865771894343e-05
-1.0648948773450684e-05,4.477639959077351e-05,-1.883464756247122e-05,-1.7240041415789165e-05,5.77688952034805e-05
-1.3556604244513437e-05,4.0359409467782825e-05,-1.637244895391632e-05,-1.4591608305636328e-05,6.230113649507985e-05
-1.8016040485235862e-05,4.337503924034536e-05,-8.59467309055617e-06,-1.1336962415953167e-05,6.370207847794518e-05
-1.6950716599239968e-05,4.798824738827534e-05,-2.7361948014004156e-06,-9.068363397091161e-06,6.271602615015581e-05
-1.4994530829426367e-05,3.99984055547975e-05,2.5878176757032634e-07,-8.730014087632298e-06,6.067617141525261e-05
-1.8125354472431354e-05,2.0278112060623243e-05,1.6628407593088923e-06,-9.148746357823256e-06,5.802671876153909e-05
-2.3674134354223497e-05,4.6917675717850216e-06,-9.89087538982858e-07,-9.49243622017093e-06,5.591332592302933e-05
-2.611741547298152e-05,-5.231965474195022e-07,-5.4103461479826365e-06,-1.199177040689392e-05,5.570280700339936e-05
-2.724156183830928e-05,2.2341907879308565e-08,-4.696264568337938e-06,-1.623704156372696e-05,5.837267235619947e-05
-2.8671120162471198e-05,4.719890057458542e-06,-2.4627618699923914e-07,-2.1606459995382465e-05,6.114391726441681e-05
-3.3174346754094586e-05,1.174081080534961e-05,3.919727532775141e-06,-2.5335215468658134e-05,6.352275522658601e-05
-3.856388866552152e-05,1.633056854188908e-05,9.672642590885516e-06,-2.587776725704316e-05,6.558201130246744e-05
-3.7493231502594426e-05,1.7893349649966694e-05,1.666580828896258e-05,-2.4291253794217482e-05,6.399547419277951e-05
-3.4884480555774644e-05,1.8639677364262752e-05,1.8133707271772437e-05,-2.1258550987113267e-05,5.8923655160469934e-05
-3.378434121259488e-05,1.888959923235234e-05,1.635442822589539e-05,-1.67033686011564e-05,5.3092691814526916e-05
-2.8691802071989514e-05,2.2380709197022952e-05,1.8185155568062328e-05,-1.1529362382134423e-05,5.265225263428874e-05
-1.7793618098949082e-05,1.9087745386059396e-05,1.9160908777848817e-05,-6.831928203610005e-06,5.4151056247064844e-05
-7.557953267678386e-06,1.0936367289104965e-05,1.6253494322882034e-05,-2.9885293315601302e-06,5.1595150580396876e-05
-5.821060767630115e-06,1.3025380212638993e-05,1.2473235983634368e-05,1.013132191474142e-06,4.866802191827446e-05
-8.108750080282334e-06,2.2192618416738696e-05,1.0737770026025828e-05,2.647369683472789e-06,4.508529673330486e-05
-1.4561180250893813e-05,2.942215360235423e-05,8.143299055518582e-06,4.420136974658817e-06,4.198334499960765e-05
-3.3091724617406726e-05,3.856978946714662e-05,6.433598173316568e-06,6.826636308687739e-06,4.0449449443258345e-05
-5.6455264711985365e-05,5.021501056035049e-05,8.121580322040245e-06,8.181247721950058e-06,3.7843623431399465e-05
-7.543456013081595e-05,5.4659696615999565e-05,9.455579856876284e-06,4.749651907332009e-06,3.690272569656372e-05
-8.810639701550826e-05,5.2487568609649315e-05,8.666728717798833e-06,-7.373836297119851e-07,3.8786376535426825e-05
-8.840667578624561e-05,5.064842844149098e-05,7.999622539500706e-06,-3.113238108198857e-06,4.02921432396397e-05
-7.506950350943953e-05,5.455166319734417e-05,9.569313988322392e-06,-3.465764393695281e-06,4.01425058953464e-05
-5.7071996707236394e-05,5.919919567531906e-05,1.100023200706346e-05,-3.827628916042158e-06,4.0058719605440274e-05
-4.035593519802205e-05,5.656657231156714e-05,1.130391228798544e-05,-6.34581647318555e-06,4.060840728925541e-05
-2.4174205464078113e-05,5.1396171329542994e-05,1.2082403372914996e-05,-9.098404007090721e-06,4.305928450776264e-05
-8.381175575777888e-06,4.996001371182501e-05,1.4173309864418115e-05,-9.221822438121308e-06,5.2780356782022864e-05
5.158740805200068e-06,4.592146797222085e-05,1.4367444236995652e-05,-3.3335836633341387e-06,7.175086648203433e-05
1.095429888664512e-05,2.9444188839988783e-05,1.218642410094617e-05,2.1357373043429106e-06,9.363350545754656e-05
5.53487097931793e-06,2.330992856514058e-06,9.263562787964474e-06,2.023082288360456e-06,0.00010564885451458395
-2.8919591841258807e-06,-2.323397529835347e-05,5.151627192390151e-06,3.1207480333250714e-07,0.0001023708755383268
-6.890280928928405e-06,-3.435668986639939e-05,2.3262236936716363e-06,-2.9705992332651476e-08,9.213126031681895e-05
-1.0212866982328705e-05,-2.607347232697066e-05,2.551263605710119e-06,-1.6248020529019414e-06,8.248906669905409e-05
-1.8651104255695827e-05,-8.603190508438274e-06,-1.2898397017124807e-06,-2.59546072811645e-06,7.705223833909258e-05
-2.8745016606990248e-05,1.1615958101174328e-05,-9.873489034362137e-06,-3.2619984722259687e-06,7.47306112316437e-05
-2.8483995265560225e-05,3.8607697206316516e-05,-1.6145406334544532e-05,-1.6629373931209557e-06,7.242256833706051e-05
-1.735309706418775e-05,6.792708154534921e-05,-1.733268072712235e-05,7.9941111152948e-07,7.258621917571872e-05
-9.072087777894922e-06,9.100722672883421e-05,-9.188935109705199e-06,-2.017638962570345e-06,7.479077612515539e-05
-1.248053990821063e-06,9.841804421739653e-05,5.622947810479673e-06,-1.806039449547825e-06,7.353901310125366e-05
1.1639825061138254e-05,7.761314191156998e-05,1.7091442714445293e-05,6.087248038966209e-07,7.21432879799977e-05
2.2978143533691764e-05,2.8232814656803384e-05,2.2898317183717154e-05,-4.415589671680209e-07,7.406129589071497e-05
2.6916666683973745e-05,-1.278147738048574e-05,2.5260200345655903e-05,-2.678533974176389e-06,7.588397420477122e-05
2.1932151867076755e-05,-1.6082787624327466e-05,2.4780323656159453e-05,-9.601701549399877e-07,7.341985474340618e-05
1.1768564945668913e-05,2.663803684299637e-07,2.2447096853284165e-05,5.66220569453435e-06,6.940514867892489e-05
1.661473220337939e-06,1.4237147297535557e-05,1.5593621355947107e-05,1.0400775863672607e-05,6.91478417138569e-05
-5.151732693775557e-06,2.4783350454526953e-05,2.362000941502629e-06,1.12421785161132e-05,6.952400144655257e-05
-6.893025783938356e-06,3.3390439057257026e-05,-9.832118848862592e-06,8.902437912183814e-06,6.6777465690393e-05
-9.924716323439498e-06,3.515964999678545e-05,-1.3591267816082109e-05,6.261041562538594e-06,6.321635737549514e-05
-1.6170512026292272e-05,3.079974703723565e-05,-1.0177364856645e-05,5.504569799086312e-06,6.23126034042798e-05
-1.7157311958726496e-05,2.3160368073149584e-05,-1.8753448784991633e-06,7.674490007048007e-06,6.225756806088611e-05
-1.60385861818213e-05,1.7731854313751683e-05,9.040601071319543e-06,9.840494385571219e-06,6.181967910379171e-05
-2.4676557586644776e-05,1.913285450427793e-05,1.7925593056133948e-05,8.735841220186558e-06,5.990957288304344e-05
-4.2733281588880345e-05,2.3423383026965894e-05,1.9976603653049096e-05,3.2733237276261207e-06,5.7924284192267805e-05
-5.6292123190360144e-05,2.5888613890856504e-05,1.6935566236497834e-05,-4.922995685774367e-06,5.895750655326992e-05
-5.535944364964962e-05,2.6046815037261695e-05,1.236266689375043e-05,-1.2130327377235517e-05,6.113391282269731e-05
-4.292606536182575e-05,2.425065031275153e-05,6.254123491089558e-06,-1.7074929928639904e-05,6.218746420927346e-05
-3.134675353066996e-05,2.6742589398054406e-05,1.2887958291685209e-06,-2.075567863357719e-05,6.20035789324902e-05
-2.7836442313855514e-05,3.610779094742611e-05,-8.858928879362793e-08,-2.2118958440842107e-05,5.9692432841984555e-05
-3.2208488846663386e-05,4.487881960812956e-05,1.089736770154559e-06,-1.9859457097481936e-05,5.4923111747484654e-05
-3.621240102802403e-05,4.7321947931777686e-05,3.2021944207372144e-06,-1.6713833247194998e-05,5.166560003999621e-05
-3.57259668817278e-05,4.272341539035551e-05,2.854958893294679e-06,-1.4790078239457216e-05,5.2410970965866e-05
-3.672374805319123e-05,3.532295158947818e-05,-1.7145720221378724e-06,-1.5539291780442e-05,5.209191294852644e-05
-3.911890962626785e-05,2.8518688850454055e-05,-6.205540103110252e-06,-1.9467859601718374e-05,5.014442285755649e-05
-4.003071444458328e-05,2.979917189804837e-05,-6.841505182819674e-06,-2.2899901523487642e-05,5.1470098696881905e-05
-3.615032255765982e-05,3.5488625144353136e-05,-6.315667178569129e-06,-2.3057586076902226e-05,5.13176855747588e-05
-2.5421659302082844e-05,3.760835897992365e-05,-9.198158295475878e-06,-2.2141268345876597e-05,4.912052827421576e-05
-1.3617684089695103e-05,3.99771161028184e-05,-7.938437192933634e-06,-1.788255940482486e-05,5.138429696671665e-05
-3.98292195313843e-06,3.52754068444483e-05,2.6889795208262512e-06,-1.1706829354807269e-05,5.59360341867432e-05
-1.2169809906481532e-06,1.793731098587159e-05,1.2060935659974348e-05,-9.072978173207957e-06,6.080559978727251e-05
-1.4272341104515363e-05,4.978490323992446e-06,1.5793628335813992e-05,-1.2049837096128613e-05,6.054331606719643e-05
-3.279263182776049e-05,1.123737183661433e-05,1.7856018530437723e-05,-1.280125343328109e-05,5.539081394090317e-05
-4.145470666117035e-05,2.0413064703461714e-05,1.6616486391285434e-05,-1.1385981451894622e-05,5.514668009709567e-05
-3.807717439485714e-05,2.1542124159168452e-05,8.964993867266458e-06,-1.2988816706638318e-05,5.7208155340049416e-05
-3.233149618608877e-05,2.083221079374198e-05,3.5516728758011595e-07,-1.6250345652224496e-05,5.581561345024966e-05
-3.602100332500413e-05,2.0395134924910963e-05,-1.6241677940342925e-06,-1.8609311155159958e-05,5.352915104595013e-05
-4.795468339580111e-05,1.9699280528584495e-05,3.6459432521951385e-06,-1.942086237249896e-05,5.688329110853374e-05
-5.572245572693646e-05,1.8394315702607855e-05,1.0179589480685536e-05,-2.0346027667983435e-05,6.28185152891092e-05
-5.4761192586738616e-05,1.670826895860955e-05,1.123181118600769e-05,-2.2695814550388604e-05,6.549740646732971e-05
-5.187877104617655e-05,1.1968892977165524e-05,8.761229764786549e-06,-2.8241673135198653e-05,6.403770385077223e-05
-4.958346835337579e-05,7.042894139885902e-06,9.486338967690244e-06,-3.140275293844752e-05,6.360354018397629e-05
-4.232046194374561e-05,6.053405741113238e-06,1.2552601219795179e-05,-2.8432168619474396e-05,6.584834773093462e-05
-3.063237090827897e-05,1.0845565157069359e-05,1.2305329619266558e-05,-2.5921872293110937e-05,6.62841193843633e-05
-2.8611715606530197e-05,2.003604095079936e-05,1.0092260708916001e-05,-2.9621873181895353e-05,6.30959402769804e-05
-3.897782517015003e-05,3.10779178107623e-05,8.398637874051929e-06,-3.559046672307886e-05,5.611997039522976e-05
-4.721513687400147e-05,4.0100236219586805e-05,5.4989595810184255e-06,-3.760113031603396e-05,4.883113797404803e-05
-4.962893217452802e-05,4.2294490413041785e-05,1.5750749753351556e-06,-3.591253698687069e-05,4.3472475226735696e-05
-5.089237674837932e-05,4.035783786093816e-05,1.7114959405262198e-07,-3.582761200959794e-05,4.1581166442483664e-05
-4.626576992450282e-05,4.262088259565644e-05,1.0373454415457672e-06,-3.7124242226127535e-05,4.372427429188974e-05
-3.712365651153959e-05,4.910172719974071e-05,-3.3541101629452896e-07,-3.721780376508832e-05,4.7924670070642605e-05
-2.9519167583202943e-05,5.1681337936315686e-05,-2.90743309960817e-06,-3.53219875250943e-05,5.048924504080787e-05
-2.3632223019376397e-05,4.142457328271121e-05,-2.8086944894312182e-06,-3.050043414987158e-05,4.837556480197236e-05
-1.8172533600591123e-05,2.461754957039375e-05,4.936929975940529e-09,-2.5046483642654493e-05,4.883138171862811e-05
-4.192819687887095e-06,1.7849470168584958e-05,2.273550308018457e-06,-2.2723274014424533e-05,5.034191781305708e-05
1.0490705790289212e-05,2.219892485300079e-05,6.332781595119741e-06,-1.600898031028919e-05,4.94563537358772e-05
8.020007953746244e-06,2.9464292310876772e-05,1.147553302871529e-05,-1.0367579307057895e-05,4.989542503608391e-05
-7.306860879907617e-06,3.3922835427802056e-05,1.1604802239162382e-05,-8.098812031676061e-06,4.9756003136280924e-05
-2.2614742192672566e-05,3.483078398858197e-05,1.0405248758615926e-05,-5.905540092498995e-06,5.088451143819839e-05
-2.5354011086164974e-05,3.33498464897275e-05,1.0713029041653499e-05,-9.685664736025501e-06,5.521658749785274e-05
-1.908016565721482e-05,2.8379929062793963e-05,1.392103422404034e-05,-1.3072329238639213e-05,6.145445513539016e-05
-1.3841418876836542e-05,2.4541732273064554e-05,1.662873910390772e-05,-1.2971884643775411e-05,6.266309355851263e-05
-2.0267038053134456e-05,2.852405668818392e-05,1.167769733001478e-05,-1.3084878446534276e-05,5.8792811614694074e-05
-3.7116587918717414e-05,3.985027433373034e-05,-2.9036218052169716e-07,-1.554529990244191e-05,5.171696102479473e-05
-5.222432082518935e-05,5.281416088109836e-05,-9.75821603788063e-06,-1.6367455828003585e-05,4.710261055151932e-05
-5.848968430655077e-05,5.7957495300797746e-05,-9.814699296839535e-06,-1.666280695644673e-05,4.697375698015094e-05
-5.508364483830519e-05,4.797998917638324e-05,-3.8056796256569214e-06,-1.80959832505323e-05,5.139556742506102e-05
-4.419202741701156e-05,2.9250591978779994e-05,2.2612775865127333e-06,-2.200860035372898e-05,5.7938770623877645e-05
-3.036507587239612e-05,2.3491191313951276e-05,6.7517453317123e-06,-2.7030828277929686e-05,6.291060708463192e-05
-2.2887057639309205e-05,3.821952850557864e-05,1.084859195543686e-05,-3.070516686420888e-05,6.727356958435848e-05
-2.2334172172122635e-05,5.342088479665108e-05,1.3868286259821616e-05,-3.267031206632964e-05,6.906254566274583e-05
-2.4237380785052665e-05,5.419769513537176e-05,1.562663965160027e-05,-3.437769555603154e-05,6.758053496014327e-05
-2.4486274924129248e-05,4.987501961295493e-05,1.5080596313055139e-05,-3.371750426595099e-05,6.36642798781395e-05
-2.2544883904629387e-05,5.1871862524421886e-05,1.3523587767849676e-05,-2.7268317353446037e-05,5.930871338932775e-05
-2.0832918380619958e-05,5.605004116659984e-05,1.3044878869550303e-05,-1.9313101802254096e-05,5.583287565968931e-05
-2.2502073989016935e-05,5.7808425481198356e-05,1.519680972705828e-05,-1.3331985428521875e-05,5.751757635152899e-05
-2.2468006136477925e-05,5.339651761460118e-05,1.57425893121399e-05,-9.015226169140078e-06,6.181280332384631e-05
-1.4683469089504797e-05,3.915574052371085e-05,1.3792320714856032e-05,-2.1046414531156188e-06,6.640319770667702e-05
-1.989789780054707e-06,2.681508703972213e-05,1.3649014363181777e-05,5.949055321252672e-06,7.262651342898607e-05
6.077632406231714e-06,2.284360925841611e-05,1.261820307263406e-05,7.99962435849011e-06,8.489506581099704e-05
2.03626814254676e-06,2.108323315042071e-05,9.091084393730853e-06,7.479896339646075e-06,9.54805436776951e-05
-1.0089072020491585e-05,2.36341220443137e-05,6.211160325619858e-06,1.1798428204201628e-05,9.087380021810532e-05
-2.2462834749603644e-05,3.2276588171953335e-05,6.259182100620819e-06,1.4636704690929037e-05,7.230756455101073e-05
-2.8329359338385984e-05,3.707844371092506e-05,5.437661002360983e-06,1.2927990610478446e-05,4.927207555738278e-05
-2.1922147425357252e-05,3.1468771339859813e-05,2.149372221538215e-06,9.801665328268427e-06,2.9529634048230946e-05
-1.2258419701538514e-05,1.4496100448013749e-05,9.687980764283566e-07,5.1888159759982955e-06,1.7852999008027837e-05
-5.6634421525814105e-06,-1.5976951544871554e-05,2.4385306005569873e-06,-1.2793435644198325e-06,1.7295480574830435e-05
-1.118517047871137e-06,-5.251579204923473e-05,4.137585619901074e-06,-5.905867510591634e-06,2.491871600796003e-05
2.288690268414939e-07,-7.282448495971039e-05,4.944674401485827e-06,-6.261559065023903e-06,3.659177673398517e-05
-3.332475216666353e-06,-6.7365457653068e-05,4.0592481127532665e-06,-1.2301578635742771e-06,4.459976844373159e-05
-1.2357339073787443e-05,-4.6259032387752086e-05,1.687537746875023e-06,6.3705770116939675e-06,4.590438766172156e-05
-2.117585245287046e-05,-2.1206269593676552e-05,-3.7916839801255264e-07,9.071147360373288e-06,4.2942243453580886e-05
-2.3033891920931637e-05,8.168110070982948e-06,-1.6373120388379903e-06,6.2885442275728565e-06,3.926750650862232e-05
-2.0024859622935764e-05,4.349895243649371e-05,-3.104085863014916e-06,2.9919387998234015e-06,4.007573443232104e-05
-1.3691530512005556e-05,7.701401045778766e-05,-3.597713657654822e-06,2.2419621927838307e-06,4.5455544750439e-05
-2.7217761271458585e-06,9.674996545072645e-05,-1.9009269180969568e-06,2.4777029921096982e-06,5.283538484945893e-05
8.36300114315236e-06,8.891511242836714e-05,2.167331103919423e-06,5.751284675170609e-07,6.0463964473456144e-05
1.287284612772055e-05,5.290885383146815e-05,7.475195161532611e-06,-2.0439222225832054e-06,6.705980194965377e-05
7.838577403163072e-06,9.836157005338464e-06,9.514142220723443e-06,-4.731640274258098e-06,7.14408524800092e-05
-4.0180245264309633e-07,-2.268551179440692e-05,6.730952918587718e-06,-1.0953342098218855e-05,7.392876432277262e-05
-5.734255410061451e-06,-4.434344737092033e-05,5.196007350605214e-06,-1.741825690260157e-05,7.443012873409316e-05
-9.25663516682107e-06,-5.1578503189375624e-05,9.27861674426822e-06,-1.659306144574657e-05,7.197316881502047e-05
-1.4337676475406624e-05,-3.612510772654787e-05,1.1696855835907627e-05,-1.0779852345876861e-05,6.919293809914961e-05
-1.7382693840772845e-05,-4.508722213358851e-06,7.252407158375718e-06,-6.4040495999506675e-06,6.854486127849668e-05
-1.755560515448451e-05,2.110637979058083e-05,3.024026682396652e-06,-8.588005584897473e-06,7.179217209341004e-05
-1.769275331753306e-05,3.335239307489246e-05,1.8763943216981716e-06,-1.3044704246567562e-05,7.444259972544387e-05
-1.7878381186164916e-05,3.625609679147601e-05,-3.6424924587663554e-07,-8.769011401454918e-06,6.993053830228746e-05
-2.173814755224157e-05,3.65373634849675e-05,-3.5153846056346083e-06,-3.141641855108901e-06,6.335862417472526e-05
-3.280647433712147e-05,4.1065781260840595e-05,-3.845570972771384e-06,1.232789088589925e-07,6.174029840622097e-05
-4.540120062301867e-05,5.395128027885221e-05,-1.0588315291215622e-07,6.0511811170727015e-06,6.640855281148106e-05
-5.2091872930759564e-05,7.349906809395179e-05,4.837688720726874e-06,1.4066277799429372e-05,7.225790614029393e-05
-5.2885294280713424e-05,9.454251267015934e-05,7.11469101588591e-06,1.9935310774599202e-05,7.484430534532294e-05
-5.404911280493252e-05,0.0001042381627485156,6.899341769894818e-06,2.0588755432981998e-05,7.189079042291269e-05
-5.755636084359139e-05,0.00010004320211010054,5.5645068641752005e-06,1.6644204151816666e-05,6.618732732022181e-05
-6.166975799715146e-05,9.12723335204646e-05,3.8926104934944306e-06,9.341108125227038e-06,5.9610712924040854e-05
-5.954409425612539e-05,8.153754606610164e-05,2.728537083385163e-06,4.732851266453508e-06,5.481429252540693e-05
-5.198935104999691e-05,7.069627463351935e-05,6.016700808686437e-07,3.7035683817521203e-06,5.431706813396886e-05
-4.626584268407896e-05,5.1358405471546575e-05,-3.10122550217784e-06,4.2206343096040655e-06,5.853956827195361e-05
-4.393976632854901e-05,2.5893796191667207e-05,-6.434140232158825e-06,6.101806320657488e-06,6.326237780740485e-05
-4.4597385567612946e-05,5.562932074099081e-06,-8.045770300668664e-06,7.22412733011879e-06,6.566963566001505e-05
-4.567755604512058e-05,2.1106961867189966e-06,-6.157760708447313e-06,6.7573664637166075e-06,6.6892069298774e-05
-4.452017310541123e-05,1.2140736544097308e-05,-1.3151252460374963e-06,7.478560746676521e-06,6.312287587206811e-05
-4.482998338062316e-05,2.1417294192360714e-05,1.3724447853746824e-06,8.902396075427532e-06,5.549207344301976e-05
-4.689466368290596e-05,2.292094904987607e-05,1.5055329427582365e-08,8.880053428583778e-06,4.8222096665995196e-05
-4.398252713144757e-05,2.217773362644948e-05,-1.106782633542025e-06,8.705549589649308e-06,4.1357827285537496e-05
-3.7253110349411145e-05,2.655983917065896e-05,9.772222711035283e-07,6.123862476670183e-06,3.5715238482225686e-05
-3.186495814588852e-05,3.365722295711748e-05,2.915913910328527e-06,-1.1039482927799327e-07,4.1175346268573776e-05
-2.86912818410201e-05,3.650498911156319e-05,4.4079952203901485e-06,-6.247259534575278e-06,6.339175888570026e-05
-2.821106681949459e-05,3.6531630030367523e-05,5.575344403041527e-06,-1.3901792954129633e-05,8.961725689005107e-05
-2.9011232982156798e-05,3.523534905980341e-05,5.655977474816609e-06,-2.4878238036762923e-05,0.00010004638897953555
-2.7155520001542754e-05,3.204088352504186e-05,4.156245722697349e-06,-3.2294788979925215e-05,9.529027011012658e-05
-2.3472923203371465e-05,3.2082738471217453e-05,6.185907750477782e-07,-3.2313328119926155e-05,8.738272299524397e-05
-1.67575926752761e-05,3.4991571737919e-05,-1.5369586208180408e-06,-2.7551044695428573e-05,8.182993769878522e-05
-8.388431524508633e-06,3.5778935853159055e-05,-1.4827988934484893e-06,-2.2203677872312255e-05,7.512459706049412e-05
2.5917689328025517e-08,3.341036062920466e-05,7.80959624080424e-07,-1.6614028936601244e-05,6.769082392565906e-05
5.6444087022100575e-06,2.9487346182577312e-05,3.7478875469787454e-07,-1.3198545275372453e-05,6.584862421732396e-05
1.017319482343737e-05,1.7342978026135825e-05,-1.8790361764331465e-06,-1.2579856047523208e-05,6.74631301080808e-05
7.900236596469767e-06,3.5097104955639224e-07,3.168302953326929e-07,-9.274242984247394e-06,6.586917879758403e-05
-3.6818044009123696e-06,-4.808916401088936e-06,6.6395459725754336e-06,-1.727835638121178e-06,6.28774578217417e-05
-1.6159967344719917e-05,-3.365111354014516e-07,1.3474284060066566e-05,5.481585503730457e-06,5.961566785117611e-05
-2.7121503080707043e-05,6.462789315264672e-06,1.6375042832805775e-05,6.9265711317711975e-06,5.704994691768661e-05
-3.5537901567295194e-05,1.2890558537037577e-05,1.4635898878623266e-05,4.266156338417204e-06,5.573713860940188e-05
-4.177652226644568e-05,1.679779052210506e-05,1.56926762429066e-05,1.7049432017302024e-06,5.695825529983267e-05
-4.266250834916718e-05,2.021213913394604e-05,2.1017243852838874e-05,-3.3542360711180663e-07,5.97770485910587e-05
-3.7063062336528674e-05,2.432271503494121e-05,2.020981628447771e-05,-3.0438934572885046e-06,5.907098966417834e-05
-2.5025878130691126e-05,3.2493218895979226e-05,1.396775678585982e-05,-3.8662319639115594e-06,5.620107185677625e-05
-1.47448754432844e-05,4.3472900870256126e-05,8.143371815094724e-06,-7.779883617331507e-07,5.1163489843020216e-05
-1.258138581761159e-05,5.57602834305726e-05,4.814367912331363e-06,2.4569660581619246e-06,4.467347025638446e-05
-1.7564883819431998e-05,6.663412204943597e-05,3.984803697676398e-06,1.0876631222345168e-06,3.96393115806859e-05
-2.2985925170360133e-05,7.35092326067388e-05,5.611086635326501e-06,-5.309449079504702e-06,4.039199848193675e-05
-2.3784694349160418e-05,6.801393465138972e-05,8.365816029254347e-06,-1.2740131751343142e-05,4.738308780360967e-05
-2.3869890355854295e-05,4.591649485519156e-05,8.857644388626795e-06,-1.643099130888004e-05,5.182707172934897e-05
-2.9681998057640158e-05,2.092657086905092e-05,5.189683179196436e-06,-2.04600983124692e-05,5.07100994582288e-05
-4.073901072843e-05,1.3007374036533292e-05,-6.759095185771002e-07,-3.133401696686633e-05,4.9473586841486394e-05
-4.784479824593291e-05,2.483484786353074e-05,-3.074436563110794e-06,-4.895273377769627e-05,5.112536018714309e-05
-4.473605440580286e-05,3.7260451790643856e-05,4.296633804301564e-08,-6.861683505121619e-05,5.468951349030249e-05
-3.4833403333323076e-05,4.095295662409626e-05,6.6596926444617566e-06,-7.196942897280678e-05,5.4613588872598484e-05
-2.6616613467922434e-05,4.050300412927754e-05,1.3831041542289313e-05,-4.9122707423521206e-05,5.047015656600706e-05
-1.7226966519956477e-05,2.6279005396645516e-05,1.5503908798564225e-05,-2.458370909153018e-05,5.017588773625903e-05
-4.345254183135694e-06,-3.238662202420528e-06,1.0780562661238946e-05,-1.537900243420154e-05,5.5905642511788756e-05
5.602326382359024e-06,-2.029135066550225e-05,9.464555660088081e-06,-1.5185218217084184e-05,6.306228169705719e-05
6.7033988671028055e-06,-5.427683845482534e-06,9.962707736121956e-06,-1.4223684047465213e-05,6.324134301394224e-05
-2.7427447548689088e-06,2.203976509917993e-05,3.4635932024684735e-06,-5.634895842376864e-06,5.651767787639983e-05
-1.9703338693943806e-05,3.332278356538154e-05,-4.70807981400867e-06,3.8176112866494805e-06,5.270225301501341e-05
-3.3226897357963026e-05,3.4809661883627996e-05,-7.74951149651315e-06,7.41941221349407e-06,5.075723311165348e-05
-4.143049955018796e-05,3.053007094422355e-05,-6.836398370069219e-06,5.971926384518156e-06,5.027377847000025e-05
-4.8856280045583844e-05,2.2730109776603058e-05,-2.2588358206121484e-06,9.928994586516637e-07,5.2729279559571296e-05
-5.2456147386692464e-05,1.5533540135947987e-05,4.0926361180027016e-06,-2.086336962747737e-06,6.087938527343795e-05
-5.025151767767966e-05,1.1020293641195167e-05,6.855719220766332e-06,-3.060433073187596e-06,6.901376036694273e-05
-4.2403495172038674e-05,8.15081330074463e-06,8.370515388378408e-06,-3.4712736578512704e-06,7.463956717401743e-05
-3.2792075217003e-05,3.204841334536468e-07,1.3598611076304223e-05,-3.6132546483713668e-06,7.89882687968202e-05
-2.9848262784071267e-05,-6.662231953669107e-06,1.94305794138927e-05,-6.713285529258428e-06,8.001273818081245e-05
-3.901636955561116e-05,-5.550707555812551e-06,2.1360639948397875e-05,-9.200538443110418e-06,7.718530105194077e-05
-5.633903492707759e-05,6.263660452532349e-06,1.725138645269908e-05,-1.171238091046689e-05,7.221857958938926e-05
-7.036894385237247e-05,2.250427132821642e-05,1.195061304315459e-05,-1.5202105714706704e-05,6.509455852210522e-05
-7.13690315023996e-05,3.694353290484287e-05,9.805909940041602e-06,-1.8812732378137298e-05,5.179860818316229e-05
-6.088894224376418e-05,4.6984092477941886e-05,9.270124792237766e-06,-2.1306170310708694e-05,3.8212237996049225e-05
-4.950633228872903e-05,5.220384264248423e-05,9.89535419648746e-06,-2.2943600924918428e-05,3.269980879849754e-05
-4.361623723525554e-05,5.221964602242224e-05,1.067820267053321e-05,-2.3077633159118704e-05,3.371891943970695e-05
-3.8664362364215776e-05,4.773010005010292e-05,8.142094884533435e-06,-1.788197914720513e-05,3.759195169550367e-05
-3.500340972095728e-05,4.1221632272936404e-05,3.979306711698882e-06,-1.128808162320638e-05,4.349583468865603e-05
-3.657603156170808e-05,3.770037801587023e-05,2.3752127162879333e-06,-1.2109748240618501e-05,4.608203744282946e-05
-3.9409234886989e-05,3.963497874792665e-05,1.7525976545584854e-06,-2.2854399503557943e-05,4.5046261220704764e-05
-3.889264917233959e-05,3.914756962331012e-05,-6.58791918795032e-07,-3.3901520509971306e-05,4.6198216296033934e-05
-3.509362068143673e-05,3.314503555884585e-05,-2.0872535060334485e-06,-3.6677534808404744e-05,5.3525327530223876e-05
-2.8606134947040118e-05,2.9583157811430283e-05,2.4558426048315596e-07,-3.397541877347976e-05,6.22341685811989e-05
-2.8200605811434798e-05,3.240742444177158e-05,1.710866968096525e-06,-3.246956111979671e-05,6.442537414841354e-05
-3.3487962355138734e-05,3.6743967939401045e-05,1.6507134432686144e-06,-3.1388462957693264e-05,6.230528379091993e-05
-2.9631139113917015e-05,3.5079017834505066e-05,1.7021428675434436e-06,-2.8785660106223077e-05,6.311805918812752e-05
-2.0196366676827893e-05,3.46997294400353e-05,3.3175726912304526e-06,-1.9743696611840278e-05,6.284086703089997e-05
-1.4343916518555488e-05,3.834705421468243e-05,6.860500889160903e-06,-5.181665073905606e-06,5.8732442994369194e-05
-1.8761258615995757e-05,3.654021566035226e-05,8.582333066442516e-06,6.390299859049264e-06,5.294314178172499e-05
-2.8047923478879966e-05,3.079364250879735e-05,7.2355774136667605e-06,1.1761120731534902e-05,4.600325337378308e-05
-2.6536510631558485e-05,3.0721417715540156e-05,8.908406016416848e-06,1.1696193723764736e-05,3.8078531360952184e-05
-1.3168105397198815e-05,3.550752080627717e-05,1.1776164683396928e-05,1.3360383491090033e-05,3.543632919900119e-05
5.344148576114094e-06,3.031894266314339e-05,1.1910541616089176e-05,1.8940691006719135e-05,3.788276080740616e-05
2.3529448299086653e-05,1.3480935194820631e-05,1.1820164218079299e-05,2.169366052839905e-05,4.6272707550087944e-05
3.49597139575053e-05,-6.8557692429749295e-06,8.405613698414527e-06,1.8291990272700787e-05,5.799078644486144e-05
3.699828084791079e-05,-2.1492309315362945e-05,3.0599003366660327e-06,1.129992597270757e-05,6.752189074177295e-05
3.4032542316708714e-05,-2.776972542051226e-05,-1.1049316981370794e-06,5.26923986399197e-06,7.16882204869762e-05
2.673386006790679e-05,-2.4879094780771993e-05,-2.650789838298806e-06,1.378572136445655e-07,7.037996692815796e-05
1.4601865586882923e-05,-1.4480540812655818e-05,-1.2416853678587358e-06,-5.561127636610763e-06,6.918480357853696e-05
-2.1116288735356648e-06,7.060991720209131e-07,2.4978144210763276e-06,-7.0337296165234875e-06,6.573420978384092e-05
-1.978900036192499e-05,1.636453453102149e-05,5.062257969257189e-06,-2.6220591280434746e-06,6.180411583045498e-05
-3.0690720450365916e-05,2.0762277927133255e-05,6.0384559219528455e-06,-2.105217618009192e-06,6.131279951659963e-05
-3.32299605361186e-05,1.5877458281465806e-05,6.917716746102087e-06,-1.1810830983449705e-05,6.32601513643749e-05
-3.0390123356482945e-05,2.0421637600520626e-05,6.682672392344102e-06,-2.2554771931027062e-05,6.458032294176519e-05
-2.630795461300295e-05,3.726823706529103e-05,3.6719288800668437e-06,-2.5154920876957476e-05,6.628618575632572e-05
-2.6065074052894488e-05,5.0813927373383194e-05,-1.8050488961307565e-06,-2.3293167032534257e-05,6.699942605337128e-05
-2.6957923182635568e-05,6.0747042880393565e-05,-6.0643824326689355e-06,-2.1941888917353936e-05,6.845848838565871e-05
-2.4017370378714986e-05,7.109395664883777e-05,-8.72671080287546e-06,-2.5577721316949464e-05,7.12381224730052e-05
-1.9864020941895433e-05,7.186590664787218e-05,-1.1489281860121991e-05,-3.425664544920437e-05,7.130105950636789e-05
-1.812379196053371e-05,5.603897443506867e-05,-1.547852843941655e-05,-4.05836763093248e-05,6.793326610932127e-05
-1.5917492419248447e-05,3.260408993810415e-05,-1.5926187188597396e-05,-3.991488483734429e-05,6.430268695112318e-05
-1.628844256629236e-05,1.6314983440679498e-05,-1.0042673238785937e-05,-3.4365966712357476e-05,6.209796265466139e-05
-2.7824466087622568e-05,1.014488771033939e-05,-5.401259386417223e-06,-2.949074587377254e-05,5.894152491237037e-05
-4.199678005534224e-05,6.0758457038900815e-06,-6.453743026213488e-06,-2.4264827516162768e-05,5.714327926398255e-05
-5.187471106182784e-05,6.862620921310736e-06,-8.744177648623008e-06,-1.8803159036906436e-05,6.057227074052207e-05
-5.339995550457388e-05,1.613462700333912e-05,-9.16513818083331e-06,-1.5651112335035577e-05,6.358472455758601e-05
-4.7546862333547324e-05,2.116723590006586e-05,-9.955135283234995e-06,-1.4488768101728056e-05,6.544539792230353e-05
-4.294456812203862e-05,1.1160883332195226e-05,-1.2463376151572447e-05,-1.2146547305746935e-05,6.773628410883248e-05
-3.9371148886857554e-05,2.4549919999117265e-06,-1.3804253285343293e-05,-7.442422429448925e-06,6.637239857809618e-05
-4.2864990973612294e-05,1.1402178643038496e-05,-1.1785805327235721e-05,-3.620433062678785e-06,6.03603693889454e-05
-5.1945768063887954e-05,2.953298098873347e-05,-5.745696398662403e-06,3.430177230256959e-06,5.570942448684946e-05
-5.586555926129222e-05,3.993087011622265e-05,2.8655815640377114e-06,1.2145548680564389e-05,5.340471398085356e-05
-5.019425952923484e-05,4.0452465327689424e-05,7.984815056261141e-06,1.4918041415512562e-05,5.246747605269775e-05
-3.937285509891808e-05,3.9618123992113397e-05,4.851569428865332e-06,1.2357976629573386e-05,5.191477612243034e-05
-3.0510649594361894e-05,4.377311415737495e-05,-7.000454047556559e-07,6.867235697427532e-06,5.016838258598e-05
-2.6287038053851575e-05,5.415397754404694e-05,-2.0407626379892463e-06,6.390483804352698e-07,4.818841262022033e-05
-2.4514820324839093e-05,6.399041012628004e-05,2.972936272271909e-06,-1.2177167718618875e-06,4.48637074441649e-05
-2.387670610914938e-05,6.50816728011705e-05,1.1696362889779266e-05,1.9326839719724376e-06,4.287087722332217e-05
-2.671285801625345e-05,5.7601289881858975e-05,2.0959203538950533e-05,5.105240234115627e-06,4.472642467590049e-05
-3.374793232069351e-05,4.797950168722309e-05,2.6406358301755972e-05,5.626562142424518e-06,4.588411684380844e-05
-4.1709005017764866e-05,3.8517544453497976e-05,2.683629463717807e-05,3.9843603190092836e-06,4.336000347393565e-05
-4.535369953373447e-05,2.985587707371451e-05,2.582476918178145e-05,1.7830313936428865e-06,4.0866230847314e-05
-4.568107397062704e-05,2.4965605916804634e-05,2.450544707244262e-05,5.143762109582894e-07,3.8556336221517995e-05
-4.4352509576128796e-05,2.4366197976632975e-05,1.9925761080230586e-05,1.871711816647803e-07,3.9414589991793036e-05
-3.735951395356096e-05,2.4565049898228608e-05,1.2456649528758135e-05,1.5720419241915806e-06,4.140336750424467e-05
-2.4487289920216426e-05,2.3903070541564375e-05,8.18249009171268e-06,7.132267910492374e-06,3.741183172678575e-05
-1.3184921044739895e-05,2.2959018679102883e-05,6.335083526209928e-06,1.1116569112346042e-05,3.265378836658783e-05
-5.185769168747356e-06,2.489213329681661e-05,7.3952778620878235e-06,6.157645657367539e-06,4.219650509185158e-05
8.16944520920515e-08,2.8232398108229972e-05,1.1734937288565561e-05,9.562784271111013e-07,6.827308243373409e-05
-2.0496605301900672e-08,2.993628368130885e-05,1.899524431792088e-05,1.3339714541871217e-06,9.540474275127053e-05
-2.261932650071685e-06,3.370348349562846e-05,2.325155583093874e-05,1.0776320777949877e-06,0.0001028190745273605
-3.1506892810284626e-06,4.630401963368058e-05,2.0319408577051945e-05,4.240729367666063e-07,9.491401578998193e-05
-5.751956905442057e-06,6.191271677380428e-05,1.832792258937843e-05,1.3346269724934245e-06,8.481071563437581e-05
-1.5874657037784345e-05,7.229854963952675e-05,1.7909707821672782e-05,4.5083043005433865e-06,7.53110580262728e-05
-3.4291053452761844e-05,7.488817936973646e-05,1.8198927136836573e-05,5.331032298272476e-06,7.051496504573151e-05
-4.908215851173736e-05,6.823164585512131e-05,1.7903481420944445e-05,-6.913546002351723e-08,7.070520223351195e-05
-5.2674076869152486e-05,5.507418973138556e-05,1.5377918316517025e-05,-6.9068328230059706e-06,7.662168354727328e-05
-4.8162866733036935e-05,4.4153141061542556e-05,1.6034651707741432e-05,-1.1595720934565179e-05,8.692959818290547e-05
-4.070927025168203e-05,4.493293818086386e-05,1.9925344531657174e-05,-1.413029258401366e-05,9.351788321509957e-05
-3.2421492505818605e-05,5.260748366708867e-05,2.079473779303953e-05,-1.4944559552532155e-05,8.944446744862944e-05
-2.3843836970627308e-05,5.4340165661415085e-05,1.7322576240985654e-05,-1.460509065509541e-05,7.924704550532624e-05
-1.4168497727951035e-05,4.3254720367258415e-05,1.2736850294459146e-05,-1.2009015335934237e-05,6.940217281226069e-05
-6.139987817732617e-06,2.1399611796368845e-05,9.880192919808906e-06,-9.72745237959316e-06,6.536206637974828e-05
-8.245229764725082e-06,1.5497904541916796e-06,1.2398634680721443e-05,-9.744239832798485e-06,6.32986193522811e-05
-2.1761938114650548e-05,-6.505004421342164e-06,1.6109197531477548e-05,-9.725494237500243e-06,5.944220538367517e-05
-3.4378801501588896e-05,-5.883577614440583e-06,1.4448230103880633e-05,-9.043536920216866e-06,5.639875598717481e-05
-3.2021129300119355e-05,-4.991007699572947e-06,9.684026736067608e-06,-7.676659151911736e-06,5.625955236610025e-05
-1.6015812434488907e-05,-7.990899575816002e-06,6.965070951991947e-06,-8.018631888262462e-06,6.0662383475573733e-05
-1.8127600469597382e-06,-1.595571666257456e-05,4.328401701059192e-06,-1.1251172509219032e-05,6.783360004192218e-05
-1.3132038247931632e-06,-2.2908761820872314e-05,1.2516968581621768e-06,-1.66016943694558e-05,7.394703425234184e-05
-1.2647445146285463e-05,-1.7382284568157047e-05,-1.0827909591171192e-06,-1.9681367120938376e-05,7.46796649764292e-05
-2.3955401047714986e-05,-3.5617122193798423e-06,-3.1089066396816634e-06,-1.8767099390970543e-05,6.940936873434111e-05
-2.6152994905714877e-05,4.392875325720524e-06,-2.5696410830278182e-06,-1.6398025763919577e-05,6.177893374115229e-05
-2.1698278942494653e-05,5.01041586176143e-06,-1.7685972864001087e-07,-1.4730781913385727e-05,5.949313708697446e-05
-2.0445571863092482e-05,5.399261681304779e-06,2.27709642786067e-06,-1.7178082998725586e-05,6.024854155839421e-05
-2.2365573386196047e-05,9.714584848552477e-06,4.589602212945465e-06,-2.299921470694244e-05,5.9342943131923676e-05
-2.1702184312744066e-05,1.3577794561570045e-05,3.3639012144703884e-06,-2.4783614207990468e-05,5.5163582146633416e-05
-2.0801920982194133e-05,8.606073606642894e-06,-3.9196205392499905e-08,-1.9850956959999166e-05,4.9310907343169674e-05
