-3.009728061442729e-05,3.4815981052815914e-05,1.4013860891282093e-05,-1.7706688595353626e-05,4.78610563732218e-05
-2.748156475718133e-05,3.410051067476161e-05,1.3135492736182641e-05,-1.1093132343376055e-05,4.7436456952709705e-05
-2.544543349358719e-05,3.463359462330118e-05,8.16864485386759e-06,-8.206949132727459e-06,5.164977119420655e-05
-2.3568763936054893e-05,3.808434121310711e-05,6.914975074323593e-06,-8.612936653662473e-06,5.258002056507394e-05
-1.9615032215369865e-05,4.2940329876728356e-05,6.171142558741849e-06,-8.017616892175283e-06,5.223986954661086e-05
-2.005075839406345e-05,4.1501312807668e-05,4.388277375255711e-06,-5.981115464237519e-06,5.1029142923653126e-05
-2.8504839065135457e-05,3.81807803933043e-05,1.5311986771848751e-06,-6.4004607338574715e-06,5.0417627790011466e-05
-3.1854735425440595e-05,3.681000816868618e-05,2.089843292196747e-06,-1.2122416592319496e-05,5.102233626530506e-05
-2.200608651037328e-05,3.616202229750343e-05,4.828471446671756e-06,-1.7252301404369064e-05,5.340225834515877e-05
-6.279582976276288e-06,3.745497815543786e-05,3.744426749108243e-06,-1.745172994560562e-05,5.562272053794004e-05
1.0531940688451868e-06,3.488309448584914e-05,-9.720372418087209e-07,-1.622894524189178e-05,5.6525215768488124e-05
-5.757577582699014e-06,2.300357118656393e-05,-3.6131011711404426e-06,-1.5428197002620436e-05,5.597461495199241e-05
-1.9683286154759116e-05,1.2012890692858491e-05,-1.2007566283500637e-06,-1.5101585631782655e-05,5.3961754019837826e-05
-3.421988367335871e-05,1.0702002327889204e-05,3.3357730444549816e-06,-1.4071500118006952e-05,5.4665073548676446e-05
-4.6005799958948046e-05,1.6338201021426357e-05,7.498564627894666e-06,-1.0273223779222462e-05,5.7757457398111e-05
-4.918307240586728e-05,2.3009632059256546e-05,7.096526587702101e-06,-5.659579983330332e-06,6.210331048350781e-05
-4.4272790546528995e-05,2.5271729100495577e-05,1.980609795282362e-06,-3.101177753705997e-06,6.606559327337891e-05
-3.8968482840573415e-05,2.3477987269870937e-05,-1.5263160548784072e-06,-1.0191093906541937e-06,6.835794920334592e-05
-3.600076161092147e-05,2.2552003429154865e-05,1.927583070937544e-06,1.8247994830744574e-06,6.613281584577635e-05
-3.464527617325075e-05,2.458505696267821e-05,8.830921615299303e-06,3.5771770399151137e-06,6.221324292710051e-05
-3.417467087274417e-05,2.6292496841051616e-05,1.4993317563494202e-05,2.9904670100222575e-06,6.167070387164131e-05
-2.6538551537669264e-05,2.547251460782718e-05,1.8756472854875028e-05,-2.5362166979903122e-06,6.631119322264567e-05
-8.814757165964693e-06,2.4709999706828967e-05,1.7786160242394544e-05,-8.481592885800637e-06,7.253717922139913e-05
7.039492402327596e-07,2.4222090360126458e-05,1.4327621101983823e-05,-8.381839506910183e-06,7.346589700318873e-05
-1.0567200661171228e-05,2.4450308046652935e-05,1.205540138471406e-05,-6.842378752480727e-06,7.042775541776791e-05
-2.615385346871335e-05,3.025669684575405e-05,7.834722964616958e-06,-8.010322744667064e-06,6.656665209447965e-05
-3.15145225613378e-05,3.3298751077381894e-05,2.3197046630230034e-06,-9.653003871790133e-06,6.483590550487861e-05
-1.6083853552117944e-05,3.317462687846273e-05,-1.1157170547448914e-06,-1.0095343895955011e-05,6.449851207435131e-05
1.6468196918140166e-05,2.9418031772365794e-05,-2.367195520491805e-06,-8.66536265675677e-06,6.491603562608361e-05
4.5972828957019374e-05,1.9181105017196387e-05,-2.5635761176090455e-06,-5.300615157466382e-06,6.585658411495388e-05
4.826813528779894e-05,4.301479293644661e-06,-4.67068275611382e-07,-5.224329925113125e-06,6.387146277120337e-05
2.4172093617380597e-05,-1.0004735486290883e-05,1.1705445785992197e-06,-8.450863788311835e-06,6.50911097181961e-05
7.287569133040961e-06,-1.8218652257928625e-05,1.0095911875396268e-06,-7.689000995014794e-06,6.508477235911414e-05
3.3874027849378763e-06,-1.6170903109014034e-05,2.671956281119492e-06,-6.4295513766410295e-06,6.464035686803982e-05
3.4918723486043746e-06,-6.755194135621423e-06,2.5322135570604587e-06,-9.460178262088448e-06,6.408631452359259e-05
-3.6346073102322407e-06,-2.664151679709903e-06,-6.710211408744726e-08,-1.4675833881483413e-05,6.141369522083551e-05
-1.4571257452189457e-05,-2.5406905024283333e-06,-2.040499339273083e-06,-1.7088314052671194e-05,5.953492654953152e-05
-2.6430099751451053e-05,-3.72885722299543e-07,-4.4869145199299965e-07,-1.559179145260714e-05,5.7354125601705164e-05
-3.8643735024379566e-05,1.1022752914868761e-05,-1.3932570936958655e-06,-1.4440105587709695e-05,5.544165105675347e-05
-4.816645014216192e-05,2.9957083825138398e-05,-9.627387044019997e-06,-1.4271282452682499e-05,5.6999982916750014e-05
-5.5135802540462464e-05,5.0499951612437144e-05,-2.0168183255009353e-05,-1.3654989743372425e-05,6.288097210926935e-05
-5.736233651987277e-05,7.168977754190564e-05,-2.467336344125215e-05,-1.2957989383721724e-05,6.69656292302534e-05
-5.5098011216614395e-05,9.282978862756863e-05,-2.6055453417939134e-05,-1.3779123946733307e-05,6.869216304039583e-05
-4.7934889153111726e-05,0.00010575458145467564,-3.1468418455915526e-05,-1.6189937014132738e-05,6.698300421703607e-05
-4.2896448576357216e-05,0.00010254767403239384,-3.7775334931211546e-05,-1.6599649825366214e-05,6.264980038395151e-05
-4.079544305568561e-05,8.780830830801278e-05,-3.770574403461069e-05,-1.3234797734185122e-05,5.902194243390113e-05
-3.8677997508784756e-05,6.991883128648624e-05,-2.911319097620435e-05,-9.770277756615542e-06,5.696829248336144e-05
-3.408934935578145e-05,5.0294038373976946e-05,-1.5465275282622315e-05,-7.262480721692555e-06,5.316965689416975e-05
-3.2502415706403553e-05,2.847569339792244e-05,-2.9708307920373045e-06,-4.7394150897162035e-06,5.1431958127068356e-05
-3.218737765564583e-05,6.184763606142951e-06,4.070173417858314e-06,-3.1173181014310103e-06,5.2400580898392946e-05
-2.9623131922562607e-05,-1.7737096641212702e-05,9.105430763156619e-06,-2.855930915757199e-06,5.441544999484904e-05
-2.6167510441155173e-05,-3.6513763916445896e-05,1.7383728845743462e-05,-2.422682200631243e-06,5.660200986312702e-05
-2.3693328330409713e-05,-3.4299682738492265e-05,2.5731951609486714e-05,-1.5575157021885389e-06,5.8490615629125386e-05
-2.0526009393506683e-05,-1.954119943547994e-05,2.751088140939828e-05,-5.299158374327817e-07,5.896737638977356e-05
-1.3783578651782591e-05,-8.68217375682434e-06,2.6677096684579737e-05,-7.496471994272724e-07,5.626297934213653e-05
-5.871712801308604e-06,-3.873212335747667e-06,2.8602711608982645e-05,-2.3252064238477033e-06,5.478434104588814e-05
-4.881942004431039e-06,3.9628757804166526e-06,3.173929144395515e-05,-3.9247493077709805e-06,5.471159965964034e-05
-1.3165349628252443e-05,2.448485065542627e-05,2.87702314381022e-05,-5.090316335554235e-06,5.447088915389031e-05
-2.4483499146299437e-05,4.74115731776692e-05,2.2635969799011946e-05,-5.415022314991802e-06,5.556769247050397e-05
-2.9822287615388632e-05,6.190756539581344e-05,1.854345464380458e-05,-8.183298632502556e-06,5.810576840303838e-05
-2.395967567281332e-05,5.952729406999424e-05,1.9324008462717757e-05,-1.2779414646502119e-05,6.28185662208125e-05
-1.4171026123221964e-05,5.109554695081897e-05,2.266653063998092e-05,-1.613174936210271e-05,6.640350329689682e-05
-9.094213964999653e-06,5.0460057536838576e-05,2.5685367290861905e-05,-1.5131822692637797e-05,6.50147267151624e-05
-1.537913158244919e-05,6.6642853198573e-05,2.9840206480002962e-05,-1.2660630090977065e-05,6.490736996056512e-05
-2.984041020681616e-05,9.609983681002632e-05,3.2318606827175245e-05,-1.2488571883295663e-05,6.476885755546391e-05
-4.215716398903169e-05,0.00012551722466014326,2.8449327146518044e-05,-1.3439025678962935e-05,6.235465116333216e-05
-4.4447904656408355e-05,0.00013658206444233656,2.0104482246097177e-05,-1.441740823793225e-05,6.04523993388284e-05
-3.716910578077659e-05,0.00010636434308253229,1.3854304597771261e-05,-1.6873786080395803e-05,6.0669623053399846e-05
-2.8952043066965416e-05,4.092982999281958e-05,1.089127817976987e-05,-2.065827175101731e-05,6.033624231349677e-05
-2.4770653908490203e-05,-1.2484039871196728e-05,8.011148565856274e-06,-2.3906719434307888e-05,5.9034646255895495e-05
-2.3993819922907278e-05,-1.3938139090896584e-05,4.162103323324118e-06,-2.6306388463126495e-05,5.972597500658594e-05
-2.477480302331969e-05,2.133105772372801e-05,1.6518038137292024e-06,-2.6082268959726207e-05,5.989394776406698e-05
-2.556476647441741e-05,5.573387534241192e-05,-8.934900961321546e-07,-2.3076443540048786e-05,5.882569894311018e-05
-3.169924457324669e-05,7.306065526790917e-05,-2.6258012439939193e-06,-1.972304926312063e-05,5.8933735999744385e-05
-4.9574820877751336e-05,7.817803998477757e-05,-1.6362217536425305e-07,-1.6829309970489703e-05,5.952464562142268e-05
-6.966313230805099e-05,7.396309229079634e-05,4.074934167874744e-06,-1.349289232166484e-05,5.882823825231753e-05
-8.167546184267849e-05,6.5159700170625e-05,5.0730063776427414e-06,-1.1720507245627232e-05,5.8465924666961655e-05
-9.053180110640824e-05,5.567753396462649e-05,4.748946594190784e-06,-1.111745586968027e-05,5.669641905114986e-05
-8.779281779425219e-05,4.945097316522151e-05,2.939885916930507e-06,-1.0966539775836281e-05,5.058864917373285e-05
-6.790288898628205e-05,4.292147787055001e-05,-1.7195310419992893e-07,-7.621802978974301e-06,4.67157042294275e-05
-5.6192748161265627e-05,2.366609260207042e-05,-7.885283821451594e-07,-7.188039489847142e-06,4.8485075240023434e-05
-6.77677380735986e-05,-2.08957808354171e-05,2.4655899544256954e-09,-1.4485786778095644e-05,5.0277016271138564e-05
-8.311592682730407e-05,-7.561764505226165e-05,1.3813107671012403e-06,-1.9510494894348085e-05,5.041901022195816e-05
-8.257200533989817e-05,-9.680818038759753e-05,5.5894038268888835e-06,-1.722351589705795e-05,5.375906403060071e-05
-6.81597157381475e-05,-6.0088317695772275e-05,7.725252544332761e-06,-1.4001103409100324e-05,5.673908526659943e-05
-5.204430999583565e-05,-1.304382112721214e-05,6.347114776872331e-06,-1.605273791938089e-05,5.284606231725775e-05
-3.83526312361937e-05,-8.329778211191297e-06,2.520108182579861e-06,-1.977577448997181e-05,4.7944507969077677e-05
-1.8562390323495492e-05,-3.45074113283772e-05,-6.941472747712396e-06,-2.1841169655090198e-05,4.3828022171510383e-05
8.903792149794754e-06,-5.3505413234233856e-05,-2.0403122107381932e-05,-2.1920785002293997e-05,4.0160266507882625e-05
3.328597085783258e-05,-4.101587910554372e-05,-3.404140443308279e-05,-2.1815656509716064e-05,4.027960676467046e-05
4.463831282919273e-05,-1.164987770607695e-05,-4.0110156987793744e-05,-1.991568751691375e-05,4.22129851358477e-05
3.75590352632571e-05,1.1140117749164347e-05,-3.471124000498094e-05,-1.4179948266246356e-05,4.111201633349992e-05
9.461859008297324e-06,2.1745407138951123e-05,-2.3942544430610724e-05,-1.0158249097003136e-05,3.99367454519961e-05
-2.819119799823966e-05,2.6959429305861704e-05,-1.3323103303264361e-05,-1.2648544725379907e-05,4.1882154619088396e-05
-5.492738273460418e-05,2.933919859060552e-05,-3.2436882975162007e-06,-1.8450986317475326e-05,4.6049459342611954e-05
-6.030618169461377e-05,2.7476258765091188e-05,5.4647180149913765e-06,-2.151047738152556e-05,5.032799526816234e-05
-4.507589619606733e-05,2.4199343897635117e-05,1.1150998034281656e-05,-1.9917624740628526e-05,5.416926433099434e-05
-1.5812574929441325e-05,2.3338016035268083e-05,1.4480358004220761e-05,-1.6899912225198932e-05,5.833316026837565e-05
2.046806002908852e-05,1.885606070572976e-05,1.8369764802628197e-05,-1.3466896234604064e-05,6.235270848264918e-05
5.252620394458063e-05,8.640781743451953e-06,2.2550853827851824e-05,-8.775617061473895e-06,6.457562994910404e-05
6.13871161476709e-05,6.847666099929484e-06,2.527278775232844e-05,-6.877947726025013e-06,6.416920223273337e-05
4.502535375650041e-05,1.6060595953604206e-05,2.5482813725830056e-05,-1.0395923709438648e-05,6.3485094869975e-05
2.4295562980114482e-05,2.6885169063461944e-05,2.6174437152803876e-05,-1.2714469448837917e-05,6.0704998759320006e-05
9.790081094251946e-06,3.8787751691415906e-05,2.846199640771374e-05,-1.0192974514211528e-05,5.6743345339782536e-05
2.977219310196233e-06,4.963913670508191e-05,2.808742101478856e-05,-5.821578724862775e-06,5.7432938774582e-05
5.373708063416416e-06,6.496925925603136e-05,2.442717959638685e-05,-2.1589924870113464e-07,6.213047163328156e-05
7.1246340667130426e-06,9.243870590580627e-05,1.9695489754667506e-05,-4.4298880652604566e-07,6.527978257508948e-05
-3.6160718082101084e-06,0.00011091741907875985,1.4906818250892684e-05,-4.9172354010806885e-06,6.49945141049102e-05
-2.347385452594608e-05,0.00010296849359292537,1.3176509128243197e-05,-6.002369900670601e-06,5.944637086940929e-05
-3.6023913708049804e-05,8.482083649141714e-05,1.2251655789441429e-05,-4.966428150510183e-06,5.262500781100243e-05
-3.61323072866071e-05,7.559801451861858e-05,6.609263891732553e-06,-2.666665295691928e-06,5.0178256060462445e-05
-3.782062776735984e-05,6.767621380276978e-05,1.0350115644541802e-06,-1.7377378753735684e-06,5.156552651897073e-05
-5.170169970369898e-05,5.7532401115167886e-05,7.39403105853853e-07,-2.6852528662857367e-06,5.220564707997255e-05
-6.701068195980042e-05,4.929468559566885e-05,1.8781345261231763e-06,-4.274124421499437e-06,5.282683196128346e-05
-5.7530200137989596e-05,3.404877134016715e-05,1.2358229639630736e-07,-6.767214017600054e-06,5.8056215493706986e-05
-2.7813090127892792e-05,1.4865734556224197e-05,1.2685532624345797e-07,-9.135127584158909e-06,6.33176023256965e-05
-9.445929208595771e-06,4.126040039409418e-06,3.1860236049396917e-06,-8.115516720863525e-06,6.44222745904699e-05
-1.3667544408235699e-05,6.331902568490477e-06,5.969891390122939e-06,-4.633728167391382e-06,6.253085302887484e-05
-2.5596544219297357e-05,1.2610877092811279e-05,8.108461770461872e-06,-1.543665007375239e-06,6.19285783614032e-05
-2.9867531338823028e-05,1.752637399476953e-05,1.071065980795538e-05,-2.6764400899992324e-06,6.386655877577141e-05
-2.3612989025423303e-05,2.333447991986759e-05,1.0237336027785204e-05,-8.167990017682314e-06,6.558454333571717e-05
-1.4582942640117835e-05,3.138507599942386e-05,7.297124284377787e-06,-1.1502021152409725e-05,6.675035547232255e-05
-1.2952434190083295e-05,4.106969936401583e-05,7.27554424884147e-06,-1.0417999874334782e-05,6.63415266899392e-05
-1.7983116777031682e-05,5.38234889972955e-05,1.4358301086758729e-05,-6.360465704347007e-06,6.358160317176953e-05
-2.5941109925042838e-05,6.55319745419547e-05,2.1942012608633377e-05,-2.448531631671358e-06,6.075812052586116e-05
-3.586899765650742e-05,6.607772229472175e-05,2.150380350940395e-05,-1.606995169822767e-06,6.010554716340266e-05
-4.668847032007761e-05,5.3514548199018463e-05,1.3542798114940524e-05,-3.917272806575056e-06,6.20643186266534e-05
-5.4279109463095665e-05,3.2131960324477404e-05,4.079889095010003e-06,-7.266981356224278e-06,6.40836515231058e-05
-5.577994670602493e-05,3.6462406569626182e-06,2.1836432040345244e-07,-1.0998143807228189e-05,6.385155575117096e-05
-5.619138028123416e-05,-2.7724559913622215e-05,4.835086429011426e-07,-1.3516021681425627e-05,6.329605093924329e-05
-5.774238525191322e-05,-4.338207145337947e-05,9.61044406722067e-07,-1.3356129784369841e-05,6.550143007189035e-05
-5.528552719624713e-05,-3.963422932429239e-05,2.806541942845797e-06,-1.3441052942653187e-05,6.894884427310899e-05
-4.983212420484051e-05,-3.493646363494918e-05,2.248503051305306e-06,-1.3055658200755715e-05,6.899530126247555e-05
-3.825553721981123e-05,-3.467278293101117e-05,-3.3813028039730852e-06,-1.2960385902260896e-05,6.879302236484364e-05
-2.5180312150041573e-05,-2.3569149561808445e-05,-3.646058985395939e-06,-1.5066847481648438e-05,7.071147410897538e-05
-1.962668466148898e-05,-3.6881301639368758e-06,-8.153443786795833e-07,-1.3140069313521963e-05,7.294490933418274e-05
-1.4633133105235174e-05,7.924038072815165e-06,-1.3772439615422627e-06,-1.0486894097994082e-05,7.531951268902048e-05
-7.391465260297991e-06,1.6708363546058536e-05,2.3082797895312979e-07,-1.2026111107843462e-05,7.456367166014388e-05
-5.543245151784504e-06,3.276830830145627e-05,1.7185333263114444e-06,-1.4643231224908959e-05,6.886638584546745e-05
-8.370145224034786e-06,6.244443648029119e-05,-4.628388978744624e-06,-1.5210420315270312e-05,6.434457463910803e-05
-1.1027183063561097e-05,9.392127685714513e-05,-1.2354598766251002e-05,-1.5012506992206909e-05,6.40797006781213e-05
-9.862165825325064e-06,0.00010244356235489249,-1.2698409591394011e-05,-1.4743953215656802e-05,6.141301128081977e-05
-5.666706783813424e-06,7.970540900714695e-05,-7.3906712714233436e-06,-1.2403634173097089e-05,5.560003046412021e-05
-7.20947627996793e-06,3.0205012080841698e-05,-6.535923148476286e-06,-9.333474736195058e-06,4.9985555961029604e-05
-1.2316812899371143e-05,-1.3718890841118991e-05,-1.09373086161213e-05,-8.34138882055413e-06,4.6370299969566986e-05
-1.3010461771045811e-05,-2.1138908778084442e-05,-1.4100953194429167e-05,-1.0461386409588158e-05,4.5859756937716156e-05
-9.285565283789765e-06,3.7102820442669326e-06,-1.1955759873671923e-05,-1.2242277080076747e-05,4.873203215538524e-05
-1.151916239905404e-05,3.4828739444492385e-05,-6.888027201057412e-06,-1.3263879736769013e-05,5.298713222146034e-05
-3.122097405139357e-05,5.313299334375188e-05,-1.2624655028048437e-06,-1.374405746901175e-05,5.607309140032157e-05
-6.065655543352477e-05,4.93189218104817e-05,1.7456383147873566e-06,-1.2120411156502087e-05,5.589074862655252e-05
-7.268778426805511e-05,2.656246579135768e-05,1.0456689096827176e-06,-8.256369255832396e-06,5.236163269728422e-05
-5.2315132052171975e-05,1.0961902034978266e-06,-1.225145069838618e-06,-5.295062237564707e-06,5.018375668441877e-05
-1.390697798342444e-05,-5.218264504947001e-06,-4.1189841226696444e-07,-5.429529664979782e-06,5.0834216381190345e-05
1.5413790606544353e-05,1.7428186765755527e-05,4.842690032091923e-06,-8.99885253602406e-06,5.228748341323808e-05
2.5589970391592942e-05,5.2460425649769604e-05,8.76511876413133e-06,-1.3295029020810034e-05,5.292881542118266e-05
2.6595242161420174e-05,7.404790085274726e-05,7.386299785139272e-06,-1.4864532204228453e-05,5.3715866670245305e-05
2.7446030799183063e-05,7.035995076876134e-05,1.3688811577594606e-06,-1.300143230764661e-05,5.842678001499735e-05
2.486000994394999e-05,5.398204302764498e-05,-1.7085258718907426e-07,-1.1945217920583673e-05,6.667837442364544e-05
1.3114309695083648e-05,3.6069293855689466e-05,8.285940566565841e-06,-1.5354054994531907e-05,7.226017623906955e-05
-3.5253531223133905e-06,1.9255621737102047e-05,1.9127657651552e-05,-1.901550785987638e-05,7.193980854935944e-05
-1.605409306648653e-05,2.2700989575241692e-05,2.0475192286539823e-05,-1.7074526112992316e-05,6.760494579793885e-05
-1.959300607268233e-05,4.226789314998314e-05,1.6744010281399824e-05,-1.3732178558711894e-05,6.393172952812165e-05
-2.4250522983493283e-05,5.338296978152357e-05,1.6192392649827525e-05,-1.3787206626147963e-05,6.480590673163533e-05
-3.342384661664255e-05,5.9030855481978506e-05,1.6117228369694203e-05,-1.4023543371877167e-05,6.898844003444538e-05
-4.312002056394704e-05,5.690058969776146e-05,1.4451412425842136e-05,-1.388172313454561e-05,7.188533345470205e-05
-5.699502071365714e-05,3.670225487439893e-05,1.4516366718453355e-05,-1.1650589840428438e-05,6.890356598887593e-05
-7.099784124875441e-05,9.01777184481034e-06,1.0946693691948894e-05,-7.949128303152975e-06,6.0520778788486496e-05
-8.131554204737768e-05,-7.900549462647177e-06,7.0541163950110786e-06,-4.5425895223161206e-06,5.3319319704314694e-05
-8.29104901640676e-05,-2.8392310014169198e-06,7.987831850186922e-06,-4.477758011489641e-06,5.088838588562794e-05
-7.090873987181112e-05,1.5522016838076524e-05,9.897427844407503e-06,-5.6399626373604406e-06,5.7971930800704286e-05
-3.904774712282233e-05,2.880371357605327e-05,9.805936315387953e-06,-3.974181254307041e-06,7.01496028341353e-05
8.515101399098057e-06,4.152334440732375e-05,9.154445251624566e-06,-2.2369999896909576e-06,7.688452024012804e-05
4.523838288150728e-05,4.4348169467411935e-05,9.645303180150222e-06,-4.541402631730307e-06,7.935817120596766e-05
4.620126128429547e-05,3.296753129689023e-05,8.184857506421395e-06,-9.752897312864661e-06,7.696936518186703e-05
1.902352596516721e-05,1.719258762022946e-05,3.3150047329399968e-06,-1.0436011507408693e-05,7.190445467131212e-05
-5.572644568019314e-06,1.0502291843295097e-05,-1.5380413742605015e-07,-8.311975761898793e-06,6.832357030361891e-05
-1.7300806575804017e-05,1.4027845281816553e-05,-6.016438760525489e-07,-9.914281690726057e-06,6.513843254651874e-05
-2.1676580217899755e-05,2.1127951185917482e-05,-1.009822653941228e-06,-1.3658172065333929e-05,6.220771319931373e-05
-1.9725110178114846e-05,3.270345041528344e-05,-5.327643179953157e-07,-1.2804843208868988e-05,6.0142981965327635e-05
-1.3325815416465048e-05,5.014393536839634e-05,-2.5367222633576603e-07,-8.288404387712944e-06,5.7779729104368016e-05
-7.083416221576044e-06,6.655321340076625e-05,-1.3082617442705669e-06,-6.98449412084301e-06,5.6454526202287525e-05
-4.575284492602805e-06,7.05856509739533e-05,-7.33512450779017e-08,-1.0498408300918527e-05,5.791678631794639e-05
-1.0345745067752432e-05,6.408663466572762e-05,6.764987119822763e-06,-1.455786969017936e-05,5.9745681937783957e-05
-1.807241642381996e-05,5.076985326013528e-05,1.4154268683341797e-05,-1.550425986351911e-05,6.013622987666167e-05
-1.9994820831925608e-05,3.662794188130647e-05,1.465642617404228e-05,-1.420731859980151e-05,5.9199814131716266e-05
-2.2616275600739755e-05,2.9723840270889923e-05,1.0602933798509184e-05,-1.4131511306914035e-05,5.500820407178253e-05
-3.058029687963426e-05,3.64195293514058e-05,1.0302356713509653e-05,-1.4701451618748251e-05,5.264614810585044e-05
-3.48401881637983e-05,4.45427285740152e-05,1.1185984476469457e-05,-1.1494383215904236e-05,5.4694122809451073e-05
-3.622521398938261e-05,4.131115565542132e-05,1.1611427908064798e-05,-9.791727279662155e-06,5.474696808960289e-05
-4.58008871646598e-05,3.337861562613398e-05,1.4161822946334723e-05,-1.0014373401645571e-05,5.353960659704171e-05
-5.382142262533307e-05,3.3936434192582965e-05,1.6880861949175596e-05,-5.636135938402731e-06,4.9926151405088603e-05
-5.053061249782331e-05,3.021329757757485e-05,1.6427398804808035e-05,-3.359893980814377e-06,4.926401743432507e-05
-3.8304315239656717e-05,2.148781277355738e-05,1.3115343790559564e-05,-3.483978161966661e-06,5.665346179739572e-05
-1.639846777834464e-05,1.8248036212753505e-05,8.812213309283834e-06,-2.510837930458365e-06,6.652084266534075e-05
-4.1299691133644956e-07,1.4708639355376363e-05,6.318154191831127e-06,-1.4291289289758424e-06,6.877369014546275e-05
-4.858314696321031e-06,9.572673661750741e-06,6.783553089917405e-06,-2.4563971692259656e-06,6.260300142457709e-05
-2.9648810595972463e-05,5.610796506516635e-06,6.206246325746179e-06,-5.091901130072074e-06,5.645006967824884e-05
-6.661775842076167e-05,2.6453435566509143e-06,6.838305125711486e-06,-5.625929134112084e-06,5.2772713388549164e-05
-9.284984844271094e-05,2.7898802272829926e-06,8.452690963167697e-06,-5.390024853113573e-06,5.075200897408649e-05
-9.262149251298979e-05,4.88262458020472e-06,9.172139471047558e-06,-4.237478606228251e-06,5.02835500810761e-05
-7.063900557113811e-05,3.9586943785252515e-06,9.670148756413255e-06,-3.719676669788896e-06,5.5067590437829494e-05
-4.713920861831866e-05,7.545530706920545e-07,8.352739314432256e-06,-4.631449883163441e-06,6.226358527783304e-05
-3.719798041856848e-05,4.927422651235247e-06,9.086447789741214e-06,-5.87394242757e-06,6.525575736304745e-05
-3.95982206100598e-05,1.872154462034814e-05,1.1697403351718094e-05,-4.787380476045655e-06,6.191528518684208e-05
-4.465300662559457e-05,3.0219809559639543e-05,9.342113116872497e-06,-1.6688096593497903e-06,5.830376539961435e-05
-4.695435563917272e-05,3.410788485780358e-05,9.814245913730701e-07,3.8032766269679996e-07,5.622085154755041e-05
-5.2382518333615735e-05,3.0409766623051837e-05,-5.759230589319486e-06,-1.302877194575558e-06,5.342575968825258e-05
-6.337842933135107e-05,2.129233325831592e-05,-8.026316208997741e-06,-4.621686002792558e-06,5.084710937808268e-05
-7.094664761098102e-05,9.578591743775178e-06,-5.557686563406605e-06,-5.393822448240826e-06,4.7464502131333575e-05
-6.932091491762549e-05,-2.9754635306744603e-06,9.870874464468216e-07,-4.955743861501105e-06,4.331484160502441e-05
-6.469343497883528e-05,-1.1905110113730188e-05,4.6911472963984124e-06,-6.406982265616534e-06,4.3569820263655856e-05
-6.208120612427592e-05,-7.667932550248224e-06,3.4218578548461664e-06,-6.618879979214398e-06,5.050222898717038e-05
-6.184203084558249e-05,9.842781764746178e-06,2.81059851658938e-06,-5.873070676898351e-06,5.7704750361153856e-05
-6.70642257318832e-05,3.1113602744881064e-05,4.0752452150627505e-06,-4.516032731771702e-06,5.8081233873963356e-05
-7.318300777114928e-05,5.167443669051863e-05,2.5328156425530324e-06,-4.37060907643172e-06,5.478120510815643e-05
-7.9425546573475e-05,6.917781138326973e-05,3.283309411017399e-07,-6.532850875373697e-06,5.40452056156937e-05
-8.636736311018467e-05,8.363783126696944e-05,1.4837698927294696e-06,-3.6718806768476497e-06,5.749176489189267e-05
-7.576523785246536e-05,8.54715981404297e-05,5.167851213627728e-06,-3.909915449185064e-06,6.299697270151228e-05
-4.6756293158978224e-05,5.509166658157483e-05,9.201080501952674e-06,-1.030194471240975e-05,6.389948248397559e-05
-2.078732541122008e-05,-7.76451088313479e-06,1.245175280928379e-05,-1.4641213965660427e-05,6.0085039876867086e-05
-9.216995749738999e-06,-4.430770786711946e-05,1.5216079191304743e-05,-1.2901038644486107e-05,5.752939250669442e-05
-4.691516551247332e-06,-6.319442945823539e-06,1.680229979683645e-05,-1.112806967284996e-05,5.8242250815965235e-05
6.126432253950043e-06,5.774467354058288e-05,1.3787962416245136e-05,-1.546861312817782e-05,5.770612187916413e-05
2.2702724891132675e-05,9.417850378667936e-05,6.2289091147249565e-06,-2.155890251742676e-05,5.651365063386038e-05
3.60183730663266e-05,8.046058064792305e-05,5.7847951211442705e-06,-2.137413866876159e-05,5.441353641799651e-05
3.84978593501728e-05,3.898087743436918e-05,1.1528849427122623e-05,-1.8601505871629342e-05,5.366249752114527e-05
3.077425935771316e-05,9.247630259778816e-06,1.329874066868797e-05,-1.7739179384079762e-05,5.668732410413213e-05
2.1628718968713656e-05,1.3717808542423882e-06,1.1462620022939518e-05,-1.5095648450369481e-05,6.0123467847006395e-05
1.3672303794010077e-05,8.427178727288265e-06,8.0339386840933e-06,-1.3344900253287051e-05,6.0824884712928906e-05
1.986962615774246e-06,1.9412076653679833e-05,3.473803417364252e-06,-1.4665648450318258e-05,5.975748354103416e-05
-1.3310871509020217e-05,3.0140507078613155e-05,-4.91609114305902e-07,-1.764336229825858e-05,5.890214742976241e-05
-2.549331657064613e-05,3.7616584450006485e-05,2.275792439832003e-06,-1.9258666725363582e-05,5.793587843072601e-05
-2.9568611353170127e-05,3.916001878678799e-05,9.42112001212081e-06,-1.944326504599303e-05,5.717612293665297e-05
-3.0266262911027297e-05,3.6578585422830656e-05,1.603875898581464e-05,-1.5970128515618853e-05,5.716590749216266e-05
-2.8096481401007622e-05,3.587082392186858e-05,1.8696198821999133e-05,-9.510557902103756e-06,5.980534842819907e-05
-1.869568404799793e-05,3.202011066605337e-05,1.5993136912584305e-05,-4.334904133429518e-06,6.207586557138711e-05
-7.89494879427366e-06,1.5558289305772632e-05,1.2551482541311998e-05,-2.6861252990784124e-06,6.329244206426665e-05
-8.056800652411766e-06,2.5699894194985973e-06,9.541567123960704e-06,-2.1806720269523794e-06,6.161820783745497e-05
-2.0414361642906442e-05,1.9360220903763548e-05,7.552053375547985e-06,-4.843752776650945e-07,5.614883775706403e-05
-3.6088720662519336e-05,4.642092244466767e-05,1.048163994710194e-05,-2.019377006945433e-06,5.121594949741848e-05
-4.700445424532518e-05,6.207686965353787e-05,1.3161564311303664e-05,-6.76629906593007e-06,4.7581172111677006e-05
-4.790102320839651e-05,6.79022996337153e-05,1.1246804206166416e-05,-7.512495812989073e-06,4.276324762031436e-05
-4.2793511966010556e-05,6.74188559059985e-05,9.074574336409569e-06,-9.768350537342485e-06,4.0660615923115984e-05
-4.0726572478888556e-05,6.546969234477729e-05,8.46797411213629e-06,-1.3823335393681191e-05,4.34932007919997e-05
-4.529504440142773e-05,6.489577208412811e-05,9.999631402024534e-06,-1.2608054021256976e-05,4.432957211975008e-05
-4.692975198850036e-05,6.473060784628615e-05,1.2260068615432829e-05,-9.385412340634502e-06,4.399777026264928e-05
-5.5065425840439275e-05,6.202513759490103e-05,1.5741978131700307e-05,-7.678047950321343e-06,5.011735265725292e-05
-8.895938663044944e-05,5.020878597861156e-05,2.3287768271984532e-05,-7.374671895377105e-06,5.765118112321943e-05
-0.00014474219642579556,2.845313611032907e-05,3.0242419597925618e-05,-5.943418273091083e-06,6.0110258345957845e-05
-0.0001877955801319331,5.133686045155628e-06,3.114925857516937e-05,-4.4048510972061194e-06,6.450018554460257e-05
-0.00016177936049643904,-1.9304015950183384e-05,2.6309900931664743e-05,-4.392818027554313e-06,7.187934534158558e-05
-6.497257709270343e-05,-3.711910540005192e-05,1.933364364958834e-05,-4.41513157056761e-06,8.038159285206348e-05
3.095843567280099e-05,-2.8467913580243476e-05,1.2075867743988056e-05,-1.9578230876504676e-06,8.777986658969894e-05
7.546726556029171e-05,-7.14291581971338e-06,4.598709438141668e-06,-2.5194287900376366e-06,9.16200879146345e-05
7.818305311957374e-05,3.018327333847992e-06,-5.530574526346754e-06,-5.757586677646032e-06,9.060643060365692e-05
5.507295281859115e-05,6.478967407019809e-06,-1.4270568499341607e-05,-8.38056075735949e-06,8.539697591913864e-05
1.3671929082192946e-05,1.3486221178027336e-05,-1.4307593119156081e-05,-9.662810043664649e-06,7.669181650271639e-05
-2.2263468054006808e-05,2.0371056962176226e-05,-8.492891538480762e-06,-1.1900907338713296e-05,6.59606303088367e-05
-1.958090069820173e-05,2.0956813386874273e-05,-3.1426618534169393e-06,-1.3950574611953925e-05,5.8050864026881754e-05
1.4990463569120038e-05,1.996855644392781e-05,-3.1392039545607986e-06,-1.2607762982952408e-05,5.464012429001741e-05
3.8123547710711136e-05,2.414443952147849e-05,-5.0858270697062835e-06,-1.0101935913553461e-05,5.349871207727119e-05
2.129918721038848e-05,3.28490168612916e-05,-2.4893392946978565e-06,-9.201121429214254e-06,5.4219955927692354e-05
-2.3350537958322093e-05,3.439541978877969e-05,4.679651283368003e-06,-1.0350368938816246e-05,5.741528730140999e-05
-5.841168240294792e-05,2.059528742393013e-05,1.0702724466682412e-05,-1.1681623618642334e-05,5.962279828963801e-05
-6.839650450274348e-05,1.8848417084882385e-06,1.2505363883974496e-05,-1.0805736565089319e-05,6.0062422562623397e-05
-6.59340585116297e-05,-5.0153817028331105e-06,1.02480553323403e-05,-8.199606782000046e-06,6.0732905694749206e-05
-6.125622894614935e-05,-1.0451184607518371e-05,1.0911605386354495e-05,-7.1222711994778365e-06,6.111049879109487e-05
-6.590878911083564e-05,-3.189826020388864e-05,1.0323217793484218e-05,-6.934992597962264e-06,5.631983367493376e-05
-7.933504821266979e-05,-4.8298250476364046e-05,5.247798526397673e-06,-9.658738235884812e-06,5.322109063854441e-05
-7.662556163268164e-05,-3.497172292554751e-05,4.229269052302698e-06,-1.291717398999026e-05,5.725040318793617e-05
-3.436550832702778e-05,-1.553683432575781e-06,5.626967777061509e-06,-1.2094827070541214e-05,6.189024861669168e-05
3.8009267882443964e-05,2.1283594833221287e-05,4.66971323476173e-06,-1.1179875400557648e-05,6.145783845568076e-05
9.644492820370942e-05,2.8018785087624565e-05,9.635642754801665e-07,-1.321630315942457e-05,6.003073576721363e-05
0.00011031972826458514,3.460097286733799e-05,-2.453651404721313e-06,-1.0657166058081202e-05,6.072251562727615e-05
8.297346357721835e-05,4.033932418678887e-05,-7.292081136256456e-06,-7.644174729648512e-06,6.0478749219328165e-05
4.141093450016342e-05,4.358782825875096e-05,-1.1912941772607155e-05,-1.031984811561415e-05,6.440469587687403e-05
1.1106248166470323e-05,4.2923806176986545e-05,-1.0280390597472433e-05,-1.3163061339582782e-05,6.833662337157875e-05
-2.6731779598776484e-06,4.187968443147838e-05,-4.588649062498007e-06,-1.2482189958973322e-05,6.566069350810722e-05
-1.458021597500192e-05,3.625108001870103e-05,-1.7774932530301157e-06,-1.3664021935255732e-05,6.07823021709919e-05
-2.8245382054592483e-05,3.709281008923426e-05,-5.614345354842953e-06,-1.974587758013513e-05,5.745615271735005e-05
-4.017796163680032e-05,4.840559995500371e-05,-9.978958587453235e-06,-2.4514381948392838e-05,5.7864279369823635e-05
-4.7709239879623055e-05,5.989273631712422e-05,-1.272228382731555e-05,-2.536127794883214e-05,5.893186244065873e-05
-4.814907515537925e-05,6.1030972574371845e-05,-1.6765203326940536e-05,-2.528643381083384e-05,5.763425724580884e-05
-4.942331725033e-05,5.0996393838431686e-05,-1.9517498003551736e-05,-2.6178695406997576e-05,5.666244396707043e-05
-5.9362831962062046e-05,4.1346218495164067e-05,-1.8532718968344852e-05,-2.441621109028347e-05,5.600159056484699e-05
-7.117043423932046e-05,3.738183659152128e-05,-1.4221308447304182e-05,-1.8655073290574364e-05,5.387176861404441e-05
-6.957659206818789e-05,3.631083745858632e-05,-9.549777132633608e-06,-1.3872683666704688e-05,5.495371806318872e-05
-5.2767758461413905e-05,3.392731741769239e-05,-5.177475031814538e-06,-1.451876505598193e-05,5.828611756442115e-05
-2.6756746592582203e-05,3.243019091314636e-05,-2.6586631065583788e-06,-1.6792466340120882e-05,5.807046181871556e-05
4.15974454881507e-06,3.082611146965064e-05,-3.3105804959632223e-06,-1.8176187950302847e-05,5.49728429177776e-05
2.357570883759763e-05,3.291648317826912e-05,-4.554645329335472e-06,-1.9396347852307372e-05,5.296057861414738e-05
1.1594715033425018e-05,3.591747008613311e-05,-4.972566330252448e-06,-1.998006882786285e-05,5.2740200771950185e-05
-9.931208296620753e-06,3.467898932285607e-05,-9.822554602578748e-06,-2.1248188204481266e-05,5.2562787459464744e-05
-8.761978278926108e-06,3.0567218345822766e-05,-1.8387958334642462e-05,-1.96162291103974e-05,5.2004408644279465e-05
7.007372914813459e-06,3.155615195282735e-05,-2.2133986931294203e-05,-1.4972243661759421e-05,5.110797064844519e-05
1.0897879292315338e-05,4.10446482419502e-05,-2.0738480088766664e-05,-1.2338805390754715e-05,5.137400148669258e-05
-2.8007955279463204e-06,5.5841861467342824e-05,-1.463254648115253e-05,-1.249899924005149e-05,4.853923383052461e-05
-2.3784734366927296e-05,6.611476419493556e-05,1.76564824982961e-07,-1.670055280555971e-05,4.095123949809931e-05
-4.384890053188428e-05,7.456970342900604e-05,1.567986691952683e-05,-1.8038008420262486e-05,4.109440487809479e-05
-5.317545583238825e-05,8.694107964402065e-05,2.2561283913091756e-05,-1.330041322944453e-05,4.635790173779242e-05
-4.1606908780522645e-05,9.511813550489023e-05,2.680767465790268e-05,-4.416006959218066e-06,4.81130882690195e-05
-1.381055608362658e-05,8.714846626389772e-05,3.116986044915393e-05,7.421178906952264e-07,4.745565092889592e-05
7.121004273358267e-06,6.755759386578575e-05,3.262107929913327e-05,-2.300553433087771e-06,4.536160849966109e-05
4.248854111210676e-06,5.397643690230325e-05,3.070771708735265e-05,-5.464841706270818e-06,4.3727312004193664e-05
-1.5808218449819833e-05,4.018234903924167e-05,2.526055322960019e-05,-8.397678357141558e-06,4.061596700921655e-05
-3.699534499901347e-05,-1.0101904990733601e-05,1.8165834262617864e-05,-1.2911097655887716e-05,3.944430864066817e-05
-4.2495361412875354e-05,-7.047209510346875e-05,8.956015335570555e-06,-1.777426223270595e-05,4.074756725458428e-05
-3.320254836580716e-05,-7.356299465755001e-05,4.703018021245953e-06,-1.929127574840095e-05,4.8081670684041455e-05
-2.2077152607380413e-05,-1.8315242414246313e-05,1.2856187822762877e-05,-1.6567901184316725e-05,5.6398435845039785e-05
-1.728089955577161e-05,4.1846582462312654e-05,2.35554816754302e-05,-1.2133968994021416e-05,5.956870154477656e-05
-2.3604939997312613e-05,7.735584949841723e-05,2.6432839149492793e-05,-9.346003935206681e-06,6.0505582951009274e-05
-3.405826282687485e-05,9.818607213674113e-05,2.5527238904032856e-05,-8.807318408798892e-06,6.210767605807632e-05
-4.235247251926921e-05,0.00010901330097112805,2.6018466087407432e-05,-9.120628419623245e-06,6.322989065665752e-05
-4.8293873987859115e-05,0.0001041012947098352,2.5882854970404878e-05,-7.837675184418913e-06,6.379167462000623e-05
-5.098709152662195e-05,8.254697604570538e-05,2.1646324967150576e-05,-5.13546729052905e-06,6.432456575566903e-05
-4.776315836352296e-05,5.7609559007687494e-05,1.4795818060520105e-05,-1.7829468106356217e-06,6.337887316476554e-05
-4.608689414453693e-05,3.958546221838333e-05,1.1351397915859707e-05,1.0000089787354227e-06,6.080479943193495e-05
-5.180891457712278e-05,3.529657260514796e-05,1.055394113791408e-05,-1.7034959682860062e-06,5.8479898143559694e-05
-6.768199818907306e-05,5.042644988861866e-05,7.572916274511954e-06,-8.344960406247992e-06,5.8620622439775616e-05
-9.48508022702299e-05,7.708100019954145e-05,1.2142861578468e-06,-1.2352478734101169e-05,6.014425525791012e-05
-0.00012517815048340708,8.962688298197463e-05,-3.5157468118995894e-06,-1.0669613402569667e-05,6.270517769735307e-05
-0.00014078088861424476,7.969942089403048e-05,-1.5536573982899426e-06,-5.695140771422302e-06,6.37672419543378e-05
-0.00012423079169820994,5.06088363181334e-05,1.1940234116991633e-06,-2.0583802324836142e-06,6.303563714027405e-05
-8.333074219990522e-05,1.895345667435322e-05,2.096160869768937e-06,-7.33951253550913e-07,6.130972178652883e-05
-3.787748937611468e-05,-1.4307506717159413e-05,-3.08155620132311e-07,-2.910376224463107e-06,6.354159995680675e-05
-9.64521495916415e-06,-6.830202619312331e-05,-1.870925871116924e-06,-7.886697858339176e-06,6.703551480313763e-05
7.024294973234646e-06,-0.00014070964243728667,6.0182132983754855e-06,-7.572338290628977e-06,6.903576286276802e-05
1.5679090211051516e-05,-0.00022414854902308434,1.3277463949634694e-05,-4.921773779642535e-06,6.913970719324425e-05
1.9165467165294103e-05,-0.00025581501540727913,1.1693789019773249e-05,-7.4552290243445896e-06,6.671027222182602e-05
4.330651063355617e-05,-0.00019828080257866532,2.43489739659708e-06,-1.2392921235004906e-05,6.295335333561525e-05
7.488930714316666e-05,-0.00010977133206324652,-4.748173523694277e-06,-1.5945855921017937e-05,6.316563667496666e-05
8.054526551859453e-05,-2.5519995688227937e-05,-1.1094591172877699e-05,-1.789835914678406e-05,6.501169264083728e-05
5.864790364285e-05,4.2816493078134954e-05,-1.737218008202035e-05,-1.8911183360614814e-05,6.337897502817214e-05
3.298448064015247e-05,8.877309301169589e-05,-1.7510961697553284e-05,-2.1045390894869342e-05,6.01078245381359e-05
1.1574910786293913e-05,0.00011102268763352185,-1.3372711691772565e-05,-2.4411245249211788e-05,5.869115557288751e-05
-4.5969300117576495e-06,0.00011519509280333295,-6.347395355987828e-06,-2.5499264665995724e-05,5.8805846492759883e-05
-1.8194818039773963e-05,0.00011232325050514191,3.5228958950028755e-07,-2.357663652219344e-05,5.70919546589721e-05
-2.7887132091564126e-05,0.00011115762026747689,5.331313786882674e-06,-1.9731623979168944e-05,5.350278297555633e-05
-3.223941894248128e-05,0.00011293368879705667,8.762549441598821e-06,-1.6871361367520876e-05,4.9203878006665036e-05
-3.472797106951475e-05,0.00010767209460027516,1.0425059372209944e-05,-1.8480821381672285e-05,4.637807433027774e-05
-3.486077184788883e-05,9.316943032899871e-05,8.749086191528477e-06,-2.1453315639519133e-05,4.699159399024211e-05
-3.2605952583253384e-05,7.537916826549917e-05,2.9180375804571668e-06,-1.9802158931270242e-05,5.1624185289256275e-05
-2.9887742130085826e-05,6.48190252832137e-05,-6.299508186202729e-06,-1.4338509572553448e-05,5.6598542869323865e-05
-2.788514393614605e-05,5.837991557200439e-05,-1.4194108189258259e-05,-8.570728823542595e-06,5.811876690131612e-05
-2.5137402190011926e-05,4.5369328290689737e-05,-1.59825667651603e-05,-7.510842806368601e-06,5.611485175904818e-05
-2.5294924853369594e-05,2.619517908897251e-05,-1.0430429028929211e-05,-1.1403803000575863e-05,5.634735498460941e-05
-2.750777821347583e-05,1.4409578398044687e-05,1.4740717233507894e-06,-1.3534820936911274e-05,5.85305861022789e-05
-3.1143372325459495e-05,1.4377340448845644e-05,1.2014538697258104e-05,-1.2271731065993663e-05,5.552171205636114e-05
-3.6429541069082916e-05,2.0915427739964798e-05,1.5953164620441385e-05,-7.675693268538453e-06,5.160777072887868e-05
-4.326030830270611e-05,2.7144142222823575e-05,1.993861405935604e-05,-3.132678330075578e-06,5.198718645260669e-05
-4.8332312871934846e-05,3.097405351581983e-05,2.5937839382095262e-05,-1.6800274806882953e-06,5.0519025535322726e-05
-4.925659959553741e-05,3.947050936403684e-05,2.585938091215212e-05,-3.972156719100894e-06,4.934768003295176e-05
-4.4106433051638305e-05,4.7674140660092235e-05,1.8804226783686318e-05,-5.5274135775107425e-06,5.267119922791608e-05
-3.698220461956225e-05,4.882292705588043e-05,1.6733711163396947e-05,-3.3422797969251405e-06,6.179502815939486e-05
-3.1990006391424686e-05,4.1174422221956775e-05,1.872636130428873e-05,-1.3876839375370764e-06,6.922135798959062e-05
-3.597182148951106e-05,2.7316507839714177e-05,2.0188714188407175e-05,-5.311257609719178e-06,6.972497067181394e-05
-4.7737587010487914e-05,1.598304334038403e-05,1.9133751266053878e-05,-9.502298780716956e-06,6.611807475565001e-05
-5.3867250244366005e-05,7.287884272955125e-06,1.4680961612612009e-05,-6.7704181674344e-06,6.362898420775309e-05
-5.229123053140938e-05,8.112146133498754e-06,7.834377356630284e-06,-4.192003416392254e-06,6.316499639069661e-05
-5.2314095228211954e-05,1.5266661648638546e-05,3.512599505484104e-06,-2.0529894300125306e-06,6.100148311816156e-05
-5.550119749386795e-05,2.3179769414127804e-05,5.4988872761896346e-06,1.9946398310821678e-08,5.914874782320112e-05
-5.305168087943457e-05,2.8157646738691255e-05,9.558920282870531e-06,-1.4766278582101222e-06,6.069266964914277e-05
-4.6514203859260306e-05,2.7216534363105893e-05,1.1543100299604703e-05,-5.871629582543392e-06,6.684831896563992e-05
-3.882746386807412e-05,2.701668199733831e-05,8.083581633400172e-06,-8.6343934526667e-06,6.983515049796551e-05
-2.7926174880121835e-05,3.144611036987044e-05,2.882389026126475e-06,-1.1551405805221293e-05,6.529616075567901e-05
-1.8636706954566762e-05,3.5006665711989626e-05,-7.294822239600762e-07,-1.4836206901236437e-05,5.7842349633574486e-05
-1.3603425031760707e-05,3.441629814915359e-05,-2.770799710560823e-06,-1.6165748093044385e-05,5.436163701233454e-05
-7.997022294148337e-06,3.534345160005614e-05,-5.485176188813057e-06,-1.3728292287851218e-05,5.5355721997329965e-05
-6.454535650846083e-06,3.965313226217404e-05,-6.573536666110158e-06,-8.720237929082941e-06,5.618172508548014e-05
-2.0127305106143467e-05,4.71094754175283e-05,-5.8074210755876265e-06,-7.52611413190607e-06,5.563047670875676e-05
-4.700712815974839e-05,5.198705548536964e-05,-5.9659237194864545e-06,-1.210616755997762e-05,5.80841297050938e-05
-6.281970854615793e-05,5.0292714149691164e-05,-5.536659045901615e-06,-1.624384276510682e-05,6.298319931374863e-05
-4.439784606802277e-05,4.383547275210731e-05,5.35034757831454e-07,-1.4273357010097243e-05,6.471241795225069e-05
-5.576046987698646e-06,3.917267167707905e-05,6.719576958857942e-06,-7.393712166958721e-06,6.392344948835671e-05
1.0122428648173809e-05,3.3998305298155174e-05,5.941103609075071e-06,-3.1836484595260117e-06,6.271477468544617e-05
-9.544619388179854e-06,2.5527449906803668e-05,3.344120614201529e-06,-3.6015530895383563e-06,6.148434476926923e-05
-3.967531301896088e-05,1.167871323559666e-05,2.5177537281706464e-06,-4.122406608075835e-06,6.138518074294552e-05
-5.794789467472583e-05,-6.541748689414817e-07,4.083020485268207e-06,-4.566648840409471e-06,6.147655221866444e-05
-4.3600706703728065e-05,-1.7018243170241476e-07,6.894382750033401e-06,-6.2073845583654474e-06,6.081870378693566e-05
1.1772784773711464e-06,7.961874871398322e-06,5.529139343707357e-06,-9.624041013012175e-06,6.12682561040856e-05
4.165887730778195e-05,1.8180202459916472e-05,5.483791028382257e-06,-1.052829156833468e-05,6.074713746784255e-05
4.775355409947224e-05,3.4186465200036764e-05,9.250519724446349e-06,-1.2113231605326291e-05,5.7679146266309544e-05
2.289604344696272e-05,5.353873348212801e-05,1.4878654837957583e-05,-1.4467159417108633e-05,5.422529284260236e-05
-9.403576768818311e-06,6.378618854796514e-05,2.1337900761864148e-05,-1.4772168469789904e-05,5.46068768016994e-05
-2.6223448003293015e-05,6.367045716615394e-05,1.9751734726014547e-05,-1.205497574119363e-05,5.8357320085633546e-05
-2.2679541871184483e-05,5.793679156340659e-05,1.2720412996714003e-05,-1.0335254955862183e-05,5.965212403680198e-05
-1.3543793102144264e-05,4.926440306007862e-05,9.053467692865524e-06,-8.504457582603209e-06,5.8736331993713975e-05
-6.6036986936524045e-06,3.837810072582215e-05,1.078835703083314e-05,-6.446432962547988e-06,5.533754301723093e-05
-1.1789187738031615e-05,2.5563291274011135e-05,7.712887054367457e-06,-9.952420441550203e-06,5.109005360282026e-05
-3.169089904986322e-05,1.2047371455992106e-05,1.334216335635574e-06,-1.5533461919403635e-05,5.0037291657645255e-05
-5.641510506393388e-05,2.370023139519617e-06,-1.455925826121529e-06,-1.4630751138611231e-05,5.276790034258738e-05
-7.288285996764898e-05,-1.3062159496257664e-06,-1.5809966953383991e-06,-7.592508609377546e-06,5.77552527829539e-05
-7.085046672727913e-05,-4.803910542250378e-06,-2.259242364743841e-06,-1.1120110912088421e-06,6.0070353356422856e-05
-5.3837855375604704e-05,-5.947666068095714e-06,-6.51480013402761e-06,2.3573729777126573e-06,5.9097903431393206e-05
-4.064020322402939e-05,-1.7278399866427208e-07,-1.2271235391381197e-05,-1.0464333843884788e-09,5.9780071751447394e-05
-4.3055260903202e-05,8.54453810461564e-06,-1.4512515917886049e-05,-6.449104603234446e-06,6.1023492889944464e-05
-5.108777622808702e-05,1.5494812032557093e-05,-1.2375432561384514e-05,-1.1347255167493131e-05,6.0876474890392274e-05
-5.114571104058996e-05,2.07664561457932e-05,-8.98734651855193e-06,-9.448576747672632e-06,6.0513837524922565e-05
-3.458553328528069e-05,2.1959602236165665e-05,-3.0965488804213237e-06,-5.281291123537812e-06,6.247713463380933e-05
1.7895491737363045e-06,1.835485818446614e-05,2.53030839303392e-06,-5.525288088392699e-06,6.57904747640714e-05
4.1723167669260874e-05,9.512375072517898e-06,3.545339950505877e-06,-8.753445399634074e-06,6.833369843661785e-05
6.064357148716226e-05,-4.268622888048412e-06,3.322197471788968e-06,-9.797681741474662e-06,6.914367986610159e-05
5.043413329985924e-05,-1.0075797035824507e-05,4.587985586113064e-06,-1.0081555046781432e-05,6.587676762137562e-05
2.9353261197684333e-05,3.2848688533704262e-06,6.588304586330196e-06,-1.0669010407582391e-05,6.6697335569188e-05
1.7217269487446174e-05,2.244405732199084e-05,1.305814839724917e-05,-1.0179705896007363e-05,7.126327545847744e-05
9.201453394780401e-06,4.133862967137247e-05,2.0395385945448652e-05,-7.970653314259835e-06,7.113282481441274e-05
7.4846725510724355e-06,6.626348476856947e-05,2.5315854145446792e-05,-8.336429345945362e-06,6.670966104138643e-05
9.03070940694306e-06,8.528841863153502e-05,2.82446217170218e-05,-1.5138594790187199e-05,6.421611033147201e-05
5.668591256835498e-06,8.619407890364528e-05,2.9093151169945486e-05,-1.6227861124207266e-05,6.546157965203747e-05
-1.5038393712529796e-06,7.853927672840655e-05,2.751572901615873e-05,-1.2936422535858583e-05,6.80957964505069e-05
-1.287758641410619e-05,6.925015622982755e-05,2.5939985789591447e-05,-1.2987082300242037e-05,7.039261981844902e-05
-2.0638031855924055e-05,5.1582381274783984e-05,2.5060946427402087e-05,-1.0341715096728876e-05,7.06111968611367e-05
-1.612301821296569e-05,2.3354063159786165e-05,2.1569861928583123e-05,-9.325839528173674e-06,6.898585706949234e-05
-7.703544724790845e-06,1.0252960009893286e-06,1.944347059179563e-05,-1.089010856958339e-05,6.399780249921605e-05
-7.309326065296773e-06,3.2187203942157794e-06,1.993710975511931e-05,-1.1390938198019285e-05,5.644716293318197e-05
-1.5751011233078316e-05,1.1413962056394666e-05,1.8500710211810656e-05,-1.104925831896253e-05,5.057456291979179e-05
-2.688019594643265e-05,1.041379709931789e-05,1.209670790558448e-05,-1.00667130027432e-05,4.764952609548345e-05
-3.3896118111442775e-05,4.3357349568395875e-06,7.1930253398022614e-06,-6.331134954962181e-06,4.775475099449977e-05
-3.0759409128222615e-05,5.381024948292179e-06,8.984687156043947e-06,-1.6997992133838125e-06,5.186979251448065e-05
-2.5797444322961383e-05,1.2885581782029476e-05,1.3069743545202073e-05,5.615249847323867e-07,5.671086910297163e-05
-3.6147663195151836e-05,2.2661042748950422e-05,1.3576126548286993e-05,-3.51348688809594e-07,5.696106018149294e-05
-6.218759517651051e-05,3.160939013469033e-05,8.95949051482603e-06,-3.926689714717213e-06,5.1830145821440965e-05
-8.617447019787505e-05,3.706026473082602e-05,3.986641786468681e-06,-6.4886257860052865e-06,4.7679870476713404e-05
-8.612951933173463e-05,4.295019607525319e-05,1.7320658116659615e-06,-6.924561148480279e-06,4.958267163601704e-05
-5.135439278092235e-05,4.614776116795838e-05,8.023259852052433e-07,-5.840504854859319e-06,5.579107892117463e-05
-2.7654953100864077e-06,4.1635739762568846e-05,2.4197028380967822e-08,-4.228375473758206e-06,6.241449591470882e-05
1.9038858226849698e-05,3.3952346711885184e-05,2.3293311812722095e-07,-3.1699601095169783e-06,6.607697287108749e-05
9.721494279801846e-06,2.5094808734138496e-05,1.3551107258535922e-06,-4.567858468362829e-06,6.623611261602491e-05
-3.4364970815659035e-06,9.300220881414134e-06,2.0712948298751144e-06,-8.170690307451878e-06,6.694400508422405e-05
-4.3223012653470505e-06,-8.716413503861986e-06,2.432044084343943e-06,-1.3655034308612812e-05,7.063295925036073e-05
-5.033236902818317e-06,-1.3661806406162214e-05,3.6170881685393397e-06,-1.64492339536082e-05,7.262585131684318e-05
-1.3448783647618257e-05,6.7353976191952825e-06,4.383006853458937e-06,-1.6451504052383825e-05,6.836133979959413e-05
-2.442478398734238e-05,3.4015127312159166e-05,3.4850224892579718e-06,-1.8168373571825214e-05,6.303243571892381e-05
-3.112875856459141e-05,4.7495661419816315e-05,1.8675417550184648e-06,-1.8437782273394987e-05,6.283567199716344e-05
-3.057123103644699e-05,4.986198109691031e-05,1.5775821111674304e-06,-1.4955076949263457e-05,6.625364039791748e-05
-3.209431088180281e-05,5.288726242724806e-05,5.33849333805847e-06,-1.3239980034995824e-05,6.955651042517275e-05
-3.6177149013383314e-05,5.322544166119769e-05,7.22950335330097e-06,-1.4830444342806004e-05,6.956624565646052e-05
-3.607479084166698e-05,4.566767529468052e-05,1.8907560388470301e-06,-1.7249039956368506e-05,6.287454743869603e-05
-3.0467401302303188e-05,3.640460636233911e-05,-5.6738440434855875e-06,-2.050646253337618e-05,5.414143015514128e-05
-2.5380419174325652e-05,3.147083771182224e-05,-8.722487109480426e-06,-2.3741360564599745e-05,5.091264392831363e-05
-2.576850965851918e-05,3.189271592418663e-05,-5.941083600191632e-06,-2.1239568013697863e-05,5.2373874495970085e-05
-2.9882423405069858e-05,3.062574614887126e-05,-3.919277787645115e-06,-1.4136176105239429e-05,5.3056755859870464e-05
-3.3176715078298e-05,1.7316049707005732e-05,-7.525243745476473e-06,-1.0827428013726603e-05,5.29881872353144e-05
-3.7358986446633935e-05,6.389481313817669e-06,-1.376443378831027e-05,-1.3879724065191112e-05,5.345838508219458e-05
-3.9350932638626546e-05,8.396082193939947e-06,-1.5949835869832896e-05,-1.8061286027659662e-05,5.2031151426490396e-05
-3.6914352676831186e-05,1.721516491670627e-05,-1.1428575817262754e-05,-1.801058533601463e-05,5.1927952881669626e-05
-3.775691584451124e-05,2.2368012650986202e-05,-4.500021987041691e-06,-1.3884156032872852e-05,5.470331234391779e-05
-4.322576933191158e-05,2.097466312989127e-05,-3.224352894903859e-06,-1.161682030215161e-05,5.736465391237289e-05
-4.5676264562644064e-05,1.9031931515200995e-05,-6.768570528947748e-06,-1.4358898624777794e-05,5.802454688819125e-05
-4.135315612074919e-05,1.877664544736035e-05,-8.07179185358109e-06,-1.891574720502831e-05,5.683185736415908e-05
-3.294121415819973e-05,2.101092650264036e-05,-6.314547135843895e-06,-1.9824450646410696e-05,5.5523654737044126e-05
-2.6108938982360996e-05,2.4564049454056658e-05,-5.945995781075908e-06,-1.3372438843362033e-05,5.660860188072547e-05
-2.4705535906832665e-05,2.957776450784877e-05,-5.29647422808921e-06,-1.3352987480175216e-06,5.981971844448708e-05
-2.686701191123575e-05,3.6325131077319384e-05,-5.849598892382346e-06,9.533795491734054e-06,6.219325587153435e-05
-3.60930098395329e-05,4.244847877998836e-05,-1.4704070963489357e-05,1.4278704838943668e-05,6.243527604965493e-05
-4.709200220531784e-05,4.1745744965737686e-05,-2.2656309738522395e-05,1.361891827400541e-05,6.045793634257279e-05
-3.8606023736065254e-05,3.997098247054964e-05,-2.224585841759108e-05,1.4499488315777853e-05,5.695181971532293e-05
7.456788353010779e-06,4.397442899062298e-05,-1.5009331036708318e-05,1.9565812181099318e-05,5.64526671951171e-05
7.499918137909845e-05,4.678124241763726e-05,-2.7198966563446447e-06,2.0015093468828127e-05,5.97827929595951e-05
0.00011196747072972357,4.249971607350744e-05,1.0698487130866852e-05,1.4457364159170538e-05,6.609215779462829e-05
6.582127389265224e-05,3.797070530708879e-05,2.038059028564021e-05,9.307583241024986e-06,7.18337541911751e-05
-2.068785579467658e-05,3.2336418371414766e-05,2.7578813387663104e-05,3.438141447986709e-06,6.987738743191585e-05
-7.191949407570064e-05,2.542974652897101e-05,3.168781768181361e-05,-8.108720066957176e-06,6.365676381392404e-05
-9.356532973470166e-05,1.4784936865908094e-05,2.4893628506106324e-05,-2.1273539459798485e-05,5.6521035730838776e-05
-0.00011869362788274884,7.061644282657653e-06,1.0128741450898815e-05,-3.452186501817778e-05,5.104997762828134e-05
-0.00015334435738623142,1.110077300836565e-05,-7.590627433273767e-07,-4.663929212256335e-05,4.8664889618521556e-05
-0.00016824621707201004,1.8910202925326303e-05,-1.5389553027489455e-06,-5.9899568441323936e-05,4.8743371735326946e-05
-0.00013703430886380374,2.399538607278373e-05,-7.324048851842235e-07,-7.130028097890317e-05,4.7084751713555306e-05
-5.804984539281577e-05,3.1379866413772106e-05,-3.0629253160441294e-06,-7.03146870364435e-05,3.888928040396422e-05
1.7269721865886822e-05,3.688518700073473e-05,-3.6276078390073963e-06,-5.674462954630144e-05,2.922100611613132e-05
3.541526893968694e-05,3.4758311812765896e-05,1.076025000656955e-06,-4.235556843923405e-05,2.011941251112148e-05
1.779482772690244e-06,3.0643437639810145e-05,8.331208846357185e-06,-3.340878174640238e-05,1.0646276678016875e-05
-3.400894638616592e-05,2.9302380426088348e-05,1.094032995752059e-05,-2.65552425844362e-05,4.428559805091936e-06
-4.033110599266365e-05,2.724907608353533e-05,8.895807695807889e-06,-2.175635745516047e-05,6.739000582456356e-06
-2.6028856154880486e-05,1.939615140145179e-05,4.866128165303962e-06,-1.9523764422046952e-05,1.5178679859673139e-05
-1.3278689948492683e-05,1.0387539077783003e-05,5.680888079950819e-07,-1.7431622836738825e-05,2.5815666958806105e-05
-1.3657763702212833e-05,1.5040658581710886e-05,-1.3867818324797554e-06,-1.6385487469960935e-05,3.7168611015658826e-05
-2.0670806406997144e-05,4.3042578909080476e-05,-1.9750116280192742e-06,-1.7350535927107558e-05,5.02090624650009e-05
-2.3906855858513154e-05,7.069522689562291e-05,-3.1682832286605844e-06,-1.639750371396076e-05,6.58998396829702e-05
-2.0258623408153653e-05,7.376996654784307e-05,-1.3910245115766884e-06,-1.542906647955533e-05,8.605032053310424e-05
-1.433750003343448e-05,6.18412159383297e-05,2.2056819943827577e-06,-1.3743936506216414e-05,0.0001113359394366853
-6.352746368065709e-06,5.281159974401817e-05,5.269143002806231e-06,-9.108527592616156e-06,0.00013258621038403362
-4.8245278776448686e-06,4.67690042569302e-05,7.416378593916306e-06,-2.3465941012545954e-06,0.00014185051259119064
-5.495342520589475e-06,3.903105607605539e-05,5.627553946396802e-06,1.8732180251390673e-06,0.0001417414314346388
-2.3470111045753583e-06,3.4998334740521386e-05,-6.46259081804601e-07,3.8911130104679614e-06,0.0001382493501296267
-6.090590886742575e-06,3.545765866874717e-05,-4.745477781398222e-06,9.753756785357837e-06,0.00013648519234266132
-3.284916601842269e-05,3.450206349953078e-05,-2.9404529868770624e-06,1.326490928477142e-05,0.00013273244258016348
-6.319663225440308e-05,3.9609858504263684e-05,2.233093709946843e-06,1.1838026694022119e-05,0.00012019048153888434
-7.484047091566026e-05,4.7641591663705185e-05,1.0391438081569504e-05,9.065029189514462e-06,0.00010213644418399781
-7.629841275047511e-05,5.508436152013019e-05,1.8899179849540815e-05,6.538549314427655e-06,7.919799827504903e-05
-7.164575799833983e-05,5.675797729054466e-05,2.3789052647771314e-05,7.927425940579269e-06,5.588897693087347e-05
-5.929516555625014e-05,4.340536179370247e-05,2.546114228607621e-05,9.899626093101688e-06,4.417082527652383e-05
-3.901852687704377e-05,2.076782584481407e-05,2.36943469644757e-05,1.0908424883382395e-05,4.7490033466601744e-05
-2.6843099476536736e-05,7.205021574918646e-07,1.753801006998401e-05,9.165340088657103e-06,5.31884579686448e-05
-2.4209155526477844e-05,-2.429781943646958e-06,1.4533992725773714e-05,5.262156719254563e-06,5.3098570788279176e-05
-1.6615675122011453e-05,9.05281376617495e-06,1.4551412277796771e-05,9.68945755630557e-07,4.771626117872074e-05
-6.246461452974472e-06,2.0164656234555878e-05,1.6865737052285112e-05,-4.025360794912558e-06,4.0503513446310535e-05
-1.0013997780333739e-05,2.4203409338952042e-05,2.2904103389009833e-05,-9.799203326110728e-06,3.655390901258215e-05
-3.186895992257632e-05,2.2419617380364798e-05,2.564024180173874e-05,-1.3971579392091371e-05,3.830923742498271e-05
-5.053494169260375e-05,1.9091936337645166e-05,2.225082971563097e-05,-1.2920762856083456e-05,4.262226138962433e-05
-4.673892181017436e-05,1.919486567203421e-05,1.4591162653232459e-05,-8.747970241529401e-06,4.3766889575636014e-05
-2.683586353668943e-05,2.3374104785034433e-05,7.806384019204415e-06,-6.2279959820443764e-06,4.322611493989825e-05
-9.514124940324109e-06,2.6630557840690017e-05,4.407180767884711e-06,-9.461557056056336e-06,4.456761962501332e-05
-2.817901986418292e-06,2.6083382181241177e-05,1.9515243820933392e-06,-1.3779647815681528e-05,4.601856926456094e-05
-2.0916602352372138e-06,3.0462286304100417e-05,2.1771737124254287e-07,-1.1665030797303189e-05,4.67288373329211e-05
-3.155519834763254e-06,4.6913894038880244e-05,6.92281219016877e-07,-3.519100573612377e-06,5.034027708461508e-05
-1.0294499588781036e-05,6.79690929246135e-05,6.718028089380823e-07,5.492707714438438e-06,5.7227156503358856e-05
-1.8475235265213996e-05,8.077789971139282e-05,-1.3320848779585504e-07,1.289105239266064e-05,6.545435462612659e-05
-1.7724714780342765e-05,8.022572728805244e-05,2.2542046735907206e-06,1.662633439991623e-05,7.29082603356801e-05
-1.5464069292647764e-05,6.671254959655926e-05,6.683099400106585e-06,1.76592238858575e-05,7.632835331605747e-05
-2.3776476155035198e-05,4.854796134168282e-05,6.566033789567882e-06,1.5562398402835242e-05,7.675476808799431e-05
-3.891921369358897e-05,4.3721593101508915e-05,5.450741809909232e-06,1.6026207958930172e-05,7.93828658061102e-05
-5.829776273458265e-05,4.137787254876457e-05,1.2479314136726316e-05,2.523120383557398e-05,7.721676956862211e-05
-8.171426452463493e-05,1.6967500414466485e-05,2.08360179385636e-05,3.2740157621447e-05,5.9597328800009564e-05
-9.569032408762723e-05,-7.699070920352824e-06,2.363327075727284e-05,3.0269873604993336e-05,3.4253811463713646e-05
-8.580654684919864e-05,-1.3974388821225148e-05,2.3370303097181022e-05,2.8515538360807113e-05,8.935509868024383e-06
-4.2399202357046306e-05,-2.0067893274244852e-05,2.253187085443642e-05,2.8959557312191464e-05,-1.1206184353795834e-05
-8.756237548368517e-07,-2.8853088224423118e-05,1.861181044660043e-05,2.6752177291200496e-05,-2.0613771994248964e-05
-4.214556611259468e-06,-3.070736784138717e-05,1.384620918543078e-05,2.356627373956144e-05,-2.2367526980815455e-05
-2.4667564503033645e-05,-2.4159271561075002e-05,1.4074049431656022e-05,1.7309166651102714e-05,-1.5246642760757823e-05
-3.529553578118794e-05,-1.9820936358883046e-05,1.190474631584948e-05,6.815267170168227e-06,-5.908638627261098e-07
-4.0545080992160365e-05,-2.3969065296114422e-05,7.333662779274164e-06,-8.486145816277713e-06,1.5051897207740694e-05
-4.720659853774123e-05,-2.370977381360717e-05,5.142568170413142e-06,-2.136513649020344e-05,2.5409808586118743e-05
-5.0312253733864054e-05,-1.333798445557477e-05,4.106820597371552e-06,-2.9440167054417543e-05,3.157154060318135e-05
-4.9194972234545276e-05,-7.155345542741998e-07,3.378644350959803e-06,-3.699892477015965e-05,3.165996167808771e-05
-4.5445834985002875e-05,7.05358888808405e-06,7.49523223930737e-07,-4.909649942419492e-05,2.523642615415156e-05
-2.7935153411817737e-05,1.025084566208534e-05,-1.955244897544617e-06,-6.237454363144934e-05,1.2968813280167524e-05
1.072428494808264e-05,1.094460367312422e-05,-1.819105591494008e-06,-7.09293017280288e-05,1.3783425174551667e-06
5.610470907413401e-05,1.4662844478152692e-05,-4.830959824175807e-06,-6.976985605433583e-05,4.725533017335692e-06
7.53488129703328e-05,2.292854514962528e-05,-1.4803825251874514e-05,-6.114705320214853e-05,3.0069224521867e-05
5.993744343868457e-05,3.1765095627633855e-05,-2.2721398636349477e-05,-5.353301821742207e-05,6.511396350106224e-05
3.371242564753629e-05,3.774569267989136e-05,-2.1553545593633316e-05,-4.9279056838713586e-05,8.990811329567805e-05
1.725036054267548e-05,4.137471114518121e-05,-1.2406708265189081e-05,-4.787911893799901e-05,0.00010012186248786747
4.815060492546763e-06,4.4204829464433715e-05,9.757900443219114e-08,-4.5687884266953915e-05,0.0001037788315443322
-1.0624495189404115e-05,4.727117266156711e-05,1.0987999303324614e-05,-3.778053360292688e-05,0.00010618940723361447
-2.4892950023058802e-05,4.846729279961437e-05,1.8155380530515686e-05,-2.4222330466727726e-05,0.0001048363046720624
-2.8403452233760618e-05,4.6321703848661855e-05,2.6021982193924487e-05,-1.3186684554966632e-05,0.00010403994383523241
-2.107863110722974e-05,4.6011056838324293e-05,3.5980217944597825e-05,-1.1513161553011741e-05,0.0001106418130802922
-7.357296453847084e-06,4.8766953113954514e-05,4.040969361085445e-05,-1.602644260856323e-05,0.00012722157407552004
5.377679372031707e-06,4.7659479605499655e-05,3.643360469141044e-05,-1.4312335224531125e-05,0.00014251488028094172
5.460116426547756e-06,4.0409358916804194e-05,3.0600582249462605e-05,-6.668163337053556e-07,0.00014405208639800549
-4.235617780068424e-06,3.623189331847243e-05,2.3523693016613834e-05,1.1830346920760348e-05,0.0001341725146630779
-7.833965355530381e-06,3.4743967262329534e-05,1.977277315745596e-05,1.7297805243288167e-05,0.0001232251088367775
-1.127796986111207e-05,3.095502688665874e-05,2.309003502887208e-05,2.3335578589467332e-05,0.00011479552631499246
-2.7885946110473014e-05,3.0466486350633204e-05,2.7941012376686558e-05,2.8912527341162786e-05,0.00010563594696577638
-5.093312938697636e-05,3.8668466004310176e-05,3.182385262334719e-05,2.98113955068402e-05,9.820172272156924e-05
-6.48079949314706e-05,4.525144322542474e-05,3.436608676565811e-05,2.483038042555563e-05,9.532006515655667e-05
-5.953258369117975e-05,4.0708411688683555e-05,3.62482423952315e-05,1.9698260075529106e-05,8.857183274812996e-05
-4.1157210944220424e-05,3.3943713788175955e-05,3.432210723985918e-05,1.0268204277963378e-05,7.884737715357915e-05
-2.299077641509939e-05,3.2753494451753795e-05,3.066402132390067e-05,2.339344291613088e-06,7.063466182444245e-05
-1.998659354285337e-05,3.1156192562775686e-05,2.52188510785345e-05,-5.014790644963796e-07,6.501745519926772e-05
-2.9823631848557852e-05,2.923422107414808e-05,1.7224294424522668e-05,-3.8150719774421304e-06,6.24026361037977e-05
-3.867246414301917e-05,2.9113389246049337e-05,1.0407435183878988e-05,-1.1458306289569009e-05,6.353874778142199e-05
-4.218886169837788e-05,3.0085067919571884e-05,5.847230568178929e-06,-2.0782719730050303e-05,6.709236185997725e-05
-4.4668526243185624e-05,2.9193684895290062e-05,3.261745177951525e-06,-2.696884621400386e-05,6.914310506545007e-05
-4.7904370148899034e-05,2.9089113013469614e-05,-1.781750142981764e-07,-3.160553387715481e-05,6.380218837875873e-05
-5.0895047024823725e-05,3.0043403967283666e-05,-5.630939540424151e-06,-3.5104436392430216e-05,4.745713158627041e-05
-5.2875271649099886e-05,2.671395668585319e-05,-1.0194831702392548e-05,-3.669518628157675e-05,2.114684320986271e-05
-5.2422459702938795e-05,2.0718480300274678e-05,-1.0347409443056677e-05,-3.296934664831497e-05,-1.261224224435864e-05
-5.1566043111961335e-05,2.0179541024845093e-05,-6.235423370526405e-06,-2.2701375200995244e-05,-3.739076782949269e-05
-5.726006565964781e-05,2.662927181518171e-05,-3.7062898172735004e-07,-5.405760475696297e-06,-3.6399418604560196e-05
-6.3717583543621e-05,3.1671497708885e-05,2.5563656436133897e-06,6.1820910559617914e-06,-1.8765193090075627e-05
-5.2426676120376214e-05,3.438351268414408e-05,3.436231850173499e-07,4.126803560211556e-06,1.41334581371666e-07
-2.8513906727312133e-05,3.0149685699143447e-05,-4.699226337834261e-06,-7.357646609307267e-06,2.0337758542154916e-05
-1.4182195627654437e-05,2.6674042601371184e-05,-7.109183570719324e-06,-1.819721728679724e-05,4.129047010792419e-05
-8.779165000305511e-06,3.61886850441806e-05,-4.552153768599965e-06,-2.1356187062337995e-05,5.696193329640664e-05
6.715483209518425e-07,4.2872743506450206e-05,-2.0231830148986774e-06,-2.1904290406382643e-05,5.934721775702201e-05
1.5169987818808295e-05,3.7253623304422945e-05,-7.4582135312084574e-06,-2.2371723389369436e-05,5.36859552084934e-05
2.7213129214942455e-05,2.552943624323234e-05,-1.4993449440225959e-05,-2.3909862647997215e-05,4.2819392547244206e-05
3.100225512753241e-05,1.7806070900405757e-05,-1.7694777852739207e-05,-2.7579351808526553e-05,2.9252849344629794e-05
2.9137607270968147e-05,2.1455773094203323e-05,-1.752823118295055e-05,-2.9907409043516964e-05,2.2398255168809555e-05
1.976144631044008e-05,2.3306540242629126e-05,-1.6402558685513213e-05,-2.9318529414013028e-05,2.7294427127344534e-05
7.571068039169404e-08,2.1539857698371634e-05,-1.7047348592313938e-05,-2.0926558136125095e-05,4.004346556030214e-05
-3.60699268640019e-05,1.9176133719156496e-05,-1.662187605688814e-05,-1.3184483577788342e-05,5.575806790147908e-05
-9.074117406271398e-05,1.8332068066229112e-05,-1.1762183021346573e-05,-1.2467284250305966e-05,6.556716107297689e-05
-0.00013738125562667847,2.204913107561879e-05,-2.423011892460636e-06,-1.2368734132905956e-05,6.1907441704534e-05
-0.00014614009705837816,2.616984238557052e-05,2.0645059066737304e-06,-8.571596481488086e-06,5.448126466944814e-05
-0.00011321848432999104,2.760128518275451e-05,-2.8129529709985945e-06,-8.810608960629907e-06,6.001180736348033e-05
-6.307732837740332e-05,2.437369585095439e-05,-1.0579572517599445e-05,-1.8091250240104273e-05,7.905027450760826e-05
-1.7996288079302758e-05,2.182226671720855e-05,-1.3125019904691726e-05,-2.7536385459825397e-05,9.480908920522779e-05
1.3108096936775837e-05,2.271401353937108e-05,-1.121430796047207e-05,-2.9733746487181634e-05,9.435547690372914e-05
2.2898942916071974e-05,2.271449011459481e-05,-7.562392056570388e-06,-2.7478226911625825e-05,7.357442518696189e-05
1.4799448763369583e-05,2.107877480739262e-05,-8.331889489454625e-07,-2.4411221602349542e-05,3.664456744445488e-05
1.5297918025680701e-06,2.5332377845188603e-05,6.224556727829622e-06,-1.727449125610292e-05,-5.009562755731167e-06
-7.872856258472893e-06,3.772889613173902e-05,9.113108717428986e-06,-6.031249995430699e-06,-3.492003452265635e-05
-1.61534444487188e-05,4.871626879321411e-05,8.24914786790032e-06,8.359295861737337e-06,-3.917543654097244e-05
-2.582821798569057e-05,5.1062525017187e-05,7.086000550771132e-06,2.1333416952984408e-05,-1.598326889507007e-05
-3.297527655377053e-05,4.3400301365181804e-05,8.384748980461154e-06,2.629219125083182e-05,2.286297603859566e-05
-3.980715337092988e-05,3.1776842661201954e-05,9.387036698171869e-06,1.827685446187388e-05,6.451896479120478e-05
-4.842306225327775e-05,2.4548509827582166e-05,6.289446446317015e-06,9.452739959669998e-07,0.00010560653754509985
-4.868837277172133e-05,2.268352181999944e-05,1.6862920801941073e-06,-1.780697493813932e-05,0.0001445938687538728
-3.4529424738138914e-05,2.178061731683556e-05,-1.8200711338067777e-06,-3.336361260153353e-05,0.00016633167979307473
-1.698587766441051e-05,1.4287624253483955e-05,-2.9662878660019487e-06,-4.971824091626331e-05,0.0001561151584610343
-9.744882845552638e-06,7.702765287831426e-06,-4.621572770702187e-06,-6.86760395183228e-05,0.0001270888897124678
-7.721990186837502e-06,6.871481218695408e-06,-6.783009212085744e-06,-8.750670531298965e-05,0.00010174346243729815
9.227624673258106e-07,3.819607627519872e-06,-6.9921784415782895e-06,-9.793660865398124e-05,8.338607585756108e-05
8.516268280800432e-06,7.603054655191954e-06,-3.575574055503239e-06,-9.891283843899146e-05,7.060218922561035e-05
4.195806013740366e-06,2.596328704385087e-05,-2.5913945478350797e-07,-9.601165947970003e-05,6.365466833813116e-05
-4.993483798898524e-06,4.763099423144013e-05,-1.4966313983677537e-06,-8.408210123889148e-05,6.219614442670718e-05
-1.5781051843077876e-05,6.272888276726007e-05,-7.111686954885954e-06,-6.262103124754503e-05,6.307051808107644e-05
-2.7802574550150894e-05,7.16267604730092e-05,-1.1844350410683546e-05,-3.9820497477194294e-05,6.395640230039135e-05
-3.166650276398286e-05,7.234136137412861e-05,-1.2112534022890031e-05,-2.309862793481443e-05,6.624509114772081e-05
-2.5115041353274137e-05,5.954948210273869e-05,-9.246630725101568e-06,-1.1945148798986338e-05,6.926044443389401e-05
-1.892923864943441e-05,4.089666617801413e-05,-6.871175173728261e-06,-4.403714228828903e-06,7.321057637454942e-05
-2.0465831767069176e-05,2.7997266442980617e-05,-6.38184337731218e-06,-2.3185987174656475e-06,7.96881431597285e-05
-2.7930263968301006e-05,2.2229040041565895e-05,-4.692098627856467e-06,-3.1136082725424785e-06,8.840134250931442e-05
-3.769139220821671e-05,1.843709651438985e-05,-7.64697460908792e-08,-2.421660099116707e-07,9.695209882920608e-05
-4.385253123473376e-05,1.1877262295456603e-05,3.5685509374161484e-06,5.787655936728697e-06,0.00010152280447073281
-4.230042395647615e-05,6.845122243248625e-06,6.064913577574771e-06,1.0949675925076008e-05,0.00010347873467253521
-3.296124850749038e-05,1.0668263712432235e-05,8.670150236866903e-06,1.4659101907454897e-05,0.00010419027239549905
-2.4126022253767587e-05,2.0108682292629965e-05,9.467049494560342e-06,2.0235989723005332e-05,0.00010660457337507978
-1.8520655430620536e-05,2.5564500901964493e-05,9.76708088273881e-06,2.790500184346456e-05,0.00011324214574415237
-1.564331614645198e-05,2.7828609745483845e-05,1.2259378308954183e-05,3.5378434404265136e-05,0.00011760568304453045
-1.7550575648783706e-05,3.226469925721176e-05,1.6342266462743282e-05,3.866432962240651e-05,0.00010949726129183546
-2.5582281523384154e-05,3.7386067560873926e-05,1.8230117348139174e-05,3.403771188459359e-05,8.750826236791909e-05
-3.7550875276792794e-05,4.177838491159491e-05,1.7347929315292276e-05,2.1514697436941788e-05,5.984707968309522e-05
-4.871371129411273e-05,4.071176590514369e-05,1.4751956769032404e-05,1.1382693628547713e-05,3.234038013033569e-05
-5.789048009319231e-05,2.84430461761076e-05,1.399968004989205e-05,2.0238298020558432e-05,2.7958535611105617e-06
-6.392697832779959e-05,1.459315899410285e-05,1.6088008123915642e-05,4.623115819413215e-05,-3.162977009196766e-05
-5.7113124057650566e-05,9.33422961679753e-06,2.104596933349967e-05,7.232513598864898e-05,-5.270423571346328e-05
-4.268443808541633e-05,3.837216809188249e-06,2.622315332700964e-05,8.639278530608863e-05,-4.335137418820523e-05
-2.7850523110828362e-05,-8.86680845724186e-06,2.84997822745936e-05,9.000184218166396e-05,-1.3694475455849897e-05
-1.2331054676906206e-05,-3.751204502577821e-08,2.4690463760634884e-05,9.242826490662992e-05,7.182180979725672e-06
-1.7837905943451915e-06,2.833178950822912e-05,1.903083648358006e-05,9.38808370847255e-05,1.2970370335096959e-05
1.4534037973135128e-06,4.509073914960027e-05,1.6072768630692735e-05,9.011253132484853e-05,2.3219910872285254e-05
-4.111130692763254e-06,4.574441845761612e-05,1.2556024557852652e-05,7.684543379582465e-05,4.387694571050815e-05
-6.9277966758818366e-06,3.654831016319804e-05,9.261675586458296e-06,5.867972140549682e-05,6.269388541113585e-05
-7.829710739315487e-06,3.52655588358175e-05,8.724337021703832e-06,4.868983887718059e-05,6.821292481618002e-05
-1.3651735571329482e-05,3.673061291920021e-05,9.622181096347049e-06,4.441415876499377e-05,5.939910624874756e-05
-2.6671254090615548e-05,3.421663132030517e-05,9.262113053409848e-06,3.537135125952773e-05,3.275338531238958e-05
-3.7920279282843694e-05,2.7270260034129024e-05,7.745407856418751e-06,1.5122813238122035e-05,-2.212331992268446e-06
-4.0521550545236096e-05,2.1853598809684627e-05,4.997500582248904e-06,-1.3949211279395968e-05,-1.570394124428276e-05
-3.691222445922904e-05,2.2788106434745714e-05,5.730135399062419e-06,-4.2792999010998756e-05,-9.78963726083748e-07
-3.1069244869286194e-05,2.5584335162420757e-05,1.448635430278955e-05,-5.3091709560249e-05,1.1933050700463355e-05
-2.397887328697834e-05,2.466967453074176e-05,2.6280829843017273e-05,-4.241920032654889e-05,5.752909970624387e-08
-1.3723983101954218e-05,2.3187951228464954e-05,3.1570278224535286e-05,-2.280186708958354e-05,-3.077084693359211e-05
-4.8491210691281594e-06,2.7948124625254422e-05,2.8328329790383577e-05,-4.196465852146503e-06,-5.805564796901308e-05
-3.557829813871649e-06,3.2515148632228374e-05,1.9455537767498754e-05,7.2385578278044704e-06,-5.6643188145244494e-05
-1.5183551113295835e-05,3.409945566090755e-05,7.548409939772682e-06,5.651460924127605e-06,-1.339955360890599e-05
-3.328920138301328e-05,3.846416439046152e-05,-3.998031843366334e-06,-1.03278762253467e-05,5.751112985308282e-05
-4.7706314944662154e-05,4.381019971333444e-05,-1.2315326785028446e-05,-3.160138294333592e-05,0.00012113824777770787
-5.0819078751374036e-05,3.875040783896111e-05,-1.8522436221246608e-05,-4.537292988970876e-05,0.0001576852664584294
-3.623331940616481e-05,2.621573548822198e-05,-2.5601380912121385e-05,-5.01636641274672e-05,0.00017316098092123866
-8.77711772773182e-06,1.5445020835613832e-05,-2.8369300707709044e-05,-6.022019442752935e-05,0.00017477272194810212
1.2430573406163603e-05,1.0750350156740751e-05,-2.6415995307615958e-05,-8.112027717288584e-05,0.00015088649524841458
1.6664278518874198e-05,1.0624366041156463e-05,-2.5001398171298206e-05,-0.00010893629223573953,8.97899953997694e-05
7.9928561547149e-08,1.4810001630394254e-05,-2.2568156055058353e-05,-0.00012861537106800824,3.3459523365308996e-06
-2.2212561816559173e-05,7.87390581535874e-06,-1.992744546441827e-05,-0.0001288498897338286,-7.365893543465063e-05
-2.2009638996678405e-05,-1.0110962648468558e-05,-2.4300519726239145e-05,-0.00010986551933456212,-0.00010910126002272591
-8.956367310020141e-06,-9.481968845648225e-06,-3.476402343949303e-05,-8.495736256008968e-05,-9.707725985208526e-05
-9.060615411726758e-06,1.1707060366461519e-05,-4.050263305543922e-05,-6.57205528113991e-05,-7.327913044719025e-05
-2.4747525458224118e-05,2.934552321676165e-05,-4.5303833758225664e-05,-5.234963828115724e-05,-4.3613279558485374e-05
-4.858556712861173e-05,3.155146259814501e-05,-4.865479422733188e-05,-3.651849692687392e-05,2.8707045203191228e-05
-6.693515024380758e-05,2.5282592105213553e-05,-4.325449117459357e-05,-1.5061061276355758e-05,0.00011923744023079053
-7.293494854820892e-05,2.314843368367292e-05,-2.8025549909216352e-05,3.688529250212014e-05,0.0001847988460212946
-6.212355219759047e-05,2.4287679480039515e-05,-4.3865404109055817e-07,0.00012782997509930283,0.00020347013196442276
-3.3079053537221625e-05,3.015399124706164e-05,3.4762189898174256e-05,0.00021640096383634955,0.00018063251627609134
9.188329386233818e-06,3.885964906658046e-05,6.327890878310427e-05,0.0002684307110030204,0.00016270419291686267
4.6519020543200895e-05,4.306640039430931e-05,7.327173807425424e-05,0.00026739772874861956,0.00018205730884801596
5.671177132171579e-05,3.8519810914294794e-05,7.047170220175758e-05,0.00023272728140000254,0.00021543032198678702
3.86071769753471e-05,3.026284321094863e-05,6.190912972670048e-05,0.00019159929070156068,0.0002248058735858649
5.458488885778934e-06,2.513196159270592e-05,5.587589475908317e-05,0.00015465475735254586,0.0001980842207558453
-2.848452641046606e-05,2.2803362298873253e-05,5.6371918617514893e-05,0.0001101725865737535,0.0001437334285583347
-5.0032551371259615e-05,2.526804200897459e-05,5.6887249229475856e-05,4.580289896694012e-05,8.256956789409742e-05
-4.545849878923036e-05,3.218764686607756e-05,5.003604383091442e-05,-2.9964572604512796e-05,3.6624609492719173e-05
-1.416893610439729e-05,3.7565871025435627e-05,3.795497468672693e-05,-0.00011261324107181281,1.1383503988326993e-05
2.213789412053302e-05,3.643172749434598e-05,2.368438617850188e-05,-0.00021580317115876824,-4.636938683688641e-06
3.1678871891926974e-05,3.411442230571993e-05,6.5618633016129024e-06,-0.00033250264823436737,-1.3118933566147462e-05
9.258863428840414e-06,3.1499545002589e-05,-7.566446583950892e-06,-0.0004183861310593784,-4.9431414481659885e-06
-2.099007906508632e-05,3.080770329688676e-05,-1.5061567864904646e-05,-0.00044729813816957176,1.2993195923627354e-05
-3.621241557993926e-05,3.1968327675713226e-05,-2.0478286387515254e-05,-0.0004221712879370898,1.4409961295314133e-05
-4.074845492141321e-05,3.081113027292304e-05,-2.7328618671162985e-05,-0.00035686406772583723,-7.388177891698433e-06
-4.901107240584679e-05,2.6691141101764515e-05,-3.543985803844407e-05,-0.00026715322746895254,-2.7120589948026463e-05
-5.513531868928112e-05,2.5267516321036965e-05,-4.373878982733004e-05,-0.00018185816588811576,-1.2179830264358316e-05
-4.656651071854867e-05,3.195950193912722e-05,-4.323835310060531e-05,-0.0001193218122352846,2.9784096113871783e-05
-3.190890492987819e-05,3.944101990782656e-05,-2.977875919896178e-05,-6.0204278270248324e-05,8.92954267328605e-05
-2.4207802198361605e-05,4.225005613989197e-05,-1.3304398635227699e-05,-1.555151720822323e-05,0.00017152426880784333
-1.9250630430178717e-05,4.869349140790291e-05,-5.447546755021904e-06,5.432335910882102e-06,0.00026785183581523597
-1.275341674045194e-05,5.5199045164044946e-05,-4.838042514165863e-06,1.5319243175326847e-05,0.0003462377062533051
-1.427952156518586e-05,5.3191612096270546e-05,-8.833650099404622e-06,9.052180757862516e-06,0.000378744734916836
-2.2445541617344134e-05,4.8370704462286085e-05,-1.4826956430624705e-05,-6.49114144835039e-06,0.00037290272302925587
-2.3129341570893303e-05,4.463081495487131e-05,-1.7546162780490704e-05,-2.3226661141961813e-05,0.000339729042025283
-1.2881601833214518e-05,4.073687159689143e-05,-1.770763446984347e-05,-3.8150294130900875e-05,0.0002862917026504874
-2.1662915514752967e-06,3.980113615398295e-05,-1.826347943278961e-05,-4.505644756136462e-05,0.0002152289089281112
5.848969067301368e-06,4.3045871279900894e-05,-1.6526350009371527e-05,-3.304517667856999e-05,0.0001512744784122333
8.70518124429509e-06,4.546017953543924e-05,-9.222982043866068e-06,-1.22472292787279e-05,0.00010863031639019027
8.939051099332573e-07,4.385219654068351e-05,9.071143836081319e-07,1.4601189832319506e-05,7.469260162906721e-05
-1.2910173609270714e-05,4.299116335459985e-05,8.266347322205547e-06,5.8989549870602787e-05,3.5550285247154534e-05
-2.6072835680679418e-05,4.418177923071198e-05,1.257609710592078e-05,0.00012606925156433135,-2.9812388220307184e-06
-3.576494054868817e-05,4.4616612285608426e-05,1.6903730283956975e-05,0.00019693464855663478,-3.7846661143703386e-05
-4.2384242988191545e-05,4.164990605204366e-05,2.370891161262989e-05,0.000240955370827578,-6.943463085917756e-05
-4.638270183932036e-05,3.7649071600753814e-05,3.023278077307623e-05,0.00024044961901381612,-8.147199696395546e-05
-5.15229330630973e-05,3.5950721212429926e-05,3.28779497067444e-05,0.0002075738739222288,-5.952377978246659e-05
-6.1651153373532e-05,3.278137228335254e-05,3.4204364055767655e-05,0.0001703198504401371,-1.517809050710639e-05
-7.804820052115247e-05,2.453150591463782e-05,3.513175397529267e-05,0.00013165941345505416,2.7401221814216115e-05
-9.853378287516534e-05,1.6630890968372114e-05,3.0828770832158625e-05,8.214104309445247e-05,5.843979670316912e-05
-0.00011513812933117151,1.6075307939900085e-05,1.9523382434272207e-05,2.9090781026752666e-05,6.359795952448621e-05
-0.00011748131510103121,2.0108640455873683e-05,8.99554925126722e-06,-7.150278520384745e-07,2.851736826414708e-05
-9.680572838988155e-05,2.0509885871433653e-05,5.964511728961952e-06,-2.881834006984718e-06,-5.249255264061503e-05
-5.8215257013216615e-05,1.5923273167572916e-05,9.301556929131038e-06,2.424953663648921e-06,-0.00017276813741773367
-2.9623915906995535e-05,1.4746477063454222e-05,1.9835570128634572e-05,-3.0313256047520554e-06,-0.00031110062263906
-2.6360883566667326e-05,1.5724570403108373e-05,3.319032839499414e-05,-2.1718471543863416e-05,-0.0004182319389656186
-3.7363362935138866e-05,1.8122405890608206e-05,3.738827217603102e-05,-5.033424895373173e-05,-0.0004510138533078134
-3.9603841287316754e-05,1.4879456102789845e-05,3.0520175641868263e-05,-7.130662561394274e-05,-0.00041290128137916327
-3.2500400266144425e-05,7.412827926600585e-06,2.3602622604812495e-05,-9.044045873451978e-05,-0.0003186192479915917
-2.00676095118979e-05,1.0456286872795317e-05,2.4502376618329436e-05,-0.00012258559581823647,-0.0001581322867423296
-2.1771015781268943e-06,2.3061787942424417e-05,2.8866532375104725e-05,-0.00015454103413503617,2.0762759959325194e-05
7.389769507426536e-06,3.476242636679672e-05,2.751439023995772e-05,-0.00017009308794513345,0.00013326546468306333
7.783901310176589e-06,3.74209375877399e-05,1.4086503142607398e-05,-0.00018411283963359892,0.00017492986808065325
5.599922133114887e-06,3.733253470272757e-05,-5.761745796917239e-06,-0.0002077704411931336,0.00018735064077191055
4.260227342456346e-06,3.89558044844307e-05,-2.402929385425523e-05,-0.0002218311419710517,0.00018934159015771002
3.6129840736975893e-06,3.68923028872814e-05,-3.4998949558939785e-05,-0.00021637511963490397,0.00020153117657173425
7.368197202595184e-06,3.027440106961876e-05,-3.785394801525399e-05,-0.00018157194426748902,0.00022735375387128443
1.6647836673655547e-05,2.5394645490450785e-05,-3.405821553315036e-05,-0.00012012501974822953,0.0002383066894253716
2.6224259272566997e-05,2.7599246095633134e-05,-2.9667216949746944e-05,-5.718873580917716e-05,0.00023363791115116328
2.9156975870137103e-05,3.278931035310961e-05,-2.20029669435462e-05,-1.4933384591131471e-05,0.00023976087686605752
2.401197525614407e-05,3.497569196042605e-05,-6.739049240422901e-06,2.269185279146768e-05,0.0002750780840869993
8.137163604260422e-06,3.6625082429964095e-05,1.159161274699727e-05,7.842160994186997e-05,0.00034579826751723886
-2.0876645066891797e-05,4.261133653926663e-05,2.629614573379513e-05,0.0001368946541333571,0.0004423758073244244
-4.940666985930875e-05,4.699047713074833e-05,3.63937251677271e-05,0.00016394910926464945,0.000519056455232203
-6.274096085689962e-05,4.520000220509246e-05,4.248966070008464e-05,0.00015350680041592568,0.0005302593344822526
-6.738606316503137e-05,4.212491330690682e-05,4.0019902371568605e-05,0.000130064960103482,0.0004730588698294014
-7.946568803163245e-05,3.477558129816316e-05,2.8422440664144233e-05,0.00010874220606638119,0.00038533122278749943
-0.00010005680815083906,2.1187917809584178e-05,1.1784806702053174e-05,8.006172720342875e-05,0.00029504051781259477
-0.00011626050400082022,7.919929885247257e-06,-2.501141960209452e-09,4.25435027864296e-05,0.00019330318900756538
-0.00011157642438774928,7.644256356797996e-07,-4.445959802978905e-06,7.434695817210013e-06,8.08582772151567e-05
-8.384035754716024e-05,3.2914033454289893e-06,-5.375718501454685e-06,-2.4685625248821452e-05,-1.5900532162049785e-05
-5.4548629123019055e-05,9.625640814192593e-06,-2.8934330202901037e-06,-4.523891402641311e-05,-8.314902515849099e-05
-3.240347723476589e-05,1.481013259763131e-05,4.3615013964881655e-06,-4.8501722631044686e-05,-0.00012201591016491875
1.0649558134900872e-05,1.7378037227899767e-05,1.2494020666053984e-05,-4.2708012188086286e-05,-0.0001461297506466508
5.441731627797708e-05,1.5855441233725287e-05,1.775436248863116e-05,-3.558129901648499e-05,-0.00017565862799528986
5.92353826505132e-05,1.5972631445038132e-05,1.9054468793910928e-05,-2.497787500033155e-05,-0.0002067786845145747
3.720206950674765e-05,2.212689105363097e-05,1.964224793482572e-05,-7.647647180419881e-06,-0.0002158719435101375
1.0177573130931705e-05,2.8790762371500023e-05,2.18257810047362e-05,1.682813854131382e-05,-0.00020593908266164362
-6.556775133503834e-06,2.8549606213346124e-05,2.1727390048909e-05,3.269005173933692e-05,-0.00018201643251813948
-1.4891664250171743e-05,2.6274617994204164e-05,1.5993762644939125e-05,2.91007509076735e-05,-0.00012777862139046192
-2.0082346964045428e-05,2.7875359592144378e-05,1.0520288014959078e-05,1.4020134585734922e-05,-3.075309723499231e-05
-2.9085820642649196e-05,2.9719527447014116e-05,1.065508240571944e-05,1.2373427125567105e-05,9.828883776208386e-05
-3.6203640775056556e-05,3.293809277238324e-05,1.2458739547582809e-05,4.222111965646036e-05,0.0001948578137671575
-3.9088718040147796e-05,3.591800850699656e-05,1.1958527466049418e-05,8.358997729374096e-05,0.00020495554781518877
-4.215743319946341e-05,3.639182250481099e-05,1.0928569281531963e-05,0.00011435973283369094,0.00013492991274688393
-4.4638454710366204e-05,3.514557465678081e-05,1.0856505468836986e-05,0.00013030337868258357,3.357970490469597e-05
-4.611912299878895e-05,3.285904313088395e-05,1.3816326827509329e-05,0.00013303641753736883,-4.91019782202784e-05
-4.282539521227591e-05,2.700240111153107e-05,1.8125805581803434e-05,0.00011735410953406245,-8.059196989051998e-05
-3.4247259463882074e-05,1.8738630387815647e-05,2.139396201528143e-05,8.653361146571115e-05,-5.215683995629661e-05
-2.509817022655625e-05,1.6116777260322124e-05,2.308918374183122e-05,5.306686580297537e-05,1.3661062439496163e-05
-2.2978176275501028e-05,1.8686227122088894e-05,1.9594090190366842e-05,2.6227791749988683e-05,6.994029536144808e-05
-2.4804416170809418e-05,2.306280111952219e-05,1.0971721167152282e-05,-5.971097039036977e-07,7.935028406791389e-05
-2.5739380362210795e-05,2.603767643449828e-05,3.506323082547169e-06,-3.654474130598828e-05,5.289638647809625e-05
-2.6328483727411367e-05,2.0029794541187584e-05,1.6741557828936493e-07,-7.216742960736156e-05,2.521472742955666e-05
-3.611718420870602e-05,8.676574907440227e-06,-1.6600102981101372e-06,-9.260673687094823e-05,1.4494677088805474e-05
-5.18403721798677e-05,3.176353402523091e-06,-5.230332590144826e-06,-9.578486060490832e-05,1.3612471775559243e-05
-5.91572024859488e-05,1.9304960119370662e-07,-1.1989145605184603e-05,-8.404023537877947e-05,7.040797299850965e-06
-4.5156426494941115e-05,4.5464907998393755e-06,-1.6865014913491905e-05,-5.767669063061476e-05,-3.1748704714118503e-06
-2.1170510080992244e-05,1.6765197869972326e-05,-1.631115810596384e-05,-2.1791971448692493e-05,-6.044906058377819e-06
-1.1144727977807634e-05,2.522011891414877e-05,-1.0950701835099608e-05,1.9025310393772088e-05,7.070980700518703e-06
-5.2821114877588116e-06,3.064753400394693e-05,-4.778055881615728e-06,8.17085528979078e-05,1.5386192899313755e-05
4.987547981727403e-06,3.557244053808972e-05,-1.37743072059493e-07,0.0001585857244208455,-8.807608537608758e-06
7.888549589551985e-06,4.030365016660653e-05,5.348606009647483e-06,0.00021883583394810557,-3.315384310553782e-05
1.3303634887051885e-06,3.968284363509156e-05,1.4466453649220057e-05,0.00025244386051781476,-4.009467374999076e-05
-1.1378327144484501e-05,3.1153467716649175e-05,2.3135484298109077e-05,0.0002487112069502473,-3.885773548972793e-05
-3.354320506332442e-05,2.610956653370522e-05,2.7164634957443923e-05,0.00021443802688736469,-2.335330100322608e-05
-5.839639561600052e-05,2.5142922822851688e-05,2.3878630599938333e-05,0.00016054880688898265,1.1944151083298493e-05
-6.960109749343246e-05,2.6465937480679713e-05,1.758274811436422e-05,9.357641829410568e-05,5.451371180242859e-05
-5.8700457884697244e-05,2.9123639251338318e-05,1.88254034583224e-05,2.091009810101241e-05,9.383158612763509e-05
-3.959038804168813e-05,2.9658491257578135e-05,2.0065714124939404e-05,-5.4970307246549055e-05,0.00011844334949273616
-3.4390297514619306e-05,2.664044404809829e-05,1.1126555364171509e-05,-0.00013949823915027082,0.00012494841939769685
-4.518231799011119e-05,2.491819759598002e-05,-3.7815543691976927e-06,-0.00023383527877740562,0.00011308897956041619
-5.884813072043471e-05,3.312020635348745e-05,-1.7122691133408807e-05,-0.0003218144702259451,7.953438762342557e-05
-5.937611058470793e-05,4.749938671011478e-05,-2.3972437702468596e-05,-0.0003787058813031763,3.4618475183378905e-05
-4.5317829062696546e-05,5.7573619415052235e-05,-2.3187192709883675e-05,-0.0003855078248307109,-1.025019992084708e-05
-2.516141648811754e-05,6.400761776603758e-05,-1.7197889974340796e-05,-0.00034901537583209574,-3.955467764171772e-05
-1.012869779515313e-05,6.933658005436882e-05,-1.0768638276204001e-05,-0.000285210320726037,-4.719494972960092e-05
-2.520099542380194e-06,6.3869942096062e-05,-5.661089744535275e-06,-0.00020388231496326625,-3.430220749578439e-05
6.337552804325242e-06,4.3288342567393556e-05,-2.8953725177416345e-06,-0.00012192554277135059,-9.422621587873437e-06
1.3371193745115306e-05,1.594490822753869e-05,-1.993159003177425e-06,-6.150267290649936e-05,1.4959455256757792e-05
2.9328987238841364e-06,-5.518279522220837e-07,-1.62742526299553e-06,-3.0104947654763237e-05,2.7534182663657703e-05
-2.5015022401930764e-05,2.319985014764825e-06,-4.310532403906109e-06,-2.119443888659589e-05,3.388693221495487e-05
-5.890503598493524e-05,1.1948106475756504e-05,-9.726658390718512e-06,-2.0475143173825927e-05,5.3005154768470675e-05
-8.1164478615392e-05,1.70957555383211e-05,-1.0735700925579295e-05,-1.4425940207729582e-05,9.319852688349783e-05
-6.605165981454775e-05,2.118463089573197e-05,-2.900040044551133e-06,7.548055236838991e-06,0.00013097358169034123
-2.2660700778942555e-05,2.384581239311956e-05,7.215107871161308e-06,3.207612826372497e-05,0.00014995239325799048
1.601681469765026e-05,2.163950375688728e-05,1.5961073586368002e-05,4.047072070534341e-05,0.00015889076166786253
2.6816080207936466e-05,1.728914685372729e-05,2.350728027522564e-05,3.7296140362741426e-05,0.00016624489217065275
1.2662273547903169e-05,1.1995067325187847e-05,2.3017624698695727e-05,3.2681567972758785e-05,0.00016017146117519587
-6.090537681302521e-06,7.33821616449859e-06,1.969446566363331e-05,2.2761301806895062e-05,0.0001402018970111385
-2.155470610887278e-05,5.04772560816491e-06,1.8996528524439782e-05,1.0170974746870343e-05,0.00013355741975829005
-2.9676575650228187e-05,5.560832050832687e-06,1.8946573618450202e-05,5.556701580644585e-06,0.00014408172864932567
-2.6426136173540726e-05,1.1671858374029398e-05,1.7375721654389054e-05,-1.1262778798482032e-06,0.0001586719008628279
-1.829000757425092e-05,1.9670846086228266e-05,1.2806965969502926e-05,-1.4242930774344131e-05,0.00015734675980638713
-1.4464412743109278e-05,2.4780934836599045e-05,9.851648428593762e-06,-3.045674202439841e-05,0.00012382803834043443
-2.4966069759102538e-05,2.8209093215991743e-05,1.2638756743399426e-05,-3.3195025025634095e-05,6.9268855440896e-05
-4.1112689359579235e-05,3.548176391632296e-05,1.7332158677163534e-05,-1.6252592104137875e-05,2.879694329749327e-05
-4.576247010845691e-05,3.973776983912103e-05,1.7236205167137086e-05,6.700639914924977e-06,2.200334165536333e-05
-3.126766750938259e-05,3.81876525352709e-05,1.4471566828433424e-05,2.035056968452409e-05,3.4538243198767304e-05
-1.0721902981458697e-05,3.579143958631903e-05,9.289489753427915e-06,2.425568709440995e-05,4.526007251115516e-05
-6.817280791437952e-06,3.654689135146327e-05,5.19814966537524e-06,2.4474900783388875e-05,5.035625144955702e-05
-1.8534316041041166e-05,3.886267586494796e-05,5.114061423228122e-06,2.4024755475693382e-05,5.9443776990519837e-05
-3.1931951525621116e-05,3.864333120873198e-05,6.8052941060159355e-06,2.6249548682244495e-05,7.661229028599337e-05
-3.9849830500315875e-05,3.576973540475592e-05,4.5101105570211075e-06,3.6269440897740424e-05,9.61746191023849e-05
-4.380460086395033e-05,3.280178862041794e-05,-1.5999040670067188e-06,6.392653449438512e-05,0.00011028122389689088
-4.656483724829741e-05,3.6832843761658296e-05,-4.620969320967561e-06,0.00010785531048895791,0.0001234464580193162
-4.947354318574071e-05,4.904347952106036e-05,-2.1885589376324788e-06,0.0001519570214441046,0.0001431252167094499
-4.3537234887480736e-05,6.054515324649401e-05,2.8202241537655937e-06,0.00017228022625204176,0.0001575137721374631
-2.777243389573414e-05,5.977184991934337e-05,4.741126303997589e-06,0.0001708340714685619,0.00014286446094047278
-1.8701262888498604e-05,5.079127731733024e-05,4.5266046981851105e-06,0.00016349136421922594,8.209636871470138e-05
-2.741515709203668e-05,4.4279906433075666e-05,6.078604201320559e-06,0.00014922163973096758,-2.4732520614634268e-05
-3.7488600355573e-05,4.792013351107016e-05,9.582633538229857e-06,0.00013083586236461997,-0.00012829502520617098
-2.8219201340107247e-05,5.732689533033408e-05,1.460747625969816e-05,0.00010732888040365651,-0.0001449801493436098
-5.097645953355823e-06,4.8106026952154934e-05,2.178382419515401e-05,7.570461457362399e-05,-8.425505075138062e-05
2.1712879970436916e-05,5.104012871015584e-06,2.8825999834225513e-05,4.1206432797480375e-05,-2.7457826945465058e-05
2.7854761356138624e-05,-2.383982064202428e-05,3.0646715458715335e-05,-2.987536618093145e-06,-5.683377821696922e-06
8.017629625101108e-06,-1.0603787814034149e-05,2.5089319024118595e-05,-4.745996920973994e-05,2.068088406304014e-06
-1.4647765055997297e-05,1.4008687685418408e-05,2.123140984622296e-05,-7.056139293126762e-05,1.3756014141108608e-06
-3.131039557047188e-05,2.6573765353532508e-05,2.258390850329306e-05,-6.858474807813764e-05,-1.3548537936003413e-05
-3.522665429045446e-05,2.0855322873103432e-05,2.4674329324625432e-05,-6.134282011771575e-05,-2.9878241548431106e-05
-3.52909009961877e-05,1.3792809113510884e-05,2.169529761886224e-05,-7.084551907610148e-05,-4.0464434277964756e-05
-4.74690277769696e-05,1.379992227157345e-05,1.4894501873641275e-05,-0.0001027763937599957,-4.6650802687508985e-05
-6.77925709169358e-05,1.6266125385300256e-05,1.0756311894510873e-05,-0.00014114270743448287,-5.5241704103536904e-05
-7.101443043211475e-05,2.0455603589653037e-05,7.496850230381824e-06,-0.00017126523016486317,-5.6749562645563856e-05
-4.600937609211542e-05,2.381285776209552e-05,8.428650289715733e-06,-0.0001780468155629933,-4.7249133785953745e-05
-1.4631491467298474e-05,2.4176237275241874e-05,1.1118490874650888e-05,-0.0001595696376170963,-3.518479934427887e-05
-1.1862016435770784e-06,2.6812949727172963e-05,1.1459297638793942e-05,-0.00012805237201973796,-2.4265522370114923e-05
-4.264369636075571e-06,3.35857730533462e-05,9.234984645445365e-06,-9.365403093397617e-05,-1.0370271411375143e-05
-1.2935705854033586e-05,3.6067842302145436e-05,5.900488304177998e-06,-6.57251657685265e-05,5.582145149674034e-06
-2.1730264052166604e-05,3.252605165471323e-05,2.063289002762758e-06,-4.9733160267351195e-05,2.63483525486663e-05
-2.5713565264595672e-05,2.763025986496359e-05,-1.8753545418803697e-06,-4.080413418705575e-05,6.185394886415452e-05
-2.5221361283911392e-05,2.515957567084115e-05,-7.168889624153962e-06,-2.5831432139966637e-05,0.00010971995652653277
-2.3857019186834805e-05,2.516701897548046e-05,-1.4896791981300339e-05,-1.2314926607359666e-05,0.00015965159400366247
-1.9464448996586725e-05,2.5219214876415208e-05,-1.974241058633197e-05,-1.68908154591918e-05,0.0002055563818430528
-1.0955614015983883e-05,2.2912307031219825e-05,-2.024440254899673e-05,-4.4004835217492655e-05,0.00024819394457153976
-8.91733361640945e-06,2.4280374418594874e-05,-2.256621519336477e-05,-8.439939847448841e-05,0.00028797300183214247
-1.5853953300393187e-05,3.1441260944120586e-05,-2.7590811441768892e-05,-0.00011590416397666559,0.00033453726791776717
-1.8391860066913068e-05,3.901424497598782e-05,-2.6712916223914362e-05,-0.00010914516315096989,0.00037705208524130285
-1.8772236671793507e-06,4.550305675365962e-05,-2.1578414816758595e-05,-6.86516214045696e-05,0.0003734318306669593
2.6120049369637854e-05,5.0328413635725155e-05,-1.5028331290523056e-05,-2.0892968677799217e-05,0.0003027711936738342
4.1831244743661955e-05,5.068852988188155e-05,-7.688699042773806e-06,9.195451639243402e-06,0.00019928351684939116
4.035610982100479e-05,4.4903456000611186e-05,-3.92201991417096e-06,1.7181724615511484e-05,0.00011505596194183454
1.913644518936053e-05,3.966171061620116e-05,-5.220350885792868e-06,1.8732682292466052e-05,7.415919390041381e-05
-2.8334063244983554e-05,4.25892612838652e-05,-2.5306851512141293e-06,2.7371121177566238e-05,6.767711602151394e-05
-7.554719195468351e-05,4.5487326133297756e-05,5.157879513717489e-06,3.819639459834434e-05,8.917813102016225e-05
-9.623625373933464e-05,4.2796804336830974e-05,9.307422260462772e-06,4.098100180272013e-05,0.00011264270142419264
-8.523908763891086e-05,4.348015499999747e-05,9.894740287563764e-06,3.6814421036979184e-05,0.00011379094212315977
-5.636571950162761e-05,4.67770587420091e-05,8.58753719512606e-06,3.4961973142344505e-05,0.00010402646148577332
-3.718198058777489e-05,4.8150031943805516e-05,5.812748895550612e-06,3.932322943001054e-05,9.866659092949703e-05
-3.0901221180101857e-05,4.385060674394481e-05,1.822214585445181e-06,4.54431283287704e-05,0.00010103509703185409
-2.4180793843697757e-05,3.629946877481416e-05,-6.315715836535674e-06,5.452433106256649e-05,0.0001015928210108541
-1.637952300370671e-05,3.080925307585858e-05,-1.5440580682479776e-05,6.380048580467701e-05,8.981001155916601e-05
-1.1978571819781791e-05,3.0214130674721673e-05,-1.9543982489267364e-05,6.274969200603664e-05,5.390614751377143e-05
-1.3215295439295005e-05,3.078786176047288e-05,-1.559623888169881e-05,5.1371142035350204e-05,6.229315658856649e-06
-1.718169733067043e-05,2.912113632191904e-05,-4.705783794634044e-06,4.2609641241142526e-05,-2.1358577214414254e-05
-2.073863652185537e-05,2.806267912092153e-05,9.111510735237971e-06,3.73294205928687e-05,-1.1673709195747506e-05
-1.8974629711010493e-05,2.9539169190684333e-05,2.110373679897748e-05,2.6755884391604923e-05,2.5107592591666616e-05
-6.8235503931646235e-06,3.1386345654027537e-05,3.046586425625719e-05,7.66941320762271e-06,5.438371954369359e-05
1.1985791388724465e-05,2.764815326372627e-05,3.603446384659037e-05,-1.343472467851825e-05,3.9697970350971445e-05
1.7185211618198082e-05,1.9313674783916213e-05,3.529245441313833e-05,-2.6457099011167884e-05,-1.3367919564188924e-05
-1.811352194636129e-05,1.235009403899312e-05,3.076813300140202e-05,-2.5028637537616305e-05,-6.168877007439733e-05
-8.177748532034457e-05,8.641985004942399e-06,2.4424092771369033e-05,-1.3157896319171414e-05,-6.293237674981356e-05
-0.00011902781261596829,7.879793884058017e-06,1.493145555286901e-05,-3.0533794870279962e-06,-7.973465471877716e-06
-9.135423169936985e-05,1.1013491530320607e-05,5.179504569241544e-06,-1.8099931367032696e-06,4.7170287871267647e-05
-3.107942393398844e-05,1.5849811461521313e-05,3.980442670581397e-06,-3.0159144444041885e-06,4.092679955647327e-05
2.1934131382295163e-06,2.1709864086005837e-05,9.853651135927066e-06,-5.875612600902969e-07,-3.42343955708202e-05
8.536339919373859e-07,2.9880651709390804e-05,1.642277857172303e-05,6.170933829707792e-06,-0.0001247961918124929
-4.152564542891923e-06,3.2984684366965666e-05,2.083493563986849e-05,1.248240459972294e-05,-0.00014178855053614825
-1.3491536492438172e-06,2.6470323064131662e-05,1.9121936929877847e-05,1.2989778042538092e-05,-6.529578240588307e-05
4.822919891012134e-06,1.8122424080502242e-05,1.4034427294973284e-05,2.8827935238950886e-06,1.5031840121082496e-05
1.0455751180415973e-05,2.085286905639805e-05,1.3435171240416821e-05,-1.2913998943986371e-05,6.394601223291829e-05
1.3774479157291353e-05,3.853125963360071e-05,1.3196777217672206e-05,-3.0592425900977105e-05,0.00011493069905554876
1.3637064512295183e-05,5.13998165843077e-05,7.898261173977517e-06,-4.6811306674499065e-05,0.00016332940140273422
1.1669369996525347e-05,5.271166446618736e-05,-8.041977821449109e-07,-5.342296208254993e-05,0.00019920931663364172
9.482149835093878e-06,5.0488590204622597e-05,-9.054318979906384e-06,-5.711348421755247e-05,0.00021333937183953822
4.1074640648730565e-06,4.4901404180563986e-05,-1.4013615327712614e-05,-6.13558295299299e-05,0.0002144906611647457
-1.9738638457056368e-06,3.634495078586042e-05,-1.3034744370088447e-05,-6.713027687510476e-05,0.00019934587180614471
-8.331382559845224e-06,3.119388929917477e-05,-1.0905244380410295e-05,-6.541792390635237e-05,0.00017361184291075915
-1.806984619179275e-05,2.955635318357963e-05,-7.333168014156399e-06,-3.876775372191332e-05,0.00015322434774134308
-3.321018084534444e-05,2.621965904836543e-05,1.1606902106109374e-08,1.0306601325282827e-05,0.00013014207070227712
-4.924721361021511e-05,2.0826064428547397e-05,6.160591965453932e-06,5.2211544243618846e-05,8.609116048319265e-05
-6.730313907610252e-05,1.9041071936953813e-05,8.325003364006989e-06,7.066251419018954e-05,2.9382712455117144e-05
-9.326969302492216e-05,2.3388001864077523e-05,8.755868293519598e-06,7.601021934533492e-05,-1.8895274479291402e-05
-0.00011590641952352598,2.219823181803804e-05,4.10738903156016e-06,7.439577166223899e-05,-6.126113294158131e-05
-0.0001119462976930663,1.0095282959809992e-05,-6.296171704889275e-06,6.135883450042456e-05,-0.00010682219726732001
-7.502517109969631e-05,-1.1778212183344294e-06,-1.2814942238037474e-05,3.986508818343282e-05,-0.0001473599550081417
-3.060984454350546e-05,1.512138737780333e-06,-1.092198544938583e-05,2.28084136324469e-05,-0.00013919122284278274
-5.450141543406062e-06,1.552401954540983e-05,-4.661121693061432e-06,6.191948159539606e-06,-5.235620483290404e-05
2.636525380239618e-07,2.8245201974641532e-05,-1.1121354646093096e-06,-2.3245713236974552e-05,7.823594933142886e-05
-2.9451296086335788e-06,2.6627601982909255e-05,-2.9290999918885063e-06,-6.243654934223741e-05,0.00015465746400877833
-1.1600371180975344e-05,1.8822884157998487e-05,-8.971844181360211e-06,-0.00010071993165183812,0.000138698480441235
-2.266451519972179e-05,1.5122717741178349e-05,-1.572351175127551e-05,-0.0001318663271376863,7.777650171192363e-05
-3.113652564934455e-05,1.7663294784142636e-05,-1.922908086271491e-05,-0.00014716267469339073,1.901581163110677e-05
-4.0943617932498455e-05,2.8340589778963476e-05,-1.952458478626795e-05,-0.000143493598443456,-2.5891380573739298e-05
-5.342586518963799e-05,3.4317672543693334e-05,-2.1609454051940702e-05,-0.00012793556379619986,-5.105695527163334e-05
-5.3443371143657714e-05,3.2164356525754556e-05,-1.8552664187154733e-05,-0.00010585677955532447,-5.0251084758201614e-05
-3.1605319236405194e-05,3.055556953768246e-05,-1.4108803043200169e-05,-7.317380368476734e-05,-3.7785794120281935e-05
-6.737579496984836e-06,3.484241460682824e-05,-1.448432249162579e-05,-3.8213627703953534e-05,-3.544489300111309e-05
-8.047306437219959e-06,3.8992900954326615e-05,-1.5143354175961576e-05,-1.4266453035816085e-05,-4.177863957011141e-05
-2.483887510607019e-05,3.6949015338905156e-05,-1.9733257431653328e-05,6.99090651323786e-06,-2.77524068224011e-05
-3.395643943804316e-05,3.236442353227176e-05,-2.6666590201784857e-05,2.6298939701518975e-05,1.257765597983962e-05
-3.273619222454727e-05,3.1736148230265826e-05,-2.8978778573218733e-05,3.0390314350370318e-05,6.15564567851834e-05
-2.539416163926944e-05,3.586352613638155e-05,-2.4883922378649004e-05,2.319949635420926e-05,0.00011378581984899938
-1.8412009012536146e-05,3.482540705590509e-05,-1.6770507500041276e-05,1.1042370715586003e-05,0.00016574030451010913
-1.5100723430805374e-05,3.1912324629956856e-05,-4.419359811436152e-06,6.274570750974817e-06,0.00020427079289220273
-1.386718031426426e-05,3.2389856642112136e-05,7.575367817480583e-06,1.807912667572964e-05,0.00021460640709847212
-1.377811986458255e-05,3.524537169141695e-05,1.565598176966887e-05,2.9365393857005984e-05,0.00017878462676890194
-1.329324186372105e-05,4.022139546577819e-05,2.402345126029104e-05,2.931838753283955e-05,0.00011089967301813886
-1.1088496648881119e-05,4.146363789914176e-05,3.496364297461696e-05,2.88931441900786e-05,6.174542068038136e-05
-1.3277774087327998e-05,3.4101165510946885e-05,4.2401443351991475e-05,4.45879231847357e-05,5.431755562312901e-05
-2.859661435650196e-05,2.3970411348273046e-05,3.972760896431282e-05,7.161569374147803e-05,7.13027038727887e-05
-5.5557331506861374e-05,2.0128036339883693e-05,3.309490784886293e-05,8.683253690833226e-05,9.390446211909875e-05
-8.076836820691824e-05,2.5063694920390844e-05,2.873436824302189e-05,8.149970381055027e-05,0.00010356325219618157
-8.492416236549616e-05,3.687966091092676e-05,2.6494784833630547e-05,6.257006316445768e-05,7.808293594280258e-05
-6.295323692029342e-05,4.3678148358594626e-05,2.3346423404291272e-05,3.3703316148603335e-05,2.8695476430584677e-05
-3.770211333176121e-05,3.5943252441938967e-05,2.018811574089341e-05,-8.462338882964104e-06,-1.2355129911156837e-05
-2.847763244062662e-05,2.4584065613453276e-05,1.589942075952422e-05,-7.15264686732553e-05,-3.941079557989724e-05
-3.2463860407005996e-05,1.9328417693031952e-05,1.0668974937289022e-05,-0.00013744152965955436,-6.393707008101046e-05
-3.384217052371241e-05,1.8784143321681768e-05,1.0653041499608662e-05,-0.0001660108973737806,-8.45051254145801e-05
-2.740683703450486e-05,2.2002395780873485e-05,1.4055343854124658e-05,-0.0001599794632056728,-7.151494355639443e-05
-1.9996306946268305e-05,2.0345423763501458e-05,1.5741463357699104e-05,-0.00014778983313590288,-2.2181168333190726e-06
-1.715193320706021e-05,1.5600870028720237e-05,1.5493267710553482e-05,-0.0001323562755715102,9.516277350485325e-05
-2.024919376708567e-05,1.7316806406597607e-05,1.6263909856206737e-05,-8.05989038781263e-05,0.00018007736071012914
-3.041761738131754e-05,2.3723596314084716e-05,1.577245711814612e-05,3.262090331190848e-06,0.00021803638082928956
-4.097738928976469e-05,3.0244103982113302e-05,9.88785450317664e-06,5.802248779218644e-05,0.00021393646602518857
-3.933904008590616e-05,3.308407394797541e-05,7.210526746348478e-06,6.317855149973184e-05,0.0001855518203228712
-2.6707986762630753e-05,3.16765253955964e-05,1.1107429600087926e-05,4.9667338316794485e-05,0.00011554003140190616
-1.5406070815515704e-05,2.9954037017887458e-05,1.4563477634510491e-05,4.289052958483808e-05,3.9573595131514594e-05
-5.562488695431966e-06,3.106763688265346e-05,1.2220855751365889e-05,3.762452251976356e-05,2.8717211534967646e-05
6.36053243852075e-07,3.398030821699649e-05,9.130909347732086e-06,3.5142664273735136e-05,8.401540253544226e-05
-1.0997175650118152e-06,3.3922748116310686e-05,1.0152309187105857e-05,3.7561752833426e-05,0.0001307523634750396
-1.40723579988844e-06,3.6966677726013586e-05,1.0621185538184363e-05,5.173141835257411e-05,0.00013854420103598386
5.578104264714057e-06,4.513901149039157e-05,1.2496399904193822e-05,7.809843373252079e-05,0.00012956491264048964
1.2597161912708543e-05,5.117779073771089e-05,1.540985977044329e-05,0.00010030063276644796,0.00011154586536576971
9.900000804918818e-06,5.2838273404631764e-05,1.4836447007837705e-05,9.238388884114102e-05,8.650304516777396e-05
1.0380656476627337e-06,4.941447332384996e-05,6.0098182075307705e-06,4.8820515075931326e-05,7.155085040722042e-05
-3.029618255823152e-06,4.3804946471937e-05,-4.475349669519346e-06,-1.1671597349049989e-05,6.589500117115676e-05
-2.1145866924143775e-07,3.932451727450825e-05,-1.1602604899962898e-05,-7.10654494469054e-05,2.8782929803128354e-05
-2.7240577082920936e-07,4.004947186331265e-05,-1.4348598597280215e-05,-0.00011705603537848219,-6.780176045140252e-05
-1.1959546100115404e-05,4.438460382516496e-05,-1.192973468278069e-05,-0.00014102485147304833,-0.00017723806377034634
-3.847409971058369e-05,4.59729963040445e-05,-7.5622233453032095e-06,-0.0001409638352924958,-0.00020821814541704953
-7.842249033274129e-05,3.832471338682808e-05,-5.9044018598797265e-06,-0.00013292193762026727,-0.00016642715490888804
-0.0001237542019225657,2.0903165932395495e-05,-5.2518757911457215e-06,-0.00011442259710747749,-0.00012708285066764802
-0.00016026113007683307,1.5230566532409284e-06,-5.60407852390199e-06,-8.350922144018114e-05,-9.947007492883131e-05
-0.00016869748651515692,-1.328978942183312e-05,-1.0068107258121017e-05,-6.503389158751816e-05,-5.6176701036747545e-05
-0.0001457303442293778,-1.767728645063471e-05,-1.6091384168248624e-05,-6.657990161329508e-05,-2.8404342629073653e-06
-9.727695578476414e-05,-3.612231239458197e-06,-1.8189002730650827e-05,-5.3125004342291504e-05,6.668912101304159e-05
-2.2622909455094486e-05,2.145428334188182e-05,-1.5096423339855392e-05,-2.879514249798376e-05,0.00017182633746415377
4.560868183034472e-05,3.5220884456066415e-05,-1.0122460480488371e-05,-2.049837348749861e-05,0.0002757679030764848
7.206119335023686e-05,3.5860244679497555e-05,-1.6093198382804985e-06,-2.2482232452603057e-05,0.00034213854814879596
4.877872925135307e-05,3.7891782994847745e-05,1.168640551441058e-06,-2.9745006031589583e-05,0.0003619148046709597
4.439358235686086e-06,4.0644066757522523e-05,-1.5984372794264345e-06,-4.4858414185000584e-05,0.00033935060491785407
-2.7549993319553323e-05,3.590573032852262e-05,-5.972353392280638e-06,-5.2896200941177085e-05,0.0002640835882630199
-4.2393574403831735e-05,1.9641332983155735e-05,-7.409476893371902e-06,-4.5493830839404836e-05,0.0001427198003511876
-4.7272063966374844e-05,3.296065187896602e-06,-5.343216344044777e-06,-4.567084033624269e-05,5.567349580815062e-05
-5.132352816872299e-05,1.6612746094324393e-06,-5.139942459209124e-06,-6.275159103097394e-05,2.3814172891434282e-05
-4.400886609801091e-05,1.4270479368860833e-05,-4.526606971921865e-06,-8.222273027058691e-05,1.76175690285163e-05
-3.020344411197584e-05,2.537452382966876e-05,-4.797665042133303e-06,-8.295095904031768e-05,1.8555721908342093e-05
-2.3092001356417313e-05,2.8275009753997438e-05,-4.470510702958563e-06,-5.447072544484399e-05,1.95405646081781e-05
-2.9306709620868787e-05,3.139373802696355e-05,-1.993724481508252e-06,-1.4926891708455514e-05,1.2921967027068604e-05
-3.972384729422629e-05,3.285005732323043e-05,3.7928195979475277e-06,1.0947181181109045e-05,6.6024567786371335e-06
-4.309720316086896e-05,2.972042238980066e-05,9.393363143317401e-06,1.9098470147582702e-05,1.4745682165084872e-05
-4.045090827275999e-05,2.2899088435224257e-05,8.495083420712035e-06,1.8030281353276223e-05,2.8413202016963623e-05
-3.42665625794325e-05,1.730505027808249e-05,6.121088063082425e-07,1.7451395251555368e-05,3.775950244744308e-05
-2.508866964490153e-05,1.529001019662246e-05,-1.1110112609458156e-05,2.317251346539706e-05,5.163971218280494e-05
-1.4952297533454839e-05,1.2091589269402903e-05,-1.984377195185516e-05,3.092996485065669e-05,8.037508086999878e-05
-9.85511542239692e-06,3.268568889325252e-06,-1.8622913557919674e-05,3.558289972716011e-05,0.00010980716615449637
-1.0582590221019927e-05,-4.512114628596464e-06,-7.881733836256899e-06,3.632476364145987e-05,0.00011903323320439085
-1.2581566807057243e-05,-1.916699375215103e-06,5.155407961865421e-06,3.570332773961127e-05,9.807890455704182e-05
-1.1290936527075246e-05,1.2993162272323389e-05,1.5677585906814784e-05,3.5649416531668976e-05,7.023627404123545e-05
-9.52192840486532e-06,2.9238190109026618e-05,2.004772613872774e-05,3.44496475008782e-05,5.722077548853122e-05
-7.63608932174975e-06,3.451455995673314e-05,2.1057156118331477e-05,3.22723644785583e-05,5.4716874728910625e-05
-6.8014569478691556e-06,2.95268400805071e-05,2.3558575776405632e-05,3.368027682881802e-05,5.0729366193991154e-05
-4.518900823313743e-06,2.70352466031909e-05,2.7122541723656468e-05,3.8740879972465336e-05,4.539878500509076e-05
-7.733602842563414e-07,3.450434087426402e-05,2.9842989533790387e-05,4.04735874326434e-05,4.071041621500626e-05
2.223475803475594e-06,3.993999052909203e-05,2.990916618728079e-05,3.7007270293543115e-05,4.053949669469148e-05
-4.433253707247786e-06,4.16798829974141e-05,3.1570241844747216e-05,3.393497900106013e-05,4.700828867498785e-05
-1.4803993508394342e-05,4.275227547623217e-05,3.327136437292211e-05,3.664870746433735e-05,5.3820353059563786e-05
-1.669845005380921e-05,4.410860128700733e-05,3.049543192901183e-05,3.7123765650903806e-05,5.403333489084616e-05
-1.2924206203024369e-05,4.418472963152453e-05,2.653599949553609e-05,3.364499207236804e-05,4.970375812263228e-05
-1.3272598152980208e-05,4.1833332943497226e-05,2.5709012334118597e-05,3.0798211810179055e-05,3.9272188587347046e-05
-2.1096517230034806e-05,3.775655204663053e-05,2.643447987793479e-05,2.8198061045259237e-05,2.97048482025275e-05
-1.841443190642167e-05,3.18534039251972e-05,2.691799272724893e-05,2.8157483029644936e-05,2.2898413590155542e-05
-7.0782243710709736e-06,2.9542632546508685e-05,2.5358762286487035e-05,2.9663297027582303e-05,1.412408073520055e-05
-3.4739730381261325e-06,3.057028879993595e-05,1.8286407794221304e-05,3.189169001416303e-05,9.881330242933473e-07
-8.404538675677031e-06,3.229227877454832e-05,8.80555307958275e-06,3.121596819255501e-05,-1.2224677448102739e-05
-1.6774145478848368e-05,3.190495044691488e-05,4.371292106952751e-06,3.102873597526923e-05,-1.6932002836256288e-05
-2.603804023237899e-05,3.3338565117446706e-05,6.8562221713364124e-06,3.8824353396194056e-05,-1.870619598776102e-05
-3.0422446798183955e-05,3.616195317590609e-05,1.047853129421128e-05,5.543464430957101e-05,-2.28321132453857e-05
-2.9583678042399697e-05,3.793116411543451e-05,1.2257754860911518e-05,7.231652125483379e-05,-2.2631184037891217e-05
-3.0015829906915314e-05,3.436720362515189e-05,1.1853225259983446e-05,8.040929242270067e-05,-1.609625542187132e-05
-3.160344567731954e-05,2.597998536657542e-05,1.0721814760472625e-05,7.917657057987526e-05,-1.682612310105469e-05
-3.347481833770871e-05,2.0292784029152244e-05,9.262080311600585e-06,6.669212598353624e-05,-2.26695992751047e-05
-3.870222280966118e-05,2.147051418432966e-05,6.726394531142432e-06,4.25242651544977e-05,4.902906312054256e-06
-4.9806938477559015e-05,2.9162587452447042e-05,3.50764435097517e-06,1.1521786291268654e-05,0.00010128832218470052
-6.589198164874688e-05,3.738075611181557e-05,-1.7487674597305158e-07,-2.2503731088363566e-05,0.00021489565551746637
-7.054594607325271e-05,3.846692925435491e-05,-5.4856977840245236e-06,-5.828211942571215e-05,0.0002559415006544441
-4.376187644083984e-05,3.2518000807613134e-05,-1.164522473118268e-05,-8.297817112179473e-05,0.00020777220197487622
-4.863466074311873e-06,2.7261154173174873e-05,-1.2322845577728003e-05,-8.516596426488832e-05,0.00012465861800592393
1.380730373057304e-05,2.0587409380823374e-05,-7.045934580673929e-06,-7.784114131936803e-05,6.02520776737947e-05
1.5910884030745365e-05,1.5193879335129168e-05,-3.329602577650803e-06,-7.106502016540617e-05,3.461099186097272e-05
1.6728678019717336e-05,1.4200201803760137e-05,-1.266526350462982e-08,-5.4774201998952776e-05,3.0192668418749236e-05
9.970449355023447e-06,1.6202389815589413e-05,6.249547823244939e-06,-3.68896835425403e-05,1.5880843420745805e-05
-1.845673796196934e-05,1.837661511672195e-05,1.1990032362518832e-05,-2.3899501684354618e-05,3.926522822439438e-06
-5.1218117732787505e-05,1.7712965927785262e-05,9.746016985445749e-06,-1.6105779650388286e-05,2.213984407717362e-05
-5.4485069995280355e-05,1.4879395166644827e-05,4.814111889572814e-06,-1.8416107195662335e-05,5.127227632328868e-05
-2.5083476430154406e-05,1.275039539905265e-05,6.164349997561658e-06,-2.20497004193021e-05,6.97037175996229e-05
7.004247436270816e-06,1.5296707715606317e-05,7.36527135813958e-06,-2.2989224817138165e-05,7.619417738169432e-05
1.5609019101248123e-05,2.081100501527544e-05,9.21659648156492e-06,-2.2506752429762855e-05,7.352993998210877e-05
3.8018256418581586e-06,2.805908843583893e-05,1.0264881893817801e-05,-1.6911526472540572e-05,6.45267209620215e-05
-1.3522693734557834e-05,3.5178214602638036e-05,1.0366514288762119e-05,-8.503994649800006e-06,4.63735887024086e-05
-2.3666716515435837e-05,3.686626223498024e-05,9.038268217409495e-06,-6.590960765606724e-06,2.791017323033884e-05
-2.5848888981272466e-05,3.677591303130612e-05,6.947469046281185e-06,-1.062414867192274e-05,2.975416646222584e-05
-2.5106139219133183e-05,3.691886377055198e-05,6.278877208387712e-06,-1.062358478520764e-05,5.146044713910669e-05
-2.569758362369612e-05,3.746458241948858e-05,4.085574346390786e-06,-8.259416972578038e-06,7.252686191350222e-05
-2.575777944002766e-05,3.806790482485667e-05,9.433370564693178e-07,-9.112528459809255e-06,8.04243391030468e-05
-2.4642044081701897e-05,3.681633097585291e-05,-1.1629324490058934e-06,-1.2825462363252882e-05,7.830083632143214e-05
-2.580774889793247e-05,3.088539597229101e-05,3.090048394938094e-08,-1.7715819922159426e-05,7.407750672427937e-05
-2.8567135814228095e-05,2.701071025512647e-05,4.0230761442217045e-06,-1.6856987713254057e-05,7.323712634388357e-05
-2.9404382075881585e-05,3.325239958940074e-05,7.265427029778948e-06,-1.1106342753919307e-05,7.661757263122126e-05
-2.4835682779666968e-05,4.14134374295827e-05,7.708808880124707e-06,-7.285348146979231e-06,7.809203816577792e-05
-1.8126082068192773e-05,4.1122384573100135e-05,7.926594662421849e-06,-8.584927854826674e-06,7.545304833911359e-05
-1.1875538802996743e-05,3.4523531212471426e-05,6.8085264501860365e-06,-1.425162554369308e-05,7.049124542390928e-05
-5.005196726415306e-06,2.7129271984449588e-05,1.6021923556763795e-06,-2.0808221961488016e-05,6.498200673377141e-05
6.813067443545151e-07,2.3008391508483328e-05,-4.718724085250869e-06,-2.1810117686982267e-05,6.352072523441166e-05
1.5452228581125382e-06,2.5054780053324066e-05,-1.3090009815641679e-05,-1.9767016055993736e-05,7.007254316704348e-05
2.217756446043495e-06,2.5166264094877988e-05,-2.3084086933522485e-05,-2.100110759784002e-05,8.683381020091474e-05
2.9087734674249077e-06,2.0423094611032866e-05,-2.577117811597418e-05,-2.3422877347911708e-05,0.00010743703023763373
6.627276889048517e-06,2.35456827795133e-05,-2.4182530978578143e-05,-2.1128505977685563e-05,0.00012080073065590113
1.0524755452934187e-05,3.8115205825306475e-05,-2.2605352569371462e-05,-1.4302240742836148e-05,0.00012712353782262653
2.2725362214259803e-06,4.371359318611212e-05,-1.7221444068127312e-05,-9.287959073844831e-06,0.00012043863534927368
-1.2789108041033614e-05,3.77077521989122e-05,-5.293497906677658e-06,-1.135800721385749e-05,0.00010592630133032799
-3.175090387230739e-05,3.436802580836229e-05,7.042922788969008e-06,-1.9770528524531983e-05,0.00010205747094005346
-5.60815169592388e-05,3.5606899473350495e-05,1.868456820375286e-05,-1.8080139852827415e-05,0.00010867883975151926
-7.26898288121447e-05,3.306586222606711e-05,2.676753865671344e-05,-5.071971372672124e-06,0.00011366068065399304
-7.155953790061176e-05,2.4001337806112133e-05,2.6635902031557634e-05,1.3675253285327926e-05,0.00010468721302459016
-6.23747255303897e-05,1.8915621694759466e-05,2.54400529229315e-05,3.2152198400581256e-05,6.9839195930399e-05
-5.9029029216617346e-05,2.2709264158038422e-05,2.6664918550522998e-05,3.7100413464941084e-05,3.5845398087985814e-05
-6.564696377608925e-05,2.9256574634928256e-05,3.0280549253802747e-05,3.559411925380118e-05,3.252551323384978e-05
-8.076570520643145e-05,3.5112479963572696e-05,3.15922407025937e-05,3.566935265553184e-05,4.1400409827474505e-05
-9.269821748603135e-05,4.002653804491274e-05,3.1308478355640545e-05,3.397628461243585e-05,3.056342757190578e-05
-7.422301132464781e-05,4.424023427418433e-05,3.1809453503228724e-05,2.4228178517660126e-05,-3.468248451099498e-06
-1.384101233270485e-05,4.614830686477944e-05,3.2466632546857e-05,6.705711257382063e-06,-2.477930138411466e-05
4.5585988118546084e-05,4.6175009629223496e-05,3.328844832140021e-05,-2.1131867470103316e-05,-1.7286889487877488e-05
5.8072328101843596e-05,4.406500011100434e-05,3.2640498830005527e-05,-5.352452353690751e-05,-7.772535354888532e-06
2.7132187824463472e-05,4.224559961585328e-05,3.3090225770138204e-05,-7.527539855800569e-05,-2.039522541963379e-06
-1.511610571469646e-05,4.575326238409616e-05,3.666837437776849e-05,-8.225526835303754e-05,3.1860538001637906e-05
-5.1017097575822845e-05,4.818017259822227e-05,4.0504877688363194e-05,-8.318172331200913e-05,7.660356641281396e-05
-7.456054299836978e-05,4.2910422052955255e-05,4.0569386328570545e-05,-8.410741429543123e-05,7.641553384019062e-05
-7.825523061910644e-05,3.480195300653577e-05,3.658467176137492e-05,-7.803203334333375e-05,3.568202009773813e-05
-6.411726644728333e-05,2.2712398276780732e-05,2.747566031757742e-05,-6.164179649204016e-05,1.5208697732305154e-05
-4.7236313548637554e-05,3.0346318453666754e-06,1.4679401829198468e-05,-3.7938716559438035e-05,3.848163032671437e-05
-4.353509939392097e-05,-8.216594324039761e-06,6.96846336722956e-06,-1.6748997950344346e-05,8.05040544946678e-05
-5.985641109873541e-05,-2.778733687591739e-06,8.270151738543063e-06,-9.243706699635368e-06,0.00011494474892970175
-8.337712642969564e-05,1.2590058759087697e-05,7.859636752982624e-06,-1.573119698150549e-05,0.00012493887334130704
-8.972403156803921e-05,2.7612655685516074e-05,-9.823952495935373e-07,-2.5645953428465873e-05,0.00011379572242731228
-7.863631617510691e-05,3.432316952967085e-05,-7.88701345300069e-06,-3.195400859112851e-05,9.571293776389211e-05
