-1.4426818779611494e-05,-2.1615951482090168e-06,-1.4382826520886738e-06,-3.7350034745031735e-06,6.164531805552542e-05
-1.8099586668540724e-05,5.222610752753098e-07,-6.992506314418279e-06,-5.941232302575372e-06,5.5311076721409336e-05
-2.2098531189840287e-05,1.0683868822525255e-05,-7.465233011316741e-06,-4.190243998891674e-06,5.530579437618144e-05
-2.4906694306991994e-05,2.073204450425692e-05,-1.451572825317271e-05,-3.4476529435778502e-06,6.0293754359008744e-05
-2.73564310191432e-05,2.7530664738151245e-05,-2.349411806790158e-05,-7.562396604043897e-06,6.499756273115054e-05
-3.0800725653534755e-05,3.069954618695192e-05,-2.4149763703462668e-05,-9.686250450613443e-06,6.228469283087179e-05
-2.8908458261867054e-05,3.592820939957164e-05,-2.1250361896818504e-05,-9.586883606971242e-06,5.9090511058457196e-05
-1.8516795535106212e-05,4.315684418543242e-05,-1.7078820746974088e-05,-1.177884860226186e-05,5.907898594159633e-05
-5.602268174698111e-06,4.6161901991581544e-05,-5.7301704146084376e-06,-1.0986752386088483e-05,5.943384894635528e-05
5.275520379655063e-06,4.514741158345714e-05,8.27287931315368e-06,-7.653198736079503e-06,5.903715282329358e-05
9.23210427572485e-06,3.954675776185468e-05,1.5130766769289039e-05,-9.293475159211084e-06,5.67206006962806e-05
3.934164396923734e-06,3.1708179449196905e-05,1.1835531040560454e-05,-1.4244542398955673e-05,5.314181180438027e-05
-6.0189340729266405e-06,2.882781882362906e-05,6.345901965687517e-06,-1.5459074347745627e-05,5.196829079068266e-05
-1.5360621546278708e-05,3.5521850804798305e-05,7.19218314770842e-06,-1.2523911209427752e-05,5.3940853831591085e-05
-1.9077433535130695e-05,4.6175362513167784e-05,1.1028299923054874e-05,-9.519325431028847e-06,5.352650259737857e-05
-2.4503473468939774e-05,4.972933675162494e-05,1.3625994142785203e-05,-8.622493623988703e-06,4.9761518312152475e-05
-3.7925117794657126e-05,4.4961248931940645e-05,1.5318068108172156e-05,-7.678469046368264e-06,4.706320760305971e-05
-5.3331488743424416e-05,3.726531213033013e-05,1.7918408047989942e-05,-5.398902430897579e-06,4.694005110650323e-05
-5.59744075872004e-05,2.944971674878616e-05,2.0497473087743856e-05,-3.292663677711971e-06,4.742902819998562e-05
-4.017130777356215e-05,2.412154026387725e-05,2.2743744921172038e-05,-3.162118900945643e-06,4.9078702431870624e-05
-2.0837129341089167e-05,2.5110955903073773e-05,2.278312786074821e-05,-1.468617938371608e-06,5.2685012633446604e-05
-1.2241777767485473e-05,2.7149892048328184e-05,1.8601018382469192e-05,1.4490425428448361e-06,5.679006426362321e-05
-1.5328270819736645e-05,2.3733533453196287e-05,1.4267211554397363e-05,1.7010518149618292e-06,5.80579144298099e-05
-2.8149681384093128e-05,1.528703978692647e-05,1.295487891184166e-05,-2.223610636065132e-06,5.533602961804718e-05
-4.254411032889038e-05,1.0171652320423163e-05,1.34751735458849e-05,-9.223754204867873e-06,5.1078004617011175e-05
-4.3628602725220844e-05,1.2772949958161917e-05,1.2174296898592729e-05,-1.5262208762578666e-05,4.840018300455995e-05
-3.836235191556625e-05,1.585969039297197e-05,4.841572717850795e-06,-1.8088143406203017e-05,4.8297126340912655e-05
-3.588080289773643e-05,2.0017851056763902e-05,1.32047762235743e-06,-1.500640792073682e-05,5.3010233386885375e-05
-3.285597631474957e-05,2.8395601475494914e-05,1.9836188585031778e-06,-1.3948441846878268e-05,5.7567340263631195e-05
-2.6562858693068847e-05,3.491176539682783e-05,3.5807497056339344e-07,-1.6439624232589267e-05,5.7794251915765926e-05
-2.0219169527990744e-05,3.448646020842716e-05,-9.931999755963261e-08,-1.2998442798561882e-05,5.61139386263676e-05
-2.067036257358268e-05,2.670506182766985e-05,1.4999839095253265e-06,-9.338471500086598e-06,5.933074135100469e-05
-2.5535015083733015e-05,2.0550904082483612e-05,6.4117398324015085e-06,-1.151653668785002e-05,6.376844248734415e-05
-2.6801526473718695e-05,1.9889655959559605e-05,9.640783900977112e-06,-1.462440013710875e-05,6.439553544623777e-05
-2.207271973020397e-05,2.2790496586821973e-05,8.966730092652142e-06,-1.2241943295521196e-05,6.191778811626136e-05
-2.185909397667274e-05,2.8319525881670415e-05,5.87910290050786e-06,-5.128463271830697e-06,5.861064710188657e-05
-2.760654388112016e-05,3.5700766602531075e-05,4.1011876419361215e-06,1.061440002558811e-06,5.604052421404049e-05
-3.2757536246208474e-05,3.900831507053226e-05,2.42416831497394e-06,-4.4112610453339585e-07,5.624904588330537e-05
-3.278066651546396e-05,3.838832344627008e-05,-1.2727781495414092e-06,-5.844755833095405e-06,5.855134077137336e-05
-2.6931431420962326e-05,3.874193498631939e-05,-8.165924555214588e-06,-6.4583655330352485e-06,5.88532057008706e-05
-1.8293021639692597e-05,3.7533260183408856e-05,-1.6557343769818544e-05,-3.1853151085670106e-06,5.670235987054184e-05
-9.64195260166889e-06,2.9680033549084328e-05,-2.4736198611208238e-05,-3.0542553304258035e-06,5.1708484534174204e-05
-6.8482913775369525e-06,2.3489565137424506e-05,-3.302644472569227e-05,-4.9977979870163836e-06,4.85341006424278e-05
-9.269412657886278e-06,2.6225767214782536e-05,-3.5277960705570877e-05,-3.4216593576275045e-06,5.061018237029202e-05
-1.177721242129337e-05,2.8834419936174527e-05,-2.6974234060617164e-05,1.462666148199787e-07,5.528087058337405e-05
-1.0422991181258112e-05,2.954758565465454e-05,-1.01957302831579e-05,3.886401600539102e-07,5.71613127249293e-05
-3.938445388484979e-06,3.332396590849385e-05,8.086711204668973e-06,-3.9155011108960025e-06,5.5157794122351333e-05
2.6767329472932033e-06,3.672282036859542e-05,2.3036440325086005e-05,-7.497711521864403e-06,5.3866300731897354e-05
9.142256089944567e-07,3.520590325933881e-05,3.352583007654175e-05,-8.800707291811705e-06,5.6456963648088276e-05
-6.785877758375136e-06,3.182523505529389e-05,3.972168269683607e-05,-1.015460384223843e-05,5.883223639102653e-05
-1.3669990039488766e-05,2.996697548951488e-05,4.390529284137301e-05,-1.0489305168448482e-05,6.019542342983186e-05
-2.3796968889655545e-05,3.435249163885601e-05,4.429014370543882e-05,-1.1587311746552587e-05,6.0759102780139074e-05
-4.006953531643376e-05,4.8003566917032003e-05,3.740044485311955e-05,-1.4300245311460458e-05,5.865865387022495e-05
-4.983272810932249e-05,6.109864625614136e-05,3.090054087806493e-05,-2.0171612050035037e-05,5.633648834191263e-05
-5.8210014685755596e-05,5.827987479278818e-05,2.7670525014400482e-05,-3.173550430801697e-05,5.730172051698901e-05
-6.597970059374347e-05,4.338399230618961e-05,2.435712485748809e-05,-3.908186772605404e-05,5.8053556131199e-05
-6.442320591304451e-05,3.2135125366039574e-05,2.2204763808986172e-05,-3.527764056343585e-05,5.354194945539348e-05
-5.5837070249253884e-05,3.423323141760193e-05,2.324933302588761e-05,-2.4238128389697522e-05,4.389132300275378e-05
-5.1989500207128e-05,4.105809421162121e-05,2.724161277001258e-05,-1.6779069483163767e-05,3.583478610380553e-05
-6.205096724443138e-05,4.123688631807454e-05,2.7475898605189286e-05,-1.3200404282542877e-05,3.052463216590695e-05
-7.551939779659733e-05,3.255149567849003e-05,1.939545472851023e-05,-1.1856077435368206e-05,2.9001879738643765e-05
-8.47076007630676e-05,2.4116914573824033e-05,6.58292537991656e-06,-1.2030459402012639e-05,3.364027725183405e-05
-7.637569797225296e-05,1.976328894670587e-05,-4.047483798785834e-06,-1.3853559721610509e-05,4.480654388316907e-05
-4.835843719774857e-05,1.7570298950886354e-05,-6.438030140998308e-06,-1.701209657767322e-05,6.020216824254021e-05
-1.3876154298486654e-05,1.1769934644689783e-05,-6.959555776120396e-06,-1.933325984282419e-05,7.38289745640941e-05
6.473224857472815e-06,3.5084547107544495e-06,-8.92881416802993e-06,-2.059045436908491e-05,8.348112896783277e-05
8.663683729537297e-06,6.269778623391176e-06,-1.281021559407236e-05,-1.8144733985536732e-05,9.008790948428214e-05
4.40171197624295e-06,1.9868166418746114e-05,-1.651563070481643e-05,-1.4954099242459051e-05,9.819523256737739e-05
3.2010634640755598e-06,3.318568633403629e-05,-1.66277040989371e-05,-1.2882655937573873e-05,0.00010610176832415164
3.4239324122609105e-06,3.934837150154635e-05,-1.1388179700588807e-05,-1.1700447430484928e-05,0.00011156565597048029
4.011273979642738e-09,4.1138344386126846e-05,-3.4308536669414025e-06,-1.1937661838601343e-05,0.00011364652891643345
-8.140251338772941e-06,3.768352689803578e-05,-2.1906773781665834e-06,-1.3511018551071174e-05,0.00010976581688737497
-1.8792929040500894e-05,3.181660213158466e-05,-8.82806762092514e-06,-1.3613317605631892e-05,9.98302930383943e-05
-2.507288991182577e-05,2.7072712327935733e-05,-1.6139301806106232e-05,-1.2031949154334143e-05,8.716690354049206e-05
-2.8275213480810635e-05,2.5206623831763864e-05,-1.7362250218866393e-05,-1.2862878065789118e-05,7.558053766842932e-05
-2.9368338800850324e-05,2.5347440896439366e-05,-1.1197224921488669e-05,-1.6790383597253822e-05,6.867268530186266e-05
-3.0123295800876804e-05,2.6591451387503184e-05,-1.195162894873647e-06,-1.8893922970164567e-05,6.591023702640086e-05
-3.32371964759659e-05,3.000403921760153e-05,4.5303136175789405e-06,-1.7566942915436812e-05,6.755157664883882e-05
-4.4486358092399314e-05,3.74945520889014e-05,7.4937856879842e-06,-1.186523604701506e-05,7.082580123096704e-05
-6.340992695186287e-05,4.631776027963497e-05,1.3058808690402657e-05,-2.1525352167373057e-06,7.421280315611511e-05
-7.533876487286761e-05,4.944837201037444e-05,2.122984551533591e-05,4.02275054511847e-06,7.63501666369848e-05
-6.190796557348222e-05,4.294970494811423e-05,2.720531847444363e-05,8.830417641547683e-07,7.292296504601836e-05
-3.547445157892071e-05,3.1167477573035285e-05,2.8077112801838666e-05,-2.9008574529143516e-06,7.02233737683855e-05
-2.0231698727002367e-05,2.3109956600819714e-05,2.5545183234498836e-05,1.2572786545206327e-06,7.072559674270451e-05
-9.87117709883023e-06,1.1447114957263693e-05,2.199513983214274e-05,6.96059896654333e-06,6.704572297167033e-05
1.2745752428600099e-05,-1.0287820259691216e-05,1.8434779121889733e-05,5.581515324593056e-06,5.966850949334912e-05
3.4965523809660226e-05,-1.85273565875832e-05,1.5860843632253818e-05,-9.921002401824808e-07,5.785550092696212e-05
3.440877844695933e-05,-1.5053768720463268e-06,1.2734869414998684e-05,-6.4442588154633995e-06,5.9604095440590754e-05
1.3921860954724252e-05,1.6994847101159394e-05,1.0368644325353671e-05,-6.712496997351991e-06,5.793098171125166e-05
-1.2801805496565066e-05,2.371883783780504e-05,9.92669811239466e-06,-2.8689739792753244e-06,5.5975669965846464e-05
-3.394592567929067e-05,2.371828850300517e-05,8.745400009502191e-06,-3.4029207540697826e-07,5.753003279096447e-05
-4.71771381853614e-05,1.9339331629453227e-05,3.300955540908035e-06,5.055182441537909e-07,5.878281808691099e-05
-5.3541163651971146e-05,1.0185744940827135e-05,-4.7219441512424964e-06,1.7350528196402593e-06,5.6163276894949377e-05
-5.5497632274637e-05,3.861763161694398e-06,-1.4627017662860453e-05,1.6984071180559113e-06,5.2873547247145325e-05
-5.3489038691623136e-05,5.131714260642184e-06,-2.40376921283314e-05,-1.3761973605141975e-06,5.205664274399169e-05
-5.163872992852703e-05,8.638814506412018e-06,-2.5223700504284352e-05,-5.291449724609265e-06,5.035823778598569e-05
-4.939234713674523e-05,1.0460333214723505e-05,-1.9389835870242678e-05,-6.337116246868391e-06,4.603738852893002e-05
-4.509088466875255e-05,1.1748265023925342e-05,-1.261332454305375e-05,-5.018734555051196e-06,4.1775729187065735e-05
-3.89051201636903e-05,1.2409289411152713e-05,-8.577168046031147e-06,-3.334132770760334e-06,3.9760692743584514e-05
-2.8388107239152305e-05,7.3804299063340295e-06,-7.5837360782315955e-06,-1.1991285191470524e-06,3.995886436314322e-05
-1.5547062503173947e-05,-5.28824102730141e-06,-9.157560270978138e-06,2.1277658106555464e-06,4.267344775144011e-05
-2.4289320208481513e-06,-1.6515017705387436e-05,-9.607006177247968e-06,4.1672192310215905e-06,4.696339965448715e-05
9.013296221382916e-06,-1.5512781828874722e-05,-8.140669706335757e-06,3.0246264941524714e-06,4.97661494591739e-05
1.4240124983189162e-05,-3.957119361075456e-07,-4.1092384890362155e-06,1.5802980897205998e-06,4.9461301387054846e-05
1.629442340345122e-05,1.7750098777469248e-05,-2.5045781057997374e-06,2.049291879302473e-06,4.877281025983393e-05
2.1948255380266346e-05,3.5171349736629054e-05,-7.089261544024339e-06,3.6678191008832073e-06,4.769521547132172e-05
2.1016054233768955e-05,5.784628228866495e-05,-1.1452111721155234e-05,3.629721277320641e-06,4.2805258999578655e-05
1.1911796718777623e-05,7.855256990296766e-05,-1.0441884114698041e-05,2.497663899703184e-06,3.8432310248026624e-05
-8.339391115441686e-07,8.476607035845518e-05,-8.323045221914072e-06,2.2260223886405583e-06,3.899209696101025e-05
-1.3797205610899255e-05,7.997351349331439e-05,-6.510825642180862e-06,3.0048865937715163e-06,4.034673111164011e-05
-2.159206815122161e-05,7.511300646001473e-05,-1.4839068853689241e-06,9.014259916284573e-08,4.099431316717528e-05
-2.4752385797910392e-05,6.947721703909338e-05,1.9274586975370767e-06,-1.5596435787301743e-06,4.427148451213725e-05
-2.7690264687407762e-05,6.18907724856399e-05,1.3919852790422738e-06,-2.552947762524127e-06,4.836557127418928e-05
-2.8988884878344834e-05,5.1053924835287035e-05,1.8147707692151016e-07,-6.312778168648947e-06,4.555726263788529e-05
-2.8041315090376884e-05,4.465523670660332e-05,-1.5383581057903939e-06,-1.0575954547675792e-05,4.061622530571185e-05
-2.750410931184888e-05,4.1417246393393725e-05,-3.3639366847637575e-06,-1.598334711161442e-05,4.27337727160193e-05
-3.235726762795821e-05,3.943813135265373e-05,-1.6136568774527404e-06,-1.7825466784415767e-05,4.643366628442891e-05
-4.708691994892433e-05,4.1780745959840715e-05,2.6396894554636674e-06,-1.6453161151730455e-05,4.871237251791172e-05
-6.167021638248116e-05,4.051126597914845e-05,7.848131645005196e-06,-1.2987071386305615e-05,5.166164191905409e-05
-5.9382535255281255e-05,3.2983873097691685e-05,1.3038004908594303e-05,-1.0913245205301791e-05,5.641351162921637e-05
-3.851447399938479e-05,2.6896394047071226e-05,1.6556559785385616e-05,-1.1034203453164082e-05,5.852134199813008e-05
-1.746046655171085e-05,3.0216337108868174e-05,1.7958218450075947e-05,-1.279346633964451e-05,5.981403955956921e-05
-9.652252629166469e-06,3.636214751168154e-05,1.92124552995665e-05,-1.5340290701715276e-05,6.149538967292756e-05
-1.937904926307965e-05,3.971171463490464e-05,2.296189450134989e-05,-1.5788002201588824e-05,6.336135265883058e-05
-4.039665145683102e-05,3.799525075010024e-05,2.6036776034743525e-05,-1.297486960538663e-05,6.587499956367537e-05
-5.732415593229234e-05,3.248377834097482e-05,2.2582340534427203e-05,-1.1993914085905999e-05,6.731937901349738e-05
-5.751882781623863e-05,2.988549749716185e-05,1.3983627468405757e-05,-1.5058615645102691e-05,6.891260272823274e-05
-4.6784462028881535e-05,3.457200728007592e-05,8.026877367228735e-06,-1.8509221263229847e-05,7.01809476595372e-05
-3.9628997910767794e-05,4.0110156987793744e-05,7.128713150450494e-06,-2.1200190531089902e-05,7.031954737612978e-05
-4.182099291938357e-05,4.165324571658857e-05,1.0817930160555989e-05,-2.1591076801996678e-05,6.849397323094308e-05
-5.2147112000966445e-05,3.6661622289102525e-05,1.751835225149989e-05,-2.0204710381221958e-05,6.275717896642163e-05
-6.355755613185465e-05,2.6855768737732433e-05,2.3619084458914585e-05,-1.7962840502150357e-05,5.233890988165513e-05
-7.148380973376334e-05,2.2353446183842607e-05,2.4677025066921487e-05,-1.5980856915120967e-05,4.495788016356528e-05
-6.488220242317766e-05,2.7083497116109356e-05,2.1183341232244857e-05,-1.639726360735949e-05,4.772463580593467e-05
-4.102118327864446e-05,3.102957271039486e-05,1.7687034414848313e-05,-1.867975151981227e-05,5.417315333033912e-05
-1.5621990314684808e-05,2.8174499675515108e-05,1.4677159015263896e-05,-2.004714588110801e-05,5.6571159802842885e-05
-4.45289788331138e-06,1.9858349332935177e-05,1.3951451364846434e-05,-1.8288679711986333e-05,5.9082933148602024e-05
-6.253549145185389e-07,1.2306836651987396e-05,1.7161131836473942e-05,-1.825487743190024e-05,6.279585795709863e-05
2.142501216439996e-06,1.7890277376864105e-05,1.8056669432553463e-05,-1.9947907276218757e-05,6.268161087064072e-05
-7.11133588993107e-06,2.9351431294344366e-05,1.1454369996499736e-05,-1.567003710079007e-05,6.029953874531202e-05
-1.6397700164816342e-05,3.577995448722504e-05,5.613735083898064e-06,-1.1126101526315324e-05,6.137011951068416e-05
-1.8138222003472038e-05,4.1219765989808366e-05,7.241302682814421e-06,-1.1325842933729291e-05,6.471030792454258e-05
-1.5122690456337295e-05,4.6216326154535636e-05,1.06841998785967e-05,-1.418896863469854e-05,6.828053301433101e-05
-1.4629928045906126e-05,4.76556051580701e-05,9.362913260702044e-06,-1.552316825836897e-05,6.811982166254893e-05
-1.8915652617579326e-05,4.7330755478469655e-05,4.071473540534498e-06,-1.674217128311284e-05,6.702735845465213e-05
-2.5833845938905142e-05,4.202821583021432e-05,3.7693376953029656e-07,-2.0772127754753456e-05,6.684813706669956e-05
-3.3861444535432383e-05,2.931066046585329e-05,2.1999373984726844e-06,-2.6471294404473156e-05,6.539400055771694e-05
-3.6507284676190466e-05,8.869218618201558e-06,7.359407391049899e-06,-2.7635089281830005e-05,6.31769435130991e-05
-3.1265673896996304e-05,-1.3101346667099278e-05,9.834547199716326e-06,-2.401855272182729e-05,6.311324250418693e-05
-2.2232343326322734e-05,-2.5908380848704837e-05,8.72141208674293e-06,-2.1613068383885548e-05,6.503128679469228e-05
-2.172721542592626e-05,-2.365880754950922e-05,6.10939969192259e-06,-2.1857526007806882e-05,6.549117824761197e-05
-3.3368964068358764e-05,-1.0756298252090346e-05,4.9239761210628785e-06,-2.3635227989871055e-05,6.484350888058543e-05
-5.0110356824006885e-05,5.487718226504512e-06,4.609037205227651e-06,-2.4554805349907838e-05,6.376873352564871e-05
-5.878526280866936e-05,2.301019230799284e-05,2.92234062726493e-06,-2.4306937120854855e-05,6.319015665212646e-05
-5.194443656364456e-05,3.698675936902873e-05,-1.8248692867928185e-06,-2.264577960886527e-05,6.329316238407046e-05
-3.2700645533623174e-05,4.0913357224781066e-05,-6.112671144364867e-06,-2.167872662539594e-05,6.441782898036763e-05
-1.734102625050582e-05,3.822596772806719e-05,-4.958785211783834e-06,-2.099801531585399e-05,6.497163121821359e-05
-1.5189662917691749e-05,3.2610529160592705e-05,-1.1302827260806225e-06,-1.961206908163149e-05,6.296876381384209e-05
-1.782248364179395e-05,1.7939473764272407e-05,-4.451845256880915e-07,-1.6622903785901144e-05,5.845569467055611e-05
-1.7550770280649886e-05,4.85253804072272e-06,-4.46453259428381e-06,-1.5103433725016657e-05,5.517950557987206e-05
-1.552735557197593e-05,8.341130524058826e-06,-5.66231346965651e-06,-1.3630815374199301e-05,5.6702465371927246e-05
-1.2573007552418858e-05,2.029128336289432e-05,1.4257594784794492e-06,-1.107895604945952e-05,5.8936915593221784e-05
-1.7161311916424893e-05,2.5896339138853364e-05,1.0029340955952648e-05,-1.2217666153446771e-05,5.7443689001956955e-05
-2.7804549972643144e-05,2.913258140324615e-05,9.622570360079408e-06,-1.1494450518512167e-05,5.570464418269694e-05
-2.964101622637827e-05,3.1150852009886876e-05,7.311563877010485e-06,-1.156724556494737e-05,5.680082176695578e-05
-2.5248191377613693e-05,2.7277976187178865e-05,1.0628913514665328e-05,-1.4237612958822865e-05,5.954411972197704e-05
-2.6828472982742824e-05,2.5856239517452195e-05,1.0173118425882421e-05,-1.410175536875613e-05,6.237831257749349e-05
-3.293568443041295e-05,2.571804725448601e-05,4.82638552057324e-06,-1.2036956832162105e-05,6.379450496751815e-05
-3.383466901141219e-05,2.7848247555084527e-05,5.406060950008396e-07,-8.815728506306186e-06,6.227918493095785e-05
-2.665014108060859e-05,3.295233545941301e-05,-2.512691253286903e-06,-9.985451470129192e-06,6.393082730937749e-05
-1.5917717973934487e-05,3.760041727218777e-05,-6.010360266373027e-06,-1.365915795759065e-05,6.76790441502817e-05
-1.0428269888507202e-05,3.830921195913106e-05,-9.035027687787078e-06,-1.6483149011037312e-05,6.962028419366106e-05
-1.6131223674165085e-05,3.3571883250260726e-05,-6.232475243450608e-06,-1.5161062037805095e-05,6.72344394843094e-05
-2.5116030883509666e-05,2.7234193112235516e-05,2.866036311388598e-06,-9.8743930720957e-06,6.2010352849029e-05
-2.6501267711864784e-05,1.9146496924804524e-05,1.1521648957568686e-05,-6.781449883419555e-06,5.4411502787843347e-05
-2.328119990124833e-05,1.5819490727153607e-05,1.5885092579992488e-05,-7.369829745584866e-06,4.845654984819703e-05
-1.9857758161379024e-05,2.0773393771378323e-05,1.987223186006304e-05,-6.825083346484462e-06,4.927572081214748e-05
-1.617492307559587e-05,3.3731412258930504e-05,2.5429440938751213e-05,-1.9049938373427722e-06,5.654618871631101e-05
-1.2818718460039236e-05,4.709971835836768e-05,2.99889416055521e-05,1.2197747309983242e-06,6.563347415067255e-05
-1.4403059140022378e-05,5.239295569481328e-05,2.829820368788205e-05,1.7581846805114765e-06,6.790053157601506e-05
-1.8600761904963292e-05,5.069703547633253e-05,2.1502863091882318e-05,4.495796474657254e-06,6.386094173649326e-05
-1.8982756955665536e-05,4.849347533308901e-05,1.6101188521133736e-05,7.4783001764444634e-06,6.021552690071985e-05
-1.3164784832042642e-05,5.0931499572470784e-05,1.4122897482593544e-05,6.726701485604281e-06,5.8874480600934476e-05
-7.290239864232717e-06,5.746764873038046e-05,1.3594911251857411e-05,3.2598798043181887e-06,5.47427662240807e-05
-6.792678959754994e-06,5.669229358318262e-05,1.535848787170835e-05,1.763486920935975e-06,5.1101647841278464e-05
-6.49079220238491e-06,3.597366594476625e-05,1.8683953385334462e-05,6.580002718692413e-06,5.258006422081962e-05
-4.787131274497369e-06,1.0603965165500995e-05,2.0757321181008592e-05,1.1420418559282552e-05,5.903841520193964e-05
-1.624741889827419e-05,1.1257787264185026e-05,2.2159967556945048e-05,1.315410827373853e-05,6.623088847845793e-05
-3.813964212895371e-05,2.9954670026199892e-05,2.215208405687008e-05,1.4914307939761784e-05,7.072727748891339e-05
-4.977039498044178e-05,3.889608706231229e-05,2.2734231606591493e-05,1.813745802792255e-05,6.891234079375863e-05
-5.0232709327246994e-05,3.097023000009358e-05,2.0970692276023328e-05,1.984989103220869e-05,6.120534817455336e-05
-5.728172982344404e-05,1.6894697182578966e-05,1.7488753655925393e-05,1.4932704289094545e-05,4.9614685849519446e-05
-7.355286652455106e-05,9.518730621493887e-06,1.6540709111723118e-05,3.774932793021435e-06,4.2845225834753364e-05
-8.233213884523138e-05,5.241685357759707e-06,1.54702956933761e-05,-8.22575316306029e-07,4.413525675772689e-05
-7.963612006278709e-05,5.6143726396840066e-06,1.0313452548871282e-05,2.3231939394463552e-06,4.9419173592468724e-05
-5.333099761628546e-05,1.3801732166029979e-05,6.660100098088151e-06,-1.8541932433890906e-07,5.400599184213206e-05
-7.576644293294521e-06,2.0757157471962273e-05,9.979239621316083e-06,-1.1272350093349814e-05,5.501534542418085e-05
2.529943230911158e-05,2.2052268832339905e-05,1.147185957961483e-05,-2.4509090508217923e-05,5.8154964790446684e-05
2.6195002647000365e-05,2.281282104377169e-05,6.7259288698551245e-06,-3.065147393499501e-05,6.270604353630915e-05
2.35764878198097e-06,2.5664805434644222e-05,-2.2881381767092535e-07,-3.446519986027852e-05,6.452344678109512e-05
-2.0475968995015137e-05,2.9012448067078367e-05,-6.48725790597382e-06,-4.161041943007149e-05,6.079724334995262e-05
-2.8131013095844537e-05,2.8530801500892267e-05,-1.1815020116046071e-05,-4.813498162548058e-05,5.468800736707635e-05
-2.3274258637684397e-05,2.8123477022745647e-05,-1.4738628124177922e-05,-5.0894046580651775e-05,4.9573944124858826e-05
-1.7439302610000595e-05,3.124401337117888e-05,-1.2053317732352298e-05,-5.188706927583553e-05,4.5691962441196665e-05
-1.8054304746328853e-05,3.405423922231421e-05,-5.044583758717636e-06,-4.559626540867612e-05,4.425363658810966e-05
-2.3076914658304304e-05,3.0584007618017495e-05,-1.5794336150065647e-06,-2.930180198745802e-05,4.589063973980956e-05
-2.328802293050103e-05,2.0725623471662402e-05,-4.680632628151216e-06,-1.5109205378394108e-05,4.6944227506173775e-05
-1.54800927703036e-05,1.1293217539787292e-05,-6.2221520238381345e-06,-1.0236686648568138e-05,4.915236422675662e-05
-9.713551662571263e-06,8.837661880534142e-06,-1.4694065839648829e-06,-8.444732884527184e-06,5.486580266733654e-05
-1.6297744878102094e-05,1.525249444966903e-05,4.245657692081295e-06,-7.121181170077762e-06,5.814475298393518e-05
-3.254858893342316e-05,2.41447014559526e-05,2.316521886314149e-06,-5.356537712941645e-06,5.752204015152529e-05
-4.321638334658928e-05,2.457817390677519e-05,-2.614705636005965e-06,-2.6536745281191543e-06,5.804494867334142e-05
-3.562073834473267e-05,1.77491001522867e-05,-1.500409666732594e-06,-4.050081315654097e-06,6.255595508264378e-05
-1.1584828826016746e-05,1.8509614164941013e-05,-1.6305857286624814e-07,-5.468376457429258e-06,6.83366961311549e-05
1.1803327652160078e-05,2.4636447051307186e-05,-1.0918981274699036e-08,-3.2804721286083804e-06,7.083667151164263e-05
1.4198934877640568e-05,3.0017419703654014e-05,2.192315605498152e-06,1.8803268631018e-06,7.020458724582568e-05
-7.373455446213484e-06,3.529857349349186e-05,3.058769380004378e-06,4.758887371281162e-06,7.15596106601879e-05
-3.303122502984479e-05,4.0537124732509255e-05,7.775136054988252e-07,4.652039478969527e-06,7.677690155105665e-05
-4.000058470410295e-05,4.277488915249705e-05,1.9213971427234355e-06,5.00357236887794e-06,7.905370875960216e-05
-2.3164237063610926e-05,3.987576565123163e-05,2.645993845362682e-06,8.103244908852503e-06,7.967545388964936e-05
-1.9800149857474025e-06,3.276568168075755e-05,1.8069955558530637e-06,8.207945938920602e-06,8.005993731785566e-05
2.686747848201776e-06,2.481799128872808e-05,6.48933564662002e-06,4.134833488933509e-06,7.363106851698831e-05
-5.416576186689781e-06,2.5108649424510077e-05,7.1263566496782005e-06,6.3296183725469746e-06,6.245869008125737e-05
-1.394247192365583e-05,3.006146289408207e-05,4.443573288881453e-06,1.0926229151664302e-05,4.9582151405047625e-05
-2.208572914241813e-05,3.600335548981093e-05,5.536885510082357e-06,8.43035195430275e-06,4.222850111545995e-05
-3.1078827305464074e-05,4.076433106092736e-05,6.463853878813097e-06,-2.2747749426343944e-06,4.179618917987682e-05
-3.653391468105838e-05,3.788210960919969e-05,-1.7022452993842307e-06,-1.65877918334445e-05,4.3388678022893146e-05
-3.340521652717143e-05,2.95636727969395e-05,-1.8798329620040022e-05,-2.7450703782960773e-05,4.144166814512573e-05
-2.986411527672317e-05,2.3487476937589236e-05,-3.762276173802093e-05,-2.7924414098379202e-05,3.5336517612449825e-05
-3.3019085094565526e-05,2.4003389626159333e-05,-4.724575410364196e-05,-2.1333918994059786e-05,2.8638169169425964e-05
-3.728087540366687e-05,2.7762145691667683e-05,-4.578056905302219e-05,-1.3724182281293906e-05,2.33000118896598e-05
-3.542565900715999e-05,3.2775984436739236e-05,-4.261720823706128e-05,-8.773282388574444e-06,2.1104237021063454e-05
-3.275318522355519e-05,3.872943852911703e-05,-4.172777698840946e-05,-7.196314527391223e-06,2.062737985397689e-05
-4.020858250441961e-05,4.248608456691727e-05,-3.642556112026796e-05,-7.655918125237804e-06,2.204299562436063e-05
-5.354805398383178e-05,4.359213562565856e-05,-1.9732557120732963e-05,-7.728061973466538e-06,2.6998119210475124e-05
-5.788229464087635e-05,4.773842738359235e-05,2.6812981559487525e-06,-5.3087428568687756e-06,3.5291996027808636e-05
-4.902343425783329e-05,5.1552084187278524e-05,2.161686643376015e-05,-2.2928250018594554e-06,4.738686038763262e-05
-3.692837344715372e-05,4.783209442393854e-05,3.329807077534497e-05,1.7905347249325132e-07,6.591645797016099e-05
-2.839296212187037e-05,3.313409979455173e-05,3.782765270443633e-05,2.9503173664124915e-06,8.896428334992379e-05
-2.4742808818700723e-05,1.163130218628794e-05,3.6676268791779876e-05,5.0969902076758444e-06,0.00011099430412286893
-2.105856401612982e-05,2.391204247942369e-07,3.475412813713774e-05,1.7991344520851271e-06,0.00012583512580022216
-1.0190703505941201e-05,5.208284164837096e-06,3.401562571525574e-05,-1.947623559317435e-06,0.00013582759129349142
3.7581537526421016e-06,1.7366790416417643e-05,3.31845621985849e-05,2.6017739855888067e-06,0.00014293388812802732
1.0954016033792868e-05,2.7432037313701585e-05,3.06486981571652e-05,7.736541192571167e-06,0.0001431146520189941
1.7883514829009073e-06,3.1831681553740054e-05,2.5757688490557484e-05,4.389697096485179e-06,0.00013290070637594908
-1.3417356058198493e-05,3.106638541794382e-05,2.1622552594635636e-05,-2.0670790945587214e-06,0.00011671878019114956
-2.8990056307520717e-05,2.9475906558218412e-05,2.0836559997405857e-05,-2.829565801221179e-06,0.00010172212932957336
-4.720480501418933e-05,3.556655428837985e-05,1.7852291421149857e-05,-5.932170097366907e-06,9.0579800598789e-05
-5.456145663629286e-05,4.352913674665615e-05,2.0253777620382607e-05,-1.0781111996038817e-05,8.020682435017079e-05
-5.0188162276754156e-05,5.032525223214179e-05,2.162760210921988e-05,-1.0281089089403395e-05,7.000090408837423e-05
-4.0828421333571896e-05,5.267502638162114e-05,1.5871883078943938e-05,-8.941519809013698e-06,6.459500582423061e-05
-3.969084355048835e-05,4.176014772383496e-05,9.751519428391475e-06,-8.610932127339765e-06,5.4529140470549464e-05
-4.4606207666220143e-05,2.7335810955264606e-05,5.389886155171553e-06,-1.2750094356306363e-05,3.332293272251263e-05
-4.82726281916257e-05,2.2594247639062814e-05,5.613148005068069e-06,-1.560396958666388e-05,1.4332104910863563e-05
-5.145857358002104e-05,2.5009810997289605e-05,3.874123194691492e-06,-1.8935283151222393e-05,4.266164978616871e-06
-5.367221456253901e-05,2.6894627808360383e-05,-1.0754692247871844e-08,-2.28809512918815e-05,3.1363191510536126e-07
-4.9772752390708774e-05,3.0323317332658917e-05,-1.0658974360922002e-06,-2.6659525246941485e-05,4.324593191995518e-06
-3.505330460029654e-05,3.0927039915695786e-05,1.939132062034332e-06,-3.020901931449771e-05,1.5357310985564254e-05
-1.1470569006633013e-05,2.2668395104119554e-05,1.5902003269729903e-06,-3.194683449692093e-05,2.739081537583843e-05
6.920599844306707e-06,1.3403920092969202e-05,-2.8976046451134607e-06,-2.95012941933237e-05,3.5895383916795254e-05
2.9150796763133258e-06,1.3966380720376037e-05,-5.821640570502495e-06,-2.524603587517049e-05,3.960162939620204e-05
-1.3981232768855989e-05,2.164561374229379e-05,-6.410202331608161e-06,-2.4110542653943412e-05,4.122358586755581e-05
-2.495705666660797e-05,3.267717329435982e-05,-7.741848094156012e-06,-2.4715001927688718e-05,4.206874655210413e-05
-3.073438347200863e-05,4.059308412251994e-05,-8.722108759684488e-06,-2.5892601115629077e-05,4.163080666330643e-05
-4.034243102069013e-05,3.6299359635449946e-05,-6.768515504518291e-06,-2.483687421772629e-05,4.396542135509662e-05
-4.891513162874617e-05,2.947715802292805e-05,-1.9166745914844796e-06,-2.0188561393297277e-05,5.050164327258244e-05
-6.189489067764953e-05,3.271137393312529e-05,1.5186061546046403e-06,-1.3407318874669727e-05,5.506576781044714e-05
-7.299863500520587e-05,4.328807699494064e-05,4.493878805078566e-06,-9.55485666054301e-06,5.6942128139780834e-05
-5.2166364184813574e-05,4.668241672334261e-05,7.189596999523928e-06,-1.1093507055193186e-05,5.8687397540779784e-05
-2.012386858041282e-06,3.979623943450861e-05,7.554961030109553e-06,-1.8553850168245845e-05,5.724465154344216e-05
3.592040593503043e-05,3.451455995673314e-05,6.711876721965382e-06,-1.96266428247327e-05,5.2893537940690294e-05
2.8742942959070206e-05,2.8766846298822202e-05,6.375408702297136e-06,-1.2363059795461595e-05,5.027098814025521e-05
-2.8530735107779037e-06,2.253390266560018e-05,1.1767656360461842e-05,-9.822931133385282e-06,4.8628640797687694e-05
-2.2861013349029236e-05,1.4009275218995754e-05,1.1882788385264575e-05,-1.522909678897122e-05,4.5619010052178055e-05
-3.09931201627478e-05,1.398332642565947e-06,7.397935405606404e-06,-2.069692527584266e-05,4.77919566037599e-05
-3.538419332471676e-05,-1.2750351743306965e-06,7.476222890545614e-06,-2.3386381144518964e-05,5.362632145988755e-05
-3.7699406675528735e-05,1.0654834113665856e-05,7.074547283991706e-06,-2.22848047997104e-05,5.697941014659591e-05
-3.65701962437015e-05,2.9048531359876506e-05,3.4396600767649943e-06,-1.983237234526314e-05,5.776200850959867e-05
-3.5472075978759676e-05,4.896350219496526e-05,6.727666459482862e-07,-1.8139826352125965e-05,5.997157859383151e-05
-3.450002259342e-05,6.37526172795333e-05,6.327005053208268e-07,-1.5070287190610543e-05,6.290214514592662e-05
-3.4559208870632574e-05,6.210180436028168e-05,7.779964903420478e-07,-9.935797606885899e-06,6.612425204366446e-05
-3.7729590985691175e-05,5.196896381676197e-05,3.6255723898648284e-06,-6.092071544117061e-06,6.909000512678176e-05
-3.992122219642624e-05,4.8584697651676834e-05,7.974764230311848e-06,-7.3538667493266985e-06,6.994704017415643e-05
-3.7896210415055975e-05,5.051884727436118e-05,1.0217653652944136e-05,-1.158833947556559e-05,6.913817196618766e-05
-3.6899531551171094e-05,4.5014174247626215e-05,1.1793636986112688e-05,-1.3892746210331097e-05,6.353468779707327e-05
-3.947952063754201e-05,3.140501576126553e-05,1.4977764294599183e-05,-1.0934726560662966e-05,5.3597344958689064e-05
-3.774950164370239e-05,1.991831413761247e-05,1.7560181731823832e-05,-6.938277238077717e-06,4.7610756155336276e-05
-3.2292911782860756e-05,1.6025504010031e-05,1.8223006918560714e-05,-3.839066721411655e-06,4.8695281293476e-05
-2.8994400054216385e-05,1.7446018318878487e-05,1.6223455531871878e-05,6.971436050662305e-08,4.932982847094536e-05
-2.8059386750101112e-05,2.1766292775282636e-05,1.1498023013700731e-05,2.6059416313728434e-07,4.57175265182741e-05
-2.3223854441312142e-05,2.7171070541953668e-05,9.098322152567562e-06,-4.197130238026148e-06,4.1801486077019945e-05
-1.5419040209962986e-05,2.7934658646699972e-05,1.0787626706587616e-05,-7.076287147356197e-06,4.5962231524754316e-05
-9.440118446946144e-06,2.4661398128955625e-05,1.3084109014016576e-05,-9.359337127534673e-06,5.7461358665023e-05
-2.370585434618988e-06,2.5336497856187634e-05,1.3836263860866893e-05,-1.1903734048246406e-05,6.876603583805263e-05
9.103529009735212e-06,3.534104325808585e-05,1.388296459481353e-05,-1.381391120958142e-05,7.855342846596614e-05
2.0703757400042377e-05,5.14506027684547e-05,1.255169354408281e-05,-1.2445979336916935e-05,8.320377673953772e-05
2.5895698854583316e-05,5.409101868281141e-05,1.0755210496427026e-05,-8.345301466761157e-06,7.643688877578825e-05
2.5524457669234835e-05,3.406012547202408e-05,1.158680061053019e-05,-6.662034593318822e-06,6.499679147964343e-05
2.024667446676176e-05,1.3457646673487034e-05,1.0510243555472698e-05,-7.586781975987833e-06,5.8397301472723484e-05
9.391824278282002e-06,3.587394985515857e-06,8.427584361925256e-06,-7.267112778208684e-06,5.722028799937107e-05
-2.3101893020793796e-06,-3.6201968214299995e-06,9.251819392375182e-06,-6.14902319284738e-06,5.702149428543635e-05
-1.709110256342683e-05,-1.3498864063876681e-05,1.1615976291068364e-05,-5.817465080326656e-06,5.2453269745456055e-05
-3.0267681722762063e-05,-1.4124751032795757e-05,1.5465213436982594e-05,-6.131835561973276e-06,4.4996562792221084e-05
-3.793077848968096e-05,2.626357172630378e-06,1.654694278840907e-05,-7.80173377279425e-06,4.142601028434001e-05
-4.1672868974274024e-05,2.1497948182513937e-05,1.3811993994750082e-05,-6.537463377753738e-06,4.160521712037735e-05
-4.0402490412816405e-05,2.848883013939485e-05,1.0663473403837997e-05,-3.7444990539370338e-06,4.84997290186584e-05
-4.246781099936925e-05,2.331480754946824e-05,5.522096216736827e-06,-2.5228052891179686e-06,5.72979188291356e-05
-4.883882502326742e-05,1.8076427295454778e-05,-2.411249170108931e-06,1.3358990145206917e-06,6.166805542306975e-05
-4.894025551038794e-05,1.9533819795469753e-05,-5.5352397794194985e-06,9.197463441523723e-06,6.184220546856523e-05
-4.1969233279814944e-05,2.857612525986042e-05,-4.056613761349581e-06,1.6256177332252264e-05,6.09688795520924e-05
-3.191374344169162e-05,3.6062316212337464e-05,-2.292299086548155e-06,1.796945434762165e-05,6.198373739607632e-05
-2.136316106771119e-05,3.199101774953306e-05,-3.665745964553935e-07,1.65304918482434e-05,6.220181239768863e-05
-1.4476830074272584e-05,2.4834496798575856e-05,9.577973969498998e-07,1.4091805496718735e-05,6.296455103438348e-05
-1.1152018487337045e-05,2.6073199478560127e-05,1.639418201193621e-06,1.3181263057049364e-05,6.445037433877587e-05
-1.1516965969349258e-05,3.584418664104305e-05,3.53732616531488e-06,1.4423783795791678e-05,6.616969039896503e-05
-1.846290433604736e-05,4.684618397732265e-05,5.854667506355327e-06,1.3607097571366467e-05,6.85668783262372e-05
-2.777960617095232e-05,5.135136962053366e-05,6.800471055612434e-06,8.203689503716305e-06,7.130156154744327e-05
-3.321826079627499e-05,4.431256456882693e-05,7.654979526705574e-06,-2.258041604363825e-06,6.865668547106907e-05
-3.605359961511567e-05,3.28006390191149e-05,5.943707947153598e-06,-1.8725495465332642e-05,6.175887392600998e-05
-3.5534183552954346e-05,2.544712697272189e-05,1.6336082353518577e-06,-3.5809120163321495e-05,5.602595047093928e-05
-3.254615512560122e-05,2.5542536604916677e-05,-5.517879912986245e-07,-4.104274557903409e-05,5.127950498717837e-05
-3.098825618508272e-05,2.9163531507947482e-05,-1.6236921283052652e-06,-3.6752011510543525e-05,4.795615313923918e-05
-3.1874747946858406e-05,2.4717621272429824e-05,-3.129640390397981e-06,-3.285576167399995e-05,4.977378193871118e-05
-3.346469748066738e-05,3.426348939683521e-06,-4.4885459828947205e-06,-2.8265943910810165e-05,5.147999036125839e-05
-2.7916716135223396e-05,-1.6842110198922455e-05,-5.739802872994915e-06,-1.8322736650588922e-05,5.1832987082889304e-05
-2.1258201741147786e-05,-6.09872950008139e-06,-2.086696213154937e-06,-5.050093022873625e-06,5.3310988732846454e-05
-2.1787325749755837e-05,1.9797087588813156e-05,4.180724317848217e-06,2.2980268568062456e-06,5.2849591156700626e-05
-2.3341966880252585e-05,3.0487910407828167e-05,2.2302622255665483e-06,8.342145179085492e-07,5.0079695938620716e-05
-2.450727879477199e-05,2.2480569896288216e-05,-5.208964012126671e-06,-4.031397565995576e-06,4.2981137085007504e-05
-2.3952439732966013e-05,1.0646030204952694e-05,-9.904144462780096e-06,-4.926946076011518e-06,3.602603464969434e-05
-1.8259954231325537e-05,1.8710052245296538e-05,-1.1488681593618821e-05,-1.6537876490474446e-06,3.808865221799351e-05
-7.4760409916052595e-06,3.3721127692842856e-05,-1.1497819286887534e-05,-2.5309807369922055e-06,4.459603951545432e-05
-7.123487648641458e-06,3.585468584788032e-05,-1.1057813026127405e-05,-1.1608342902036384e-05,4.9719437811290845e-05
-1.8801392798195593e-05,3.0467912438325584e-05,-1.2175692063465249e-05,-2.003187000809703e-05,5.5913147662067786e-05
-2.6582652935758233e-05,2.4465673050144687e-05,-1.723905370454304e-05,-2.1554888007813133e-05,6.605305679840967e-05
-2.768425656540785e-05,2.064483669528272e-05,-1.9438552044448443e-05,-1.7749262042343616e-05,8.144622552208602e-05
-2.560090069891885e-05,2.1303909306880087e-05,-1.5305738997994922e-05,-1.4678865227324422e-05,9.495087579125538e-05
-2.0977160602342337e-05,2.6440688088769093e-05,-8.084861292445567e-06,-1.589597923157271e-05,9.978563321055844e-05
-2.181246964028105e-05,3.2347063097404316e-05,-1.910607124955277e-06,-1.5511228411924094e-05,9.544454951537773e-05
-4.153851841692813e-05,3.83490914828144e-05,6.701221536786761e-06,-9.865421816357411e-06,8.787715341895819e-05
-7.98577384557575e-05,3.7921305192867294e-05,2.0577488612616435e-05,-1.7176870414914447e-06,8.131754293572158e-05
-0.00011039831588277593,2.8691341867670417e-05,3.500641105347313e-05,2.671844413271174e-06,7.428672688547522e-05
-0.00010161691170651466,2.150614636775572e-05,4.524578616837971e-05,3.720101858561975e-06,6.667536945315078e-05
-6.28848938504234e-05,2.5650186216807924e-05,4.898461338598281e-05,2.81949382952007e-06,6.153950380394235e-05
-3.320518953842111e-05,3.547553205862641e-05,4.5562232116935775e-05,-9.157593012787402e-07,5.845670966664329e-05
-3.017693779838737e-05,4.612866177922115e-05,3.877279959851876e-05,-7.475778602383798e-06,5.3916246542939916e-05
-3.6589368392014876e-05,5.4089436162030324e-05,3.224973625037819e-05,-1.408973093930399e-05,4.8198457079706714e-05
-3.76648131350521e-05,5.610498192254454e-05,2.5264416763093323e-05,-1.7850064978119917e-05,4.250700294505805e-05
-3.3042215363821015e-05,5.551699359784834e-05,1.8627895769895986e-05,-1.699083804851398e-05,4.0887614886742085e-05
-2.953400144178886e-05,5.039813549956307e-05,8.979945050668903e-06,-1.6706762835383415e-05,4.53495085821487e-05
-3.359703259775415e-05,3.722215842572041e-05,7.191659960881225e-07,-2.2470027033705264e-05,5.153727761353366e-05
-3.938796726288274e-05,1.4133736840449274e-05,-5.163190962775843e-06,-3.207562258467078e-05,5.4459414968732744e-05
-3.952497718273662e-05,-3.5421981010586023e-06,-6.16509487372241e-06,-3.443176319706254e-05,5.349695493350737e-05
-2.6585397790768184e-05,-1.1400818038964644e-05,1.0554761047387728e-06,-2.2256735974224284e-05,4.98461231472902e-05
-4.430169155966723e-06,-1.3099299394525588e-05,1.0265523087582551e-05,-8.297869499074295e-06,5.093086292617954e-05
3.0390349365916336e-06,1.1094970204794663e-06,1.3283973203215282e-05,-7.842914783395827e-06,6.24057647655718e-05
-7.547591394541087e-06,1.710979631752707e-05,1.021771731757326e-05,-1.5269888535840437e-05,7.241092680487782e-05
-1.9856810467899777e-05,2.694841350603383e-05,6.469791514973622e-06,-2.0340847186162136e-05,7.307946361834183e-05
-2.6571973648970015e-05,3.0861618142807856e-05,2.8783572361135157e-06,-1.9482609786791727e-05,6.683439278276637e-05
-2.9088352675898932e-05,3.0907314794603735e-05,3.0557994250557385e-06,-1.45740496009239e-05,6.14504242548719e-05
-2.93439588858746e-05,2.9992124837008305e-05,8.728121429157909e-06,-1.09085303847678e-05,6.051280433894135e-05
-3.1184015824692324e-05,2.802103517751675e-05,1.4821982404100709e-05,-8.121828614093829e-06,6.309092714218423e-05
-3.197738260496408e-05,2.6708679797593504e-05,1.5173631254583597e-05,-5.986960331938462e-06,6.74667171551846e-05
-3.029261097253766e-05,3.0460407288046554e-05,1.0454927178216167e-05,-6.879681109239755e-07,7.182778062997386e-05
-2.8776788894901983e-05,3.8728609069949016e-05,4.257589353073854e-06,3.1996664802136365e-06,7.653187640244141e-05
-2.201750066888053e-05,4.3159438064321876e-05,1.7198650539285154e-06,3.657697106973501e-06,7.976798951858655e-05
-1.0038988875749055e-05,4.089417416253127e-05,1.913391088237404e-06,4.677021479437826e-06,8.230091771110892e-05
5.322959850673215e-07,3.663019015220925e-05,3.622222948251874e-06,8.54329664434772e-06,8.417054050369188e-05
6.080099865357624e-06,3.869418287649751e-05,5.404694093158469e-06,9.586198757460807e-06,8.4347790107131e-05
1.0290738828189205e-05,4.549840377876535e-05,2.988197365993983e-06,4.8564147618890274e-06,8.353868179256096e-05
1.630357473914046e-05,5.3169445891398937e-05,-1.510080551270221e-06,-1.611562083780882e-06,8.443722617812455e-05
2.413271795376204e-05,5.575103568844497e-05,-3.9037454371282365e-06,-9.537375262880232e-06,8.14284139778465e-05
2.9752691261819564e-05,4.904504748992622e-05,-5.007197160011856e-06,-1.8040802387986332e-05,7.078651105985045e-05
2.7337770006852224e-05,3.8121859688544646e-05,-6.668647984042764e-06,-2.7068066628999077e-05,5.6551296438556165e-05
1.3130942534189671e-05,3.2477295462740585e-05,-6.668246442131931e-06,-3.2816391467349604e-05,3.929907325073145e-05
-1.3208391465013847e-05,3.0999130103737116e-05,-3.888254013872938e-06,-2.857454092008993e-05,2.0945493815816008e-05
-5.305237209540792e-05,3.4224154660478234e-05,-2.116588575518108e-06,-1.6208170563913882e-05,8.601127774454653e-06
-9.669300925452262e-05,3.737282531801611e-05,-9.923420520863147e-07,-7.3136129685735796e-06,1.0717517398006748e-05
-0.0001134640333475545,3.085335993091576e-05,1.7663771245679527e-07,-1.0256850146106444e-05,1.979577064048499e-05
-9.426644101040438e-05,2.4349057639483362e-05,2.064037971649668e-06,-1.5379246178781614e-05,1.9343615349498577e-05
-6.132206181064248e-05,2.8208458388689905e-05,4.704448201664491e-06,-1.081204663933022e-05,1.8110238670487888e-05
-2.9664161047548987e-05,3.7856396374991164e-05,1.7494791109129437e-06,-3.374234665898257e-06,2.79822779702954e-05
-8.489329047733918e-06,3.955347347073257e-05,-4.6066629693086725e-06,2.5028910499713675e-07,4.3860833102371544e-05
-5.703079750674078e-06,3.0525439797202125e-05,-8.656736099510454e-06,8.659893637741334e-07,5.7751611166168004e-05
-1.7690379536361434e-05,2.5775259928195737e-05,-1.0493672562006395e-05,-2.7411036285229784e-07,6.74915499985218e-05
-3.2025320251705125e-05,2.952987233584281e-05,-1.6763822713983245e-05,9.435861443307658e-07,7.341198215726763e-05
-2.673024391697254e-05,3.86176398023963e-05,-2.6176605388172902e-05,5.098510428069858e-06,7.245075539685786e-05
5.619953753921436e-06,4.385416104923934e-05,-3.390643541933969e-05,1.620473568664238e-07,6.739712989656255e-05
3.559256947482936e-05,3.9976297557586804e-05,-3.5003264201804996e-05,-1.2428829904820304e-05,6.905623740749434e-05
3.573888898245059e-05,3.4868342481786385e-05,-3.126862065983005e-05,-2.0933575797243975e-05,7.579220982734114e-05
1.0711703907873016e-05,3.478736834949814e-05,-2.633644180605188e-05,-2.249516182928346e-05,7.414499123115093e-05
-1.6969490388873965e-05,3.694835686474107e-05,-1.9722550860024057e-05,-2.2603348043048754e-05,6.582066271221265e-05
-3.389967605471611e-05,3.637038025772199e-05,-1.4664922673546243e-05,-2.5099985577980988e-05,5.888537998544052e-05
-4.2712243157438934e-05,3.15128309011925e-05,-1.4055213796382304e-05,-2.8927510356879793e-05,5.351482832338661e-05
-4.986456406186335e-05,1.821631485654507e-05,-1.273209181817947e-05,-3.0302457162179053e-05,4.683988299802877e-05
-5.555966708925553e-05,-5.624941081805446e-07,-4.939362952427473e-06,-2.8191961973789148e-05,4.056447505718097e-05
-5.603347744909115e-05,-1.476839133829344e-05,5.535960099223303e-06,-2.5297209504060447e-05,4.021924178232439e-05
-5.1018861995544285e-05,-1.636083470657468e-05,1.1616082701948471e-05,-2.318023871339392e-05,4.83807671116665e-05
-4.126283965888433e-05,-8.443897058896255e-06,1.0426986591483e-05,-2.156234950234648e-05,5.9351987147238106e-05
-3.1700248655397445e-05,8.53214544349612e-07,6.837021828687284e-06,-1.9418665033299476e-05,6.34474927210249e-05
-2.7796615540864877e-05,7.284759703907184e-06,6.0501438383653294e-06,-2.031315307249315e-05,6.126119842519984e-05
-2.472086089255754e-05,9.351388143841177e-06,9.929009138431866e-06,-2.411734385532327e-05,6.5957399783656e-05
-2.2112328224466182e-05,8.655178135086317e-06,1.7170475985039957e-05,-2.5299597837147303e-05,7.274816744029522e-05
-2.041845982603263e-05,1.6531308574485593e-05,2.524287447158713e-05,-1.9533301383489743e-05,6.984415813349187e-05
-1.3985278201289475e-05,2.542073343647644e-05,3.07391383103095e-05,-1.0379605555499438e-05,6.294746708590537e-05
-8.639822226541582e-06,3.018933057319373e-05,3.9377315260935575e-05,-8.605187758803368e-06,5.827507993672043e-05
-6.528635367430979e-06,3.8935148040764034e-05,4.824716233997606e-05,-9.179653716273606e-06,6.149984255898744e-05
-2.0640754883061163e-06,4.898931001662277e-05,4.801011527888477e-05,-4.902570253761951e-06,6.44045285298489e-05
6.122781087469775e-06,5.440195309347473e-05,4.408050517668016e-05,-5.500113729794975e-06,6.146332452772185e-05
1.2283268006285653e-05,5.112951112096198e-05,4.024141890113242e-05,-7.053668468870455e-06,5.939654874964617e-05
1.1446414646343328e-05,3.852770532830618e-05,3.1521081837126985e-05,-8.302193236886524e-06,5.761769352830015e-05
2.9440486741805216e-06,1.665506169956643e-05,2.265290095238015e-05,-9.784323992789723e-06,5.589356442214921e-05
-1.5435383829753846e-05,-4.978326614946127e-06,1.7820198991103098e-05,-7.210679541458376e-06,5.2110623073531315e-05
-3.750033283722587e-05,-7.92750870459713e-06,1.655568485148251e-05,-4.784417342307279e-06,5.160382715985179e-05
-4.5936412789160386e-05,1.0914297490671743e-05,1.6278239854727872e-05,-4.366546818346251e-06,5.770547431893647e-05
-4.0199069189839065e-05,2.7197935196454637e-05,1.6977037375909276e-05,-4.935889137414051e-06,6.592167483177036e-05
-2.9381624699453823e-05,3.1397081329487264e-05,1.9238230379414745e-05,-3.981220743298763e-06,7.007912790868431e-05
-2.0352661522338167e-05,3.342825948493555e-05,1.9316252291901037e-05,-3.3356195672240574e-06,7.138983346521854e-05
-2.0327843230916187e-05,4.1176423110300675e-05,1.7125048543675803e-05,-3.8519524423463736e-06,7.585834100609645e-05
-2.584591493359767e-05,4.963127139490098e-05,1.5747456927783787e-05,-5.120489731780253e-06,8.199395233532414e-05
-2.6283509214408696e-05,4.9916103307623416e-05,1.7216427295352332e-05,-8.854957741277758e-06,8.618280116934329e-05
-2.1781706891488284e-05,3.976399966632016e-05,2.0857518393313512e-05,-1.2763968697981909e-05,8.413849718635902e-05
-2.1521062080864795e-05,2.7175397917744704e-05,2.316308928129729e-05,-1.1485537470434792e-05,7.373841799562797e-05
-2.3633043383597396e-05,2.4202337954193354e-05,2.1743571778642945e-05,-4.843556780542713e-06,6.16272518527694e-05
-1.9488588804961182e-05,3.23206368193496e-05,2.1689635104849003e-05,1.4306178286460636e-07,5.7506258599460125e-05
-9.269944712286815e-06,4.251595237292349e-05,2.3236894776346162e-05,1.3364864344111993e-06,6.367199966916814e-05
-3.854541773762321e-06,4.550246012513526e-05,2.1895637473789975e-05,1.1998992022199673e-06,7.678368274355307e-05
-6.867741831229068e-06,3.813788862316869e-05,1.624983997317031e-05,-3.5164127893949626e-06,8.863785478752106e-05
-1.1189941687916871e-05,2.234940984635614e-05,8.689691640029196e-06,-8.854947736836039e-06,9.36367068788968e-05
-1.662995600781869e-05,6.31322609478957e-06,8.468391570204403e-07,-3.522741735650925e-06,8.799359784461558e-05
-2.5041281332960352e-05,5.742639586969744e-06,-3.6202666819917795e-07,8.954938493843656e-06,6.946397479623556e-05
-2.9977427402627654e-05,2.250907891720999e-05,5.293477897794219e-06,2.0382882212288678e-05,4.3006453779526055e-05
-3.471529998932965e-05,4.1626448364695534e-05,1.4392720913747326e-05,2.869504714908544e-05,1.8816906958818436e-05
-3.736469443538226e-05,5.080393748357892e-05,1.936682383529842e-05,3.903963806806132e-05,1.5682579032727517e-05
-3.6568810173776e-05,5.140758366906084e-05,1.6955937098828144e-05,4.526377233560197e-05,3.401055801077746e-05
-4.30404361395631e-05,5.346049147192389e-05,1.551960849610623e-05,3.9412690966855735e-05,5.251569382380694e-05
-5.6221844715764746e-05,5.000656528864056e-05,1.2022751434415113e-05,2.9659404390258715e-05,6.428034248529002e-05
-6.328951712930575e-05,4.0824445022735745e-05,1.0384291272202972e-05,2.083408980979584e-05,6.484394543804228e-05
-6.0384518292266876e-05,3.654434476629831e-05,8.552656254323665e-06,1.2576221706694923e-05,4.933496893499978e-05
-4.897250619251281e-05,4.608050949173048e-05,3.009856300195679e-06,-1.726803589008341e-06,2.5640372768975794e-05
-3.654041938716546e-05,5.8978668675990775e-05,-2.6796751626534387e-06,-1.6809299268061295e-05,1.7003272660076618e-05
-3.085526986978948e-05,6.320608372334391e-05,-6.029669293639017e-06,-2.7664207664201967e-05,2.203552685386967e-05
-3.120427572866902e-05,4.654619260691106e-05,-5.865027560503222e-06,-3.685004776343703e-05,2.6600633646012284e-05
-3.9420046960003674e-05,8.313430043926928e-06,-5.140389021107694e-06,-4.5541502913692966e-05,2.3545579097117297e-05
-4.831202022614889e-05,-2.288404903083574e-05,-6.322908120637294e-06,-5.193735705688596e-05,1.3959977877675556e-05
-4.760468436870724e-05,-2.0681954993051477e-05,-8.98791040526703e-06,-4.775824709213339e-05,1.6489126210217364e-05
-3.8132882764330134e-05,5.550104560825275e-06,-7.039823231025366e-06,-3.586728416848928e-05,4.383371560834348e-05
-3.368100806255825e-05,2.737745853664819e-05,-2.974511289721704e-06,-2.99185594485607e-05,8.45018876134418e-05
-3.604389348765835e-05,3.0731513106729835e-05,-7.949634550641349e-07,-3.379587724339217e-05,0.00011258286394877359
-3.6563113098964095e-05,2.1850082703167573e-05,-1.3078886240691645e-06,-3.447209019213915e-05,0.00011363161320332438
-3.099695823038928e-05,1.930691723828204e-05,2.800053948703862e-07,-2.6344830985181034e-05,8.753789734328166e-05
-2.248820965178311e-05,2.5941144485841505e-05,2.828470087479218e-06,-1.5245026588672772e-05,5.4997064580675215e-05
-1.8161555999540724e-05,2.9830907806172036e-05,2.491617806299473e-06,-1.0042537724075373e-05,4.0472314140060917e-05
-2.160000440198928e-05,2.6854080715565942e-05,1.4302543149824487e-06,-1.1226285096199717e-05,4.975823685526848e-05
-2.5622493922128342e-05,2.8392332751536742e-05,1.6714574258003267e-06,-1.1437780813139398e-05,6.923511682543904e-05
-2.4978609872050583e-05,3.4655840863706544e-05,2.554943876020843e-06,-5.2771169976040255e-06,8.232262916862965e-05
-2.7952250093221664e-05,4.1762144974200055e-05,5.67888309888076e-06,6.980490070418455e-06,7.952828309498727e-05
-3.888959690812044e-05,4.8992489610100165e-05,7.0992928158375435e-06,1.5538511433987878e-05,6.076949284761213e-05
-4.959231227985583e-05,5.027283987146802e-05,3.5721598123927834e-06,1.5986004655133e-05,2.957230208266992e-05
-4.808332596439868e-05,4.6890349040040746e-05,2.3161985609476687e-06,1.1004076441167854e-05,-7.335135251196334e-06
-4.22781340603251e-05,4.5696651795879006e-05,4.033058758068364e-06,-1.7107181520259473e-06,-3.955450301873498e-05
-3.5767567169386894e-05,4.7200159315252677e-05,8.82852418726543e-06,-2.1608802853734232e-05,-5.3120249503990635e-05
-2.714358015509788e-05,4.541036832961254e-05,1.2403717846609652e-05,-4.2877374653471634e-05,-3.3823678677435964e-05
-1.9056627934332937e-05,3.491220195428468e-05,1.3951512300991453e-05,-6.05280656600371e-05,1.9390028683119453e-05
-1.5035742762847804e-05,2.4263788873213343e-05,1.3656385817739647e-05,-7.120140071492642e-05,8.319786138599738e-05
-1.5677182091167197e-05,2.3313516066991724e-05,7.0619912548863795e-06,-7.598934462293983e-05,0.00013504129310604185
-1.4979828847572207e-05,2.9873393941670656e-05,5.900829478378e-07,-7.497375918319449e-05,0.00015894242096692324
-1.3860068065696396e-05,3.199109778506681e-05,-5.723302933802188e-07,-6.862882582936436e-05,0.0001562841353006661
-8.710539077583235e-06,3.385571108083241e-05,-2.6335678739997093e-06,-5.7969118643086404e-05,0.0001477873738622293
-7.962008567119483e-06,3.727950024767779e-05,-7.929120329208672e-06,-4.12491790484637e-05,0.0001417037274222821
-1.2627286196220666e-05,4.496903784456663e-05,-1.1299607649561949e-05,-2.343918094993569e-05,0.0001338297442998737
-1.5654737580916844e-05,5.683904601028189e-05,-1.0444980944157578e-05,-1.5150537365116179e-05,0.0001230232446687296
-1.5508916476392187e-05,6.685884727630764e-05,-7.591334451717557e-06,-1.471951873099897e-05,0.0001112719692173414
-1.6774722098489292e-05,6.712280446663499e-05,-4.327575425122632e-06,-1.303780300077051e-05,9.724633127916604e-05
-2.3475473426515236e-05,5.67691313335672e-05,-9.981748689824599e-07,-6.704367478960194e-06,8.551646897103637e-05
-2.534731902414933e-05,4.440503835212439e-05,1.2936417306264048e-06,5.090028398768709e-11,8.227337821153924e-05
-1.6870590116013773e-05,3.3876516681630164e-05,1.1720418342520134e-06,2.686625748538063e-06,8.598947169957682e-05
-2.778356702037854e-06,2.729024345171638e-05,1.049260504260019e-06,1.4802586747464375e-06,8.644381887279451e-05
7.2342240855505224e-06,2.4421933630947024e-05,2.9644404548889725e-06,-3.4704535210039467e-06,7.975960761541501e-05
5.863129445060622e-06,2.5209768864442594e-05,7.402308256132528e-06,-5.381329174269922e-06,7.301927689695731e-05
-8.669438102515414e-06,2.5885618015308864e-05,1.3628076885652263e-05,3.5171441936654446e-07,7.120538066374138e-05
-2.769944148894865e-05,2.6321697077946737e-05,1.7642540115048178e-05,9.11511142476229e-06,7.132434257073328e-05
-4.540098234429024e-05,2.1084739273646846e-05,1.7189677237183787e-05,1.338183483312605e-05,6.658072379650548e-05
-5.099492773297243e-05,1.7125668819062412e-05,1.4875403394398745e-05,1.2736360986309592e-05,5.054946450400166e-05
-3.907702921424061e-05,1.9720435375347733e-05,1.6353014871128835e-05,1.783075822459068e-05,2.9455115509335883e-05
-2.541879985074047e-05,2.456567744957283e-05,1.74596698343521e-05,2.1191477571846917e-05,1.1533123142726254e-05
-3.152215140289627e-05,2.5932331482181326e-05,8.513483408023603e-06,1.0153667972190306e-05,3.697541615110822e-06
-4.851275298278779e-05,1.6382131434511393e-05,-3.2567509151704144e-06,-2.9862198971386533e-06,9.22163417271804e-06
-5.8398451074026525e-05,1.1606839507294353e-05,-9.655998837843072e-06,-1.0303087947249878e-05,2.073110044875648e-05
-5.814324686070904e-05,1.9371827875147574e-05,-7.541213108197553e-06,-1.3591790775535628e-05,3.1018818845041096e-05
-5.157065243110992e-05,2.3972072085598484e-05,2.8010956043544866e-07,-9.014162060339004e-06,3.6763671232620254e-05
-5.240301106823608e-05,2.197740104747936e-05,4.59301600130857e-06,-1.0826124707818963e-06,3.6455323424888775e-05
-6.035660408088006e-05,1.6188889276236296e-05,4.744394118461059e-06,1.230429916176945e-06,3.1968629627954215e-05
-5.894509013160132e-05,1.1435588930908125e-05,6.391768692992628e-06,-3.851635483442806e-06,2.9140088372514583e-05
-3.2167336030397564e-05,4.603833531291457e-06,1.182040068670176e-05,-7.842580998840276e-06,3.261217716499232e-05
2.2119343157100957e-06,-1.2667749160755193e-06,1.7990234482567757e-05,-5.581402547250036e-06,3.949998790631071e-05
1.8557342627900653e-05,-5.84480949328281e-06,2.5501487471046858e-05,-3.966840154134843e-07,4.254749364918098e-05
1.2769116437993944e-05,-5.8157520470558666e-06,3.1310581107391044e-05,4.164777692494681e-06,3.60962949343957e-05
-1.532582359686785e-06,-1.3090838137941319e-06,3.052104148082435e-05,6.2931344473327044e-06,2.5793196982704103e-05
-1.0070815733342897e-05,4.8298911679012235e-06,2.4236964236479253e-05,8.292379789054394e-06,2.5680688850115985e-05
-1.042116855387576e-05,7.97300072008511e-06,1.949941179191228e-05,8.982798135548364e-06,3.468845534371212e-05
-5.103399871586589e-06,9.426104952581227e-06,1.7942988051800057e-05,6.350785042741336e-06,4.095006443094462e-05
-1.6025611557779484e-06,1.2523634723038413e-05,1.411663197359303e-05,1.8879381968872622e-06,4.116885975236073e-05
-2.819826249833568e-06,1.2722779501928017e-05,4.318226274335757e-06,-1.00256738733151e-06,3.647043195087463e-05
-4.488551894610282e-06,1.4253248991735745e-05,-7.577578799100593e-06,-1.5176659644566826e-06,3.0609087843913585e-05
-6.035654678271385e-07,1.9301562133478e-05,-1.4080179425945971e-05,-2.3593418063683202e-06,3.1704399589216337e-05
2.5453978196310345e-06,2.5774606910999864e-05,-1.2184705155959819e-05,-4.795278528035851e-06,4.4881177018396556e-05
-4.647656624001684e-06,2.8702637791866437e-05,-4.856800387642579e-06,-4.0839049688656814e-06,6.262371607590467e-05
-2.6351664928370155e-05,2.952879913209472e-05,7.408575015688257e-07,3.904972800228279e-06,6.58224307699129e-05
-5.623644756269641e-05,2.4750223019509576e-05,8.476251309730287e-07,1.3586516615760047e-05,5.068979589850642e-05
-7.169270247686654e-05,1.4892230865370948e-05,1.1768899810249422e-07,1.9443221390247345e-05,3.528180604916997e-05
-6.179814954521134e-05,1.2750129826599732e-05,-1.9661369421442032e-08,2.0305313228163868e-05,4.6985067456262186e-05
-4.209036342217587e-05,2.212472645624075e-05,9.553491508995648e-07,1.814125971577596e-05,8.754841110203415e-05
-2.6450215955264866e-05,2.8877007935079746e-05,8.847552635415923e-06,1.7817972548073158e-05,0.00012638812768273056
-1.752093157847412e-05,2.1194324290263467e-05,1.7680788005236536e-05,1.5015943063190207e-05,0.00013513356680050492
-1.4091066077526193e-05,1.0848349120351486e-05,1.960564623004757e-05,1.8256091607327107e-06,0.00011447806900832802
-1.804213025025092e-05,1.8569564417703077e-05,1.494497246312676e-05,-1.808846900530625e-05,8.834563777782023e-05
-2.4946999474195763e-05,3.699535227497108e-05,1.1187162272108253e-05,-3.44496984325815e-05,7.615662616444752e-05
-2.554741695348639e-05,4.96012216899544e-05,9.638447409088258e-06,-4.412337511894293e-05,7.550175359938294e-05
-2.1921370716881938e-05,4.758208160637878e-05,6.876760380691849e-06,-4.968416760675609e-05,7.097920024534687e-05
-2.1141018805792555e-05,3.941697286791168e-05,5.360469003790058e-06,-5.477473314385861e-05,6.420253339456394e-05
-2.083469371427782e-05,3.153209399897605e-05,6.637444585066987e-06,-6.073862095945515e-05,6.407884939108044e-05
-1.704511305433698e-05,2.725984450080432e-05,6.698734068777412e-06,-6.537692388519645e-05,6.60204968880862e-05
-1.4612753147957847e-05,3.013381501659751e-05,2.4641781237733085e-06,-5.791683361167088e-05,6.330464384518564e-05
-1.043708198267268e-05,3.784996806643903e-05,-5.088996886115638e-07,-3.724511043401435e-05,6.378829129971564e-05
7.68795985095494e-07,3.9347894926322624e-05,1.3749028084930615e-06,-1.888355654955376e-05,7.375395944109187e-05
1.6327343473676592e-05,3.753336932277307e-05,8.071339834714308e-06,-1.2251432963239495e-05,8.421741949860007e-05
2.32929323829012e-05,3.9921033021528274e-05,1.523721311968984e-05,-9.766481525730342e-06,7.905209349701181e-05
1.4288100828707684e-05,4.1462189983576536e-05,1.702783993096091e-05,-6.687079803668894e-06,5.37260712007992e-05
-4.798062491317978e-06,3.9710281271254644e-05,1.2910850273328833e-05,-1.1555888704606332e-05,2.7395532015361823e-05
-2.4179191314033233e-05,3.800136983045377e-05,8.93908872967586e-06,-2.194729313487187e-05,2.1346375433495268e-05
-4.183260534773581e-05,3.616297180997208e-05,8.830500519252382e-06,-2.6765379516291432e-05,2.8451298931031488e-05
-5.27004012838006e-05,3.302061668364331e-05,9.837645848165266e-06,-2.462176780682057e-05,2.329400558664929e-05
-5.1299277401994914e-05,3.404921881156042e-05,8.385247383557726e-06,-2.2324995370581746e-05,5.072195563116111e-06
-4.453817746252753e-05,3.1587504054186866e-05,3.887208094965899e-06,-2.3457547285943292e-05,-5.330366548150778e-06
-3.782160274568014e-05,1.8974133126903325e-05,8.617544722255843e-07,-2.558017149567604e-05,1.0840529967026669e-06
-2.8554281016113237e-05,1.916789187816903e-06,3.0583057650801493e-06,-2.1586205548373982e-05,1.9905430235667154e-05
-1.991703720705118e-05,1.2751189615300973e-06,6.1497480601246934e-06,-1.1885485946550034e-05,3.713451951625757e-05
-1.8713297322392464e-05,2.0096411390113644e-05,7.311697117984295e-06,6.438957029786252e-07,4.2541207221802324e-05
-2.2615464331465773e-05,2.9228809580672532e-05,8.38355117593892e-06,9.428998964722268e-06,4.645209264708683e-05
-2.764843520708382e-05,1.2438211342669092e-05,9.836785466177389e-06,1.6886264347704127e-05,6.0386995755834505e-05
-2.694209797482472e-05,-4.865675236942479e-06,1.2756421710946597e-05,2.519718327675946e-05,7.599854143336415e-05
-1.903194970509503e-05,-3.522979341141763e-06,1.273731413675705e-05,2.743914410530124e-05,8.275076106656343e-05
-1.5255927792168222e-05,1.1650167834886815e-05,1.1179801731486805e-05,2.6200783395324834e-05,8.48396448418498e-05
-2.0705751012428664e-05,2.5407176508451812e-05,9.671440238889772e-06,2.4758372092037462e-05,8.879003871697932e-05
-3.153416400891729e-05,3.322538759675808e-05,7.442674814228667e-06,1.8872062355512753e-05,9.920230513671413e-05
-4.134107439313084e-05,4.006821473012678e-05,8.869573321135249e-06,6.945746008568676e-06,0.00010467421816429123
-4.236199674778618e-05,3.443797322688624e-05,1.2644920388993341e-05,-4.79704249300994e-06,9.332238550996408e-05
-3.508081863401458e-05,2.224882882728707e-05,1.5218445696518756e-05,-1.893645639938768e-05,7.571002788608894e-05
-2.2042044292902574e-05,2.5109111447818577e-05,1.1167803677381016e-05,-3.597487375373021e-05,6.741139077348635e-05
-1.6526271792827174e-05,3.8104437408037484e-05,4.117178491469531e-07,-4.840604742639698e-05,6.364312866935506e-05
-2.251513251394499e-05,4.8508354666410014e-05,-1.2100322237529326e-05,-5.529627014766447e-05,5.5826356401667e-05
-3.108897362835705e-05,5.2682698878925294e-05,-2.3352640710072592e-05,-5.764383968198672e-05,5.06919423060026e-05
-3.8021087675588205e-05,4.949465437675826e-05,-2.7893838705495e-05,-5.211798634263687e-05,5.603190220426768e-05
-4.6499706513714045e-05,3.835805910057388e-05,-2.2538466510013677e-05,-3.668314093374647e-05,6.287126598181203e-05
-5.2632687584264204e-05,2.274550024594646e-05,-1.0942518201773055e-05,-1.4644368093286175e-05,5.560529825743288e-05
-5.040999531047419e-05,7.728595846856479e-06,1.1951354963457561e-06,9.423399660590803e-07,4.076513141626492e-05
-4.5571061491500586e-05,-1.6712675687813316e-06,1.222923856403213e-05,2.3652187337575015e-06,4.072176670888439e-05
-4.491765866987407e-05,-3.567546855265391e-06,2.1148749510757625e-05,-7.346012580455863e-07,5.713629434467293e-05
-4.9189806304639205e-05,1.1996979765172e-06,2.6033740141429007e-05,-2.2469137661573768e-08,6.295500497799367e-05
-5.533690637093969e-05,1.3577614481619094e-05,2.7924614187213592e-05,2.4498749553458765e-06,4.794882261194289e-05
-6.220542854862288e-05,2.861246684915386e-05,2.810915611917153e-05,8.810660801827908e-06,3.0258488550316542e-05
-6.373044743668288e-05,3.7679455999750644e-05,2.5465593353146687e-05,2.2763882952858694e-05,2.7581143513089046e-05
-4.769894803757779e-05,4.167686711298302e-05,2.0520377802313305e-05,3.754565113922581e-05,3.5196717362850904e-05
-2.3778646209393628e-05,4.886941678705625e-05,1.7527232557768002e-05,4.4723503378918394e-05,3.863478559651412e-05
-1.5237468687701039e-05,5.927564779995009e-05,1.576418253534939e-05,4.1189017792930827e-05,3.230585571145639e-05
-1.2188119399070274e-05,6.141280027804896e-05,1.5485868061659858e-05,3.0466908356174827e-05,2.5927525712177157e-05
1.2596320857483079e-06,5.188140494283289e-05,1.6017744201235473e-05,2.042258347501047e-05,3.553869828465395e-05
1.8889668353949673e-05,4.227941099088639e-05,1.0883907634706702e-05,1.3754596693615895e-05,8.296690066345036e-05
2.11978804145474e-05,3.947933146264404e-05,3.7317074657039484e-06,6.923564342287136e-06,0.0001542812242405489
9.649751518736593e-06,3.856897819787264e-05,-5.5639698075538035e-06,-6.264770036068512e-06,0.000189559708815068
-5.410134235717123e-06,3.587491301004775e-05,-1.3791994206258096e-05,-2.531690915930085e-05,0.0001687952462816611
-2.056595440080855e-05,3.2163232390303165e-05,-1.6303745724144392e-05,-4.07968218496535e-05,0.00013451035192701966
-2.5227835067198612e-05,2.8330458007985726e-05,-1.8449847630108707e-05,-4.620900654117577e-05,0.0001228958717547357
-2.1688194465241395e-05,2.995572504005395e-05,-2.1323361579561606e-05,-4.86555254610721e-05,0.00011862464452860877
-2.3184544261312112e-05,3.35390905092936e-05,-2.4034410671447404e-05,-5.293595677358098e-05,9.200182103086263e-05
-3.091274629696272e-05,3.692782047437504e-05,-2.4644627046654932e-05,-5.414115730673075e-05,4.628203168977052e-05
-3.980650217272341e-05,3.828056651400402e-05,-2.775347456918098e-05,-5.40742912562564e-05,1.694742968538776e-05
-4.332912067184225e-05,3.708290751092136e-05,-3.3759308280423284e-05,-5.5050692026270553e-05,2.4835548174451105e-05
-4.374815398477949e-05,3.715036655194126e-05,-3.400041168788448e-05,-5.514155782293528e-05,4.412764246808365e-05
-4.3467287468956783e-05,4.2231597035424784e-05,-2.616935125843156e-05,-5.28246455360204e-05,3.122361522400752e-05
-3.299340096418746e-05,4.67067766294349e-05,-1.737566890369635e-05,-5.139641143614426e-05,-8.533597792848013e-06
-1.0897861102421302e-05,4.605175490723923e-05,-1.597619120730087e-05,-5.057418093201704e-05,-2.0565945305861533e-05
6.655555807810742e-06,4.350220115156844e-05,-2.15089585253736e-05,-4.543368413578719e-05,2.6305009669158608e-05
8.836355846142396e-06,3.969228782807477e-05,-2.4502536689396948e-05,-3.1914951250655577e-05,9.21097889658995e-05
2.9331415589695098e-06,3.323648707009852e-05,-2.0726256479974836e-05,-1.351292485196609e-05,0.00012224531383253634
-6.032273631717544e-07,3.097320222877897e-05,-1.4788448424951639e-05,1.9490873910399387e-06,0.00011208045179955661
-8.282786012614451e-08,3.8515896449098364e-05,-5.464717560244026e-06,1.3614011550089344e-05,8.882371184881777e-05
-4.034864105051383e-06,4.735856782644987e-05,4.0502723095414694e-06,2.39567416429054e-05,7.020276825642213e-05
-1.3972767192171887e-05,5.102813520352356e-05,2.0835975647059968e-06,2.9074240956106223e-05,5.839836740051396e-05
-2.6282965336577035e-05,4.8004389100242406e-05,-2.7184826194570633e-06,2.284550828335341e-05,4.829025056096725e-05
-4.2589301301632077e-05,3.933407424483448e-05,1.5598398022120818e-06,1.0388015653006732e-05,4.237284520058893e-05
-5.442539622890763e-05,2.7560283342609182e-05,6.0606857914535794e-06,1.7717690070639946e-06,4.1426454117754474e-05
-5.591338049271144e-05,1.4399024621525314e-05,6.963505256862845e-06,-1.5158606174736633e-06,2.2772166630602442e-05
-5.015025089960545e-05,2.0921747534430324e-07,1.1429197911638767e-05,-7.851200280128978e-06,-1.913553751364816e-05
-4.225107841193676e-05,-5.951388288849557e-07,1.5129994608287234e-05,-1.8868015104089864e-05,-2.7689569833455607e-05
-3.7437130231410265e-05,1.544400402053725e-05,1.790492569853086e-05,-2.7458729164209217e-05,1.330642589891795e-05
-3.645991091616452e-05,3.65402374882251e-05,2.4128263248712756e-05,-3.265431951149367e-05,4.099656143807806e-05
-5.345830868463963e-05,4.946835178998299e-05,2.6352812710683793e-05,-3.18399142997805e-05,3.910644954885356e-05
-7.881919736973941e-05,4.764905679621734e-05,2.411685090919491e-05,-2.3448021238436922e-05,2.4215116354753263e-05
-8.461539255222306e-05,4.065779285156168e-05,1.7396638213540427e-05,-1.6855879948707297e-05,1.274440910492558e-05
-5.870575478184037e-05,3.168376497342251e-05,5.665602657245472e-06,-1.691324905550573e-05,2.0718773612316e-06
-1.5984991478035226e-05,2.01166003535036e-05,-5.861812041985104e-06,-1.672131293162238e-05,-1.6867347767401952e-06
1.4871046005282551e-05,1.1048969099647366e-05,-9.872184818959795e-06,-1.4423368156712968e-05,2.3752947527100332e-05
1.932959094119724e-05,6.124251285655191e-06,-7.081930561980698e-06,-1.495077958679758e-05,7.406662189168856e-05
6.249245416256599e-06,8.832524144963827e-06,-1.8003545392275555e-06,-1.4722495507157873e-05,0.00012244816753081977
-1.0614521670504473e-05,1.631433769944124e-05,-7.138278301788148e-10,-1.2484790204325691e-05,0.00015162928320933133
-2.164260331483092e-05,2.0745632355101407e-05,-1.3182427949232078e-07,-9.286985914513934e-06,0.00015888045891188085
-2.523866351111792e-05,1.896802132250741e-05,4.693708433478605e-06,-4.169636213191552e-06,0.00014306051889434457
-2.3176276954472996e-05,1.3786764611722901e-05,7.995259693416301e-06,4.1409256823499163e-07,0.00011410768638597801
-1.8498190911486745e-05,1.1093459761468694e-05,7.622861176059814e-06,5.781449203823286e-07,8.787775004748255e-05
-1.917822373798117e-05,1.171709482150618e-05,9.088773367693648e-06,-8.682422958372626e-07,7.359714072663337e-05
-2.6122621420654468e-05,1.158464601758169e-05,1.6014635548344813e-05,-1.6673225218255538e-06,6.69721484882757e-05
-3.6106059269513935e-05,1.321857052971609e-05,2.298188701388426e-05,-4.0681879909243435e-06,6.352637865347788e-05
-4.4779466406907886e-05,2.129410313500557e-05,2.591751945146825e-05,-4.181008989689872e-06,6.000549910822883e-05
-5.05354291817639e-05,3.102245682384819e-05,2.7172176487511024e-05,4.938392521580681e-07,5.8121262554777786e-05
-4.953592724632472e-05,3.6570407246472314e-05,2.7604477509157732e-05,6.133991973911179e-06,6.070098970667459e-05
-4.113786417292431e-05,4.006349990959279e-05,2.5572016966179945e-05,5.687360953743337e-06,6.908743671374395e-05
-2.548664815549273e-05,4.427183012012392e-05,2.277353996760212e-05,2.8271590508666122e-06,7.676776294829324e-05
-1.3151459825166967e-05,4.787421858054586e-05,2.320633575436659e-05,9.757661246112548e-06,8.07916876510717e-05
-1.5531579265370965e-05,5.1854676712537184e-05,2.7482832592795603e-05,1.5956338756950572e-05,8.006804273463786e-05
-3.589694097172469e-05,5.161635999684222e-05,3.049307815672364e-05,1.5624636944266967e-05,6.969467358430848e-05
-5.797586345579475e-05,4.06345134251751e-05,2.7269841666566208e-05,1.8672724763746373e-05,5.910069739911705e-05
-6.740180833730847e-05,2.805376425385475e-05,2.338288504688535e-05,2.3923845219542272e-05,5.7974619267042726e-05
-6.517472502309829e-05,2.3114098439691588e-05,2.1679124984075315e-05,2.417990799585823e-05,5.8402798458701e-05
-5.9219953982392326e-05,2.31001504289452e-05,1.9956853066105396e-05,1.5980513126123697e-05,5.4990785429254174e-05
-5.405227420851588e-05,2.7700894861482084e-05,1.9392429749132134e-05,1.0968687092827167e-05,3.831814683508128e-05
-5.017234798287973e-05,2.7394675271352753e-05,1.7045496861101128e-05,1.5238489140756428e-05,1.6291793144773692e-05
-5.349950515665114e-05,2.1172825654502958e-05,1.3847063200955745e-05,2.3097014491213486e-05,6.677131295873551e-06
-6.298264634096995e-05,1.4821928743913304e-05,1.1294860996713396e-05,2.6836854885914363e-05,8.720100595382974e-06
-6.692806346109137e-05,1.0748189197329339e-05,8.798968337941915e-06,2.498982757970225e-05,4.358072146715131e-06
-5.703755596186966e-05,5.226785106060561e-06,5.719408818549709e-06,2.0746725567732938e-05,-1.0548685168032534e-05
-4.528955469140783e-05,2.6811826501216274e-06,2.237883109046379e-06,1.3951021173852496e-05,-1.4578946320398245e-05
-3.561752964742482e-05,1.2367789167910814e-05,-1.3633236903842771e-06,4.586920113069937e-06,4.5158221837482415e-06
-2.582186061772518e-05,2.6689542210078798e-05,-4.645813532988541e-06,-4.291922323318431e-06,3.729095624294132e-05
-1.4505600120173767e-05,3.422062945901416e-05,-6.881829904159531e-06,-9.446089279663283e-06,7.122142415028065e-05
-9.949385457730386e-06,3.3377269573975354e-05,-1.0148431101697497e-05,-1.4145911336527206e-05,0.00011025519779650494
-1.3980992662254721e-05,2.9929657102911733e-05,-1.1138059562654234e-05,-2.3365077140624635e-05,0.00015570998948533088
-1.6902626157389022e-05,2.5095274395425804e-05,-7.901780008978676e-06,-3.332380947540514e-05,0.00018870897474698722
-1.1897441254404839e-05,2.3324293579207733e-05,-4.229707883496303e-06,-3.70557900168933e-05,0.00019099241762887686
-5.015512215322815e-06,2.6795380108524114e-05,-2.4266548734885873e-06,-3.4431803214829415e-05,0.0001639842812437564
-6.088836471462855e-06,2.8931306587764993e-05,3.055700403820083e-07,-2.548450902395416e-05,0.0001156337748398073
-1.3503571608453058e-05,2.6687643185141496e-05,3.3044077554222895e-06,-1.3844933164364193e-05,5.9241221606498584e-05
-1.9744804376387037e-05,2.414142363704741e-05,4.776622063218383e-06,-7.66752509662183e-06,9.68593121797312e-06
-1.3290822607814334e-05,2.0726081856992096e-05,2.0925110675307224e-06,-1.016790611174656e-05,-1.9506576791172847e-05
-3.091035523539176e-06,1.9308945411466993e-05,-7.300059792214597e-07,-1.622366653464269e-05,-3.0622635676991194e-05
-2.0084515384155566e-08,2.31013309530681e-05,-3.902001026290236e-06,-1.7815294995671138e-05,-3.343395655974746e-05
-4.054470082337502e-06,2.6636142138158903e-05,-1.3181154827179853e-05,-1.5898822312010452e-05,-2.5885050490614958e-05
-8.96577512321528e-06,2.5284682124038227e-05,-2.5791909138206393e-05,-1.5102286852197722e-05,-1.2288046491448767e-06
-8.611064004071523e-06,2.673318340384867e-05,-2.803694223985076e-05,-1.566086029924918e-05,3.643571471911855e-05
-8.749109838390723e-06,3.336625377414748e-05,-1.9556669940357096e-05,-1.2131932635384146e-05,7.398638990707695e-05
-1.414186590409372e-05,3.683781324070878e-05,-1.1785104106820654e-05,-3.8942048377066385e-06,8.370255818590522e-05
-2.317053804290481e-05,3.651316728792153e-05,-1.9704009446286364e-06,2.404449332971126e-06,5.2494826377369463e-05
-3.0240022169891745e-05,3.341502451803535e-05,1.130334294430213e-05,3.661272103272495e-06,6.0334214140311815e-06
-2.776097971946001e-05,3.1481329642701894e-05,2.353422314627096e-05,2.6205125891465286e-07,-2.555652281444054e-05
-1.953503306140192e-05,2.9875936888856813e-05,2.8541911888169125e-05,-3.678979055621312e-06,-2.987303196277935e-05
-1.4628217286372092e-05,1.8459302737028338e-05,2.595925980131142e-05,-4.740557869808981e-06,-1.1776735846069641e-05
-1.745851659507025e-05,5.732433237426449e-06,1.8613063730299473e-05,-4.2078110595866747e-07,8.973256626632065e-06
-2.7356210921425372e-05,3.6222672861185856e-06,1.4855646440992132e-05,2.123536432918627e-06,1.5119775525818113e-05
-3.647096673375927e-05,1.5233075828291476e-05,1.6167092326213606e-05,1.838070033954864e-07,1.0039808330475353e-05
-3.58672441507224e-05,3.225810723961331e-05,2.0028564904350787e-05,3.468241516202397e-07,1.0080717402161099e-05
-2.718602081586141e-05,4.2568237404339015e-05,2.431140273984056e-05,-1.2083870615242631e-06,2.6590359993861057e-05
-1.768529909895733e-05,4.313176032155752e-05,2.7282809242024086e-05,-9.170200428343378e-06,6.648687121924013e-05
-1.035715831676498e-05,4.0494069253327325e-05,2.780867725959979e-05,-1.5174142390605994e-05,0.00013080329517833889
-6.425044830393745e-06,3.855847171507776e-05,2.640855745994486e-05,-9.168554242933169e-06,0.00020533929637167603
-1.0500929420231842e-05,3.456461854511872e-05,2.8010628739139065e-05,7.889544576755725e-06,0.0002543693990446627
-1.9774690372287296e-05,2.819376277329866e-05,3.275326162111014e-05,3.0012899514986202e-05,0.00023334391880780458
-2.8727710741804913e-05,2.1540528905461542e-05,3.569490581867285e-05,4.961673403158784e-05,0.00014132962678559124
-4.028377225040458e-05,1.5255737707775552e-05,3.442506931605749e-05,5.841788515681401e-05,4.214760701870546e-05
-5.145265822648071e-05,1.2126401088607963e-05,3.175973688485101e-05,5.147874981048517e-05,-2.7381040013096936e-07
-5.1728835387621075e-05,1.71221745404182e-05,2.723589386732783e-05,3.627791375038214e-05,1.2278753729333403e-06
-3.3927641197806224e-05,1.8374817955191247e-05,2.4109918740577996e-05,1.9694311049534008e-05,-5.0566964091558475e-06
-3.6267979339754675e-06,8.274681022157893e-06,2.4719038265175186e-05,1.3652620509674307e-06,-4.421951962285675e-05
1.5211638128675986e-05,1.0600913356029196e-06,2.2959733541938476e-05,-1.3724305972573347e-05,-0.00010250064951833338
1.5933474060148e-06,5.322438028088072e-06,1.7726151781971566e-05,-2.0655659682233818e-05,-0.00014596105029340833
-3.7950489058857784e-05,1.2070479897374753e-05,1.6362155292881653e-05,-2.4396844310103916e-05,-0.00016589190636295825
-7.407100929412991e-05,1.4437293430091813e-05,1.4866312085359823e-05,-3.9040496631059796e-05,-0.00015936215640977025
-7.883700891397893e-05,1.5106371392903384e-05,1.2546722246042918e-05,-5.8891891967505217e-05,-0.00011400262883398682
-4.1213937947759405e-05,2.105510066030547e-05,1.0419485079182778e-05,-5.9077854530187324e-05,-2.982770456583239e-05
2.352084447920788e-05,2.3875789338489994e-05,4.5605574996443465e-06,-4.7135563363553956e-05,6.686793494736776e-05
6.287592987064272e-05,2.2700662157149054e-05,-2.4466719423799077e-06,-4.34700159530621e-05,0.000125100850709714
5.1475079089868814e-05,2.4987763026729226e-05,-9.546267392579466e-06,-4.743579847854562e-05,0.00012881682778242975
1.9871700715157203e-05,2.9174345399951562e-05,-1.433036959497258e-05,-5.728903124690987e-05,0.00010388099326519296
-2.865625901904423e-06,2.9563245334429666e-05,-1.604279714229051e-05,-7.113758329069242e-05,8.706169319339097e-05
-1.8388340322417207e-05,2.8216403734404594e-05,-1.802773476811126e-05,-7.949475548230112e-05,8.393959433306009e-05
-3.9514965465059504e-05,2.5172736059175804e-05,-2.1537251086556353e-05,-7.860443292884156e-05,7.83356445026584e-05
-5.3511455917032436e-05,2.3719718228676356e-05,-2.49179320235271e-05,-7.517992344219238e-05,7.855753938201815e-05
-4.149921369389631e-05,3.071208266192116e-05,-2.3783190044923685e-05,-6.88465588609688e-05,0.00010476926399860531
-1.0926424693025183e-05,4.2976233089575544e-05,-1.7561775166541338e-05,-5.4247760999714956e-05,0.0001633164065424353
1.851771776273381e-05,5.245166175882332e-05,-1.149370837083552e-05,-3.414228922338225e-05,0.00022964205709286034
3.4568725823191926e-05,5.2850318752462044e-05,-9.328266060038004e-06,-1.736895319481846e-05,0.0002526181924622506
3.4043499908875674e-05,4.7420180635526776e-05,-1.064720800059149e-05,-3.512221837809193e-06,0.0002174343098886311
2.110751847794745e-05,4.357793659437448e-05,-1.2556477486214135e-05,9.830200724536553e-06,0.00019046527449972928
7.217588063213043e-06,4.571607496473007e-05,-1.2746557331411168e-05,1.6778798453742638e-05,0.00023234524996951222
1.5322704030040768e-06,5.099818736198358e-05,-1.1110459126939531e-05,1.777007128112018e-05,0.00030402495758607984
-2.0525271793303546e-06,5.398775829235092e-05,-7.716374057054054e-06,1.7729900719132274e-05,0.0003372231440152973
-1.1836022167699412e-05,5.442030669655651e-05,-8.840979148772021e-07,1.8179209291702136e-05,0.0003238739154767245
-2.4654436856508255e-05,5.762235741713084e-05,7.520049621234648e-06,2.0278517695260234e-05,0.00028349264175631106
-2.9528255254263058e-05,6.108373054303229e-05,1.0865391232073307e-05,1.661803253227845e-05,0.0002231826219940558
-1.70450202858774e-05,6.33995805401355e-05,6.722244506818242e-06,2.9293530587892747e-06,0.0001468432164983824
-4.991436071577482e-06,6.25027678324841e-05,2.4437606498395326e-06,-1.3975832189316861e-05,6.752721674274653e-05
-6.009629032632802e-06,5.801291626994498e-05,5.701383997802623e-06,-2.6677289497456513e-05,-4.611408257915173e-06
-7.83921768743312e-06,4.3111518607474864e-05,1.0398015547252726e-05,-3.624801684054546e-05,-7.526144327130169e-05
-1.1495312719489448e-05,1.8448765331413597e-05,3.5062869301327737e-06,-4.751947562908754e-05,-0.00012087683717254549
-2.419365591777023e-05,-7.162487690948183e-06,-1.1175237887073308e-05,-5.988325210637413e-05,-0.00011515885853441432
-2.7465257517178543e-05,-1.3734806088905316e-05,-1.6758980564191006e-05,-6.758655945304781e-05,-7.366744830505922e-05
-1.691544457571581e-05,7.086441200954141e-06,-8.125262866087724e-06,-7.335390546359122e-05,-8.352928489330225e-06
-5.912178949074587e-06,3.0069484637351707e-05,-4.972987426299369e-07,-8.025048009585589e-05,4.696322503150441e-05
-4.124038696318166e-06,3.925639612134546e-05,-1.4560936278940062e-06,-7.815309072611853e-05,4.572669058688916e-05
-1.8279486539540812e-05,4.2038333049276844e-05,-4.569720658764709e-06,-7.034510053927079e-05,-2.96780171993305e-07
-3.5675398976309225e-05,4.3595366150839254e-05,-6.211119853105629e-06,-5.934766522841528e-05,-2.44334642047761e-05
-5.013615373172797e-05,4.1346294892719015e-05,-7.664793884032406e-06,-4.545816409518011e-05,3.3958806398004526e-06
-6.547576776938513e-05,3.82011967303697e-05,-9.210933967551682e-06,-3.2840795029187575e-05,6.143545033410192e-05
-9.270268492400646e-05,3.388630284462124e-05,-5.914654138905462e-06,-2.5656556317699142e-05,0.00010419869067845866
-0.00012714300828520209,2.7802554541267455e-05,-9.032740990733146e-07,-2.117283656843938e-05,0.00010765476326923817
-0.00014343587099574506,1.8180189726990648e-05,-4.92258038775617e-07,-1.694292586762458e-05,9.823606524150819e-05
-0.00012229553249198943,9.843506632023491e-06,-1.487488020757155e-06,-1.0647430826793425e-05,0.00010674521763576195
-7.480093336198479e-05,9.835066521191038e-06,2.4063133423624095e-06,-4.419859578774776e-06,0.0001278329291380942
-3.217909761588089e-05,1.6936674001044594e-05,7.972455023264047e-06,-7.353210662586207e-07,0.00013868244423065335
-9.85837777989218e-06,1.9473820429993793e-05,9.965226126951165e-06,4.227271801937604e-06,0.00013326163752935827
2.9362640816543717e-06,1.759227416187059e-05,9.179612789012026e-06,1.6464991858811118e-05,0.00011865006672451273
2.288696850882843e-05,2.053700700344052e-05,8.238936061388813e-06,3.679636211018078e-05,9.383701399201527e-05
4.131285095354542e-05,2.8065840524504893e-05,9.735021194501314e-06,5.249770401860587e-05,5.610100561170839e-05
4.0830513171385974e-05,3.3634103601798415e-05,1.2683805834967643e-05,6.351384945446625e-05,2.8947877581231296e-05
2.4417866370640695e-05,3.5574790672399104e-05,1.7602624211576767e-05,7.717169501120225e-05,2.2371337763615884e-05
7.747599738650024e-06,3.605075107770972e-05,2.4323475372511894e-05,8.270936814369634e-05,1.9335217075422406e-05
-2.8300469239184167e-06,3.2332827686332166e-05,2.6127698220079765e-05,7.273715164046735e-05,1.2474631148506887e-05
-5.9978383433190174e-06,3.215957258362323e-05,2.419350676063914e-05,7.1216061769519e-05,1.5827190509298816e-05
-4.701093700987258e-07,4.101062222616747e-05,2.6962678020936437e-05,8.670982060721144e-05,3.1639956432627514e-05
9.637706170906313e-06,5.254113057162613e-05,3.4606404369696975e-05,0.00010572171595413238,5.612634777207859e-05
1.7142307115136646e-05,6.0164198657730594e-05,3.884079706040211e-05,0.00010713626397773623,8.247353252954781e-05
2.4988086806843057e-05,6.100423343013972e-05,4.39403229393065e-05,9.346339356852695e-05,8.34672391647473e-05
2.6919871743302792e-05,5.54463840671815e-05,4.4742668251274154e-05,8.346152026206255e-05,3.9072809158824384e-05
1.5579174942104146e-05,4.137492578593083e-05,3.38507816195488e-05,7.425354124279693e-05,-2.0287701772758737e-05
-9.30274745769566e-06,2.781644980132114e-05,1.84005966730183e-05,6.265044066822156e-05,-5.700272595277056e-05
-4.913084194413386e-05,2.1580344764515758e-05,2.2207950678421184e-06,4.75368469778914e-05,-7.286071195267141e-05
-9.43163176998496e-05,1.587669066793751e-05,-3.49834135704441e-06,2.23031183850253e-05,-8.708133827894926e-05
-0.00013116028276272118,1.2636355677386746e-05,-1.3156677596271038e-06,-2.634369047882501e-05,-9.853050141828135e-05
-0.00014604578609578311,1.1888430890394375e-05,-1.8622060906636762e-06,-9.044289618032053e-05,-9.641297947382554e-05
-0.00014740395999979228,1.1588198503886815e-05,-7.506971087423153e-06,-0.00013912319263909012,-8.186449122149497e-05
-0.0001443855435354635,1.1027049367839936e-05,-9.569683243171312e-06,-0.0001546992571093142,-5.0468894187361e-05
-0.0001282771409023553,1.3661136108567007e-05,-4.685853127739392e-06,-0.00014726445078849792,-2.7601447072811425e-05
-9.462430170970038e-05,2.107151703967247e-05,1.418388251295255e-06,-0.00013765991025138646,-5.719355613109656e-05
-5.564432649407536e-05,2.44263337663142e-05,1.2296112572585116e-06,-0.0001391497062286362,-0.00013751356163993478
-2.2181444364832714e-05,1.7367807231494226e-05,-4.462831384444144e-06,-0.0001466953835915774,-0.00019792834063991904
5.587562554865144e-06,1.072873237717431e-05,-5.719590717490064e-06,-0.00014162388106342405,-0.0001613271451788023
2.050691364274826e-05,1.2362561392365023e-05,-7.451880605913175e-07,-0.00011915073991985992,-3.758372622542083e-05
1.6673073332640342e-05,2.0939209207426757e-05,1.613129029465199e-06,-8.859078661771491e-05,8.929866453399882e-05
2.6026962132164044e-06,3.37199708155822e-05,-1.2170992249593837e-06,-5.857472569914535e-05,0.00015981096657924354
-7.719178938714322e-06,3.881417796947062e-05,-2.6023185455414932e-06,-3.627319529186934e-05,0.0001884747325675562
-7.711618309258483e-06,3.128585376543924e-05,-2.147426584997447e-06,-2.4868350010365248e-05,0.0002111185749527067
-4.786068529938348e-06,2.284884794789832e-05,-3.3556887046870543e-06,-2.0840179786318913e-05,0.00022883138444740325
-5.446183877211297e-06,2.3438271455233917e-05,-7.269296474987641e-06,-1.9448156308499165e-05,0.00023004875401966274
-9.852259609033354e-06,2.9941005777800456e-05,-9.490126103628427e-06,-1.7366961401421577e-05,0.00022402254398912191
-2.3286855139303952e-05,3.5392393328947946e-05,-8.998743396659847e-06,-1.3222715097072069e-05,0.0002328937262063846
-3.36676966981031e-05,3.2307012588717043e-05,-4.754372639581561e-06,-7.378062036877964e-06,0.00025517752510495484
-3.123074566246942e-05,2.6332798370276578e-05,3.148262067043106e-06,7.075997814354196e-07,0.000297834281809628
-1.9747727492358536e-05,1.913293090183288e-05,1.2238021554367151e-05,8.019177585083526e-06,0.00032973778434097767
-1.3743059753323905e-05,1.0595953426673077e-05,1.907507066789549e-05,1.0077055776491761e-05,0.0002899246755987406
-1.818782402551733e-05,3.962877144658705e-06,2.1287791241775267e-05,8.987635737867095e-06,0.00019689144392032176
-2.350340218981728e-05,3.7720194541179808e-06,1.9708297259057872e-05,6.17393880020245e-06,0.00010158999793929979
-2.7946802219958045e-05,1.5045351574372035e-05,1.7630714864935726e-05,1.4712322808918543e-06,5.323218647390604e-05
-2.9583861760329455e-05,2.7632371711661108e-05,1.5012299627414905e-05,-9.570178463036427e-07,6.138339813333005e-05
-2.990351276821457e-05,3.452394230407663e-05,1.6574011169723235e-05,1.530402414573473e-06,8.332563447766006e-05
-2.823912655003369e-05,3.103030758211389e-05,2.1007655959692784e-05,1.8937637378257932e-06,7.787623326294124e-05
-2.556119034125004e-05,2.181706986448262e-05,2.345018947380595e-05,1.2810673979402054e-06,5.6165692512877285e-05
-2.287168535985984e-05,9.561270417179912e-06,2.2216163415578194e-05,1.92942002286145e-06,3.962294431403279e-05
-2.0228480934747495e-05,-1.1558752248674864e-06,1.7656800991971977e-05,5.233952833805233e-06,2.3181724827736616e-05
-1.7879605366033502e-05,5.37589187388221e-07,1.3982682503410615e-05,1.164941568276845e-05,5.9481280914042145e-06
-1.9995706679765135e-05,1.235521904163761e-05,1.0530834515520837e-05,1.763599539117422e-05,1.3680950360139832e-05
-2.751740066742059e-05,2.2698601242154837e-05,5.939787115494255e-06,2.062168459815439e-05,6.005696195643395e-05
-3.0530656658811495e-05,2.5999734134529717e-05,3.0329235869430704e-06,2.0545858205878176e-05,0.00011213940888410434
-2.8806529371649958e-05,2.753932676569093e-05,1.5049535022626515e-06,1.947171040228568e-05,0.00012707046698778868
-2.96860216622008e-05,3.0730712751392275e-05,2.1157171659069718e-07,1.7422838936909102e-05,0.00010253449727315456
-3.129505421384238e-05,3.678713255794719e-05,-1.493704218091807e-07,1.557055838929955e-05,7.588369044242427e-05
-2.933311407105066e-05,4.2084964661626145e-05,-2.126937715729582e-06,1.5090983652044088e-05,6.333008786896244e-05
-2.8138962079538032e-05,3.913267937605269e-05,-6.731386292813113e-06,1.649743899179157e-05,4.9181689973920584e-05
-3.081040995311923e-05,2.7405510991229676e-05,-9.058475370693486e-06,1.904156852106098e-05,1.4680441381642595e-05
-3.104319330304861e-05,2.4855524316080846e-05,-4.37457993029966e-06,2.3407281332765706e-05,-3.490483868517913e-05
-3.0602521292166784e-05,3.8658308767480776e-05,4.2206102079944685e-06,2.6120393158635125e-05,-6.022280649631284e-05
-3.6447192542254925e-05,5.7325352827319875e-05,9.138384484685957e-06,3.0878956749802455e-05,-2.803735878842417e-05
-3.861892764689401e-05,6.764402496628463e-05,8.141441867337562e-06,3.232280141673982e-05,-9.971100553229917e-06
-3.76573225366883e-05,6.139962351880968e-05,5.483544100570725e-06,2.1539752196986228e-05,-4.506224286160432e-05
-3.7882015021750703e-05,4.6348384785233065e-05,9.276948276237817e-07,1.062798583006952e-05,-5.6609351304359734e-05
-3.3765223633963615e-05,3.8628764741588384e-05,-3.8376032307496644e-07,8.550675374863204e-06,-1.384830193273956e-05
-2.28372955461964e-05,3.796270175371319e-05,-2.378210410824977e-06,7.011541583779035e-06,2.5679040845716372e-05
-5.380724815040594e-06,3.997068779426627e-05,-5.416579824668588e-06,7.851751433918253e-06,3.594343434087932e-05
3.935175385549883e-08,4.038932456751354e-05,-4.186638307146495e-06,1.0630731594574172e-05,3.535959331202321e-05
-1.821546902647242e-05,3.662912058643997e-05,-2.9768719400635746e-07,1.433194393030135e-05,1.8272901797899976e-05
-5.353620144887827e-05,3.3490239729871973e-05,5.49695596419042e-06,1.2572340892802458e-05,2.2184917725098785e-06
-9.787476301426068e-05,3.095220381510444e-05,1.2044434697600082e-05,2.0980523913749494e-06,1.804702333174646e-05
-0.00012983783381059766,2.776604742393829e-05,1.828961649152916e-05,-1.6009373382530612e-07,5.3006631787866354e-05
-0.00011682427430059761,2.5836259737843648e-05,2.553164813434705e-05,2.2646850993623957e-05,7.219011604320258e-05
-6.498339644167572e-05,3.0849321774439886e-05,3.305205245851539e-05,7.241716957651079e-05,7.715034007560462e-05
-1.2052476449753158e-05,3.792070128838532e-05,3.6055334931006655e-05,0.00013018921890761703,7.553442992502823e-05
1.8256769180879928e-05,4.155985516263172e-05,3.7566274841083214e-05,0.00017847713024821132,6.013910024194047e-05
2.6274705305695534e-05,4.2655548895709217e-05,4.175018329988234e-05,0.00019907984824385494,1.6536285329493694e-05
2.1708960048272274e-05,4.164896017755382e-05,4.7095811169128865e-05,0.00018956286658067256,-5.9391855756985024e-05
7.041310254862765e-06,4.046188769279979e-05,4.899526174995117e-05,0.00016800282173790038,-0.00013934457092545927
-1.5037559933261946e-05,4.080239887116477e-05,4.575159618980251e-05,0.00014607797493226826,-0.00017180587747134268
-3.734276833711192e-05,3.843809099635109e-05,3.762904088944197e-05,0.00010731257498264313,-0.00012559149763546884
-5.0289723731111735e-05,3.1287363526644185e-05,2.348849557165522e-05,3.229151479899883e-05,-3.379200279596262e-05
-5.108948244014755e-05,2.7103806132799946e-05,1.5903757457635948e-06,-7.338042632909492e-05,3.550238398020156e-05
-4.24134595959913e-05,2.5523986550979316e-05,-2.2747246475773863e-05,-0.00018811525660566986,4.8177640564972535e-05
-3.67223983630538e-05,2.2381336748367175e-05,-3.736146754818037e-05,-0.0002893316268455237,1.370102290820796e-05
-3.8481106457766145e-05,2.0553030481096357e-05,-3.54697294824291e-05,-0.0003476142883300781,-2.6559473553788848e-05
-3.707891301019117e-05,1.6244690414168872e-05,-2.2726000679540448e-05,-0.0003450017829891294,2.4764176487224177e-08
-3.3028569305315614e-05,5.55332871954306e-06,-1.233114380738698e-05,-0.00029943534173071384,9.204909292748198e-05
-2.869202035071794e-05,5.194865480007138e-07,-1.0983281754306518e-05,-0.0002395537740085274,0.00015262022498063743
-1.3424841199594084e-05,1.1089559848187491e-05,-1.2408509974193294e-05,-0.00019396681454963982,0.00013164550182409585
6.3728002714924514e-06,2.3894592231954448e-05,-1.41527825689991e-05,-0.00015469850040972233,5.340691132005304e-05
5.490426246979041e-06,2.364275133004412e-05,-1.6334290194208734e-05,-0.00010451253183418885,-2.4029286578297615e-05
-4.799556791112991e-06,2.034193130384665e-05,-1.7537273379275575e-05,-6.0550562920980155e-05,-2.828878496075049e-05
2.909347585955402e-06,2.483796743035782e-05,-2.0460496671148576e-05,-3.633791857282631e-05,5.4166426707524806e-05
2.1011059288866818e-05,2.857217623386532e-05,-2.478872556821443e-05,-2.4837396267685108e-05,0.00018127344083040953
2.491606392140966e-05,2.409241824352648e-05,-2.6056462957058102e-05,-1.3110054169374052e-05,0.00028667424339801073
3.51741937265615e-06,1.5010336937848479e-05,-2.299587504239753e-05,-6.338656476145843e-06,0.000329018133925274
-3.2968739105854183e-05,9.94102083495818e-06,-1.702874396869447e-05,-5.948762691332377e-07,0.00032726535573601723
-5.966212847852148e-05,1.0078612831421196e-05,-8.077726306510158e-06,3.846186245937133e-06,0.0003110067918896675
-5.570902067120187e-05,1.4472392649622634e-05,-2.2558219825441483e-06,-2.408773980278056e-06,0.00026059322408400476
-3.224284228053875e-05,1.886364225356374e-05,-1.783777292985178e-06,-1.5513172911596484e-05,0.0001717799314064905
-1.7102498532040045e-05,1.996391983993817e-05,-9.723473795020254e-07,-2.2406684365705587e-05,0.00011064047430409119
-1.8939786968985572e-05,1.7720318282954395e-05,2.58865861724189e-06,-1.0743386155809276e-05,0.00011081585398642346
-2.7117821446154267e-05,1.3362403478822671e-05,6.530076007038588e-06,1.0425535947433673e-05,0.0001166785295936279
-3.144584479741752e-05,1.0203772944805678e-05,1.0715652024373412e-05,2.675281575648114e-05,8.645652269478887e-05
-3.2437230402138084e-05,1.1710604667314328e-05,1.403415353706805e-05,3.275417839176953e-05,7.314616959774867e-05
-3.4921729820780456e-05,1.7376129108015448e-05,1.3920954188506585e-05,3.103594281128608e-05,0.00012825104931835085
-3.7723184505011886e-05,2.5671404728200287e-05,1.5000265193521045e-05,2.686198968149256e-05,0.00019304770103190094
-3.479436782072298e-05,3.64636980521027e-05,1.9304456145619042e-05,2.7931941076531075e-05,0.00018439124687574804
-2.713667527132202e-05,4.108285793336108e-05,2.128246342181228e-05,3.369506885064766e-05,0.00013187409786041826
-2.1596804799628444e-05,3.6729372368426993e-05,1.792211514839437e-05,3.7669735320378095e-05,9.467617201153189e-05
-2.4548988221795298e-05,3.582861245376989e-05,1.3683824363397434e-05,4.174921923549846e-05,8.367930422537029e-05
-3.3269992854911834e-05,4.595234713633545e-05,1.28100818983512e-05,4.692612856160849e-05,0.00010979303624480963
-4.091889786650427e-05,5.6141114328056574e-05,1.4583728443540167e-05,4.561326568364166e-05,0.00015986083599273115
-4.8931957280728966e-05,5.954366861260496e-05,1.2333315680734813e-05,4.069461647304706e-05,0.00017955401563085616
-4.6984481741674244e-05,5.8606612583389506e-05,3.939280304621207e-06,3.776141602429561e-05,0.00010065708192996681
-3.173444565618411e-05,6.199450581334531e-05,-2.7573657916946104e-06,3.089606616413221e-05,-6.576230225618929e-05
-1.1728826393664349e-05,6.630388816120103e-05,-4.968549546902068e-06,1.9834813429042697e-05,-0.0001840801996877417
1.6263761608570348e-06,6.5445332438685e-05,-6.75236606184626e-06,1.437732316844631e-05,-0.0001728025235934183
-3.6508690754999407e-06,5.166230403119698e-05,-7.758521860523615e-06,4.754486326419283e-06,-0.00010671444761101156
-1.464437082177028e-05,9.704202057037037e-06,-9.429251804249361e-06,-1.312726908508921e-05,-4.73141590191517e-05
-1.655548476264812e-05,-3.769203613046557e-05,-1.1330395864206366e-05,-1.4747031855222303e-05,-1.956792630153359e-06
-1.2246933692949824e-05,-5.076033994555473e-05,-7.55034261601395e-06,1.6350366422557272e-05,1.5519566659349948e-05
-7.686589015065692e-06,-2.6198813429800794e-05,3.1884771942713996e-06,6.584163929801434e-05,2.8909797038068064e-05
-7.2281354732695036e-06,4.883867859462043e-06,1.6485169908264652e-05,0.00012115122081013396,3.3452448406023905e-05
-1.8888693375629373e-05,2.074376607197337e-05,2.770794162643142e-05,0.00018967376672662795,1.43766001201584e-05
-2.5951361749321222e-05,2.4956198103609495e-05,3.676753112813458e-05,0.0002491917402949184,-2.0197330741211772e-05
-2.030816176556982e-05,2.8275009753997438e-05,4.216167508275248e-05,0.0002687827800400555,-3.2347637898055837e-05
-1.6126345144584775e-05,3.1627696444047615e-05,4.266375253791921e-05,0.00024428294273093343,-1.615452674741391e-05
-2.4080614821286872e-05,3.17614249070175e-05,3.93105874536559e-05,0.00019138961215503514,-1.5595925333400373e-06
-3.803128856816329e-05,2.8782811568817124e-05,3.47587229043711e-05,0.00012660554784815758,-7.139854915294563e-06
-4.225540396873839e-05,2.6099571186932735e-05,2.7292939194012433e-05,5.081909694126807e-05,-3.630540595622733e-05
-3.468629438430071e-05,2.72025336016668e-05,1.6049774785642512e-05,-4.436975723365322e-05,-6.95933194947429e-05
-2.3219166905619204e-05,3.2536649086978287e-05,1.3203008393247728e-06,-0.00016379656153731048,-7.826070941518992e-05
-1.3556443263951223e-05,3.905707490048371e-05,-1.4894686501065735e-05,-0.0002883488778024912,-5.817778583150357e-05
-8.888011961971642e-07,4.496634937822819e-05,-2.7070938813267276e-05,-0.00037164505920372903,-2.3431837689713575e-05
1.1390840882086195e-05,5.599190990324132e-05,-3.248800567234866e-05,-0.0003900867886841297,2.3875645638327114e-05
8.903520210878924e-06,6.70552472001873e-05,-3.185830792062916e-05,-0.0003677316417451948,4.676510070567019e-05
-7.814410309947561e-06,6.434237002395093e-05,-3.0934348615119234e-05,-0.0003294407797511667,8.294631697935984e-06
-1.8541204553912394e-05,4.90404709125869e-05,-3.10231807816308e-05,-0.0002771492872852832,-5.681470429408364e-05
-2.041584775724914e-05,3.29767499351874e-05,-2.7720003345166333e-05,-0.00022011861437931657,-6.606176611967385e-05
-1.807433000067249e-05,2.652588955243118e-05,-2.1627953174174763e-05,-0.0001766839122865349,-5.718301963497652e-06
-2.0527430024230853e-05,3.3348322176607326e-05,-1.568627885717433e-05,-0.00013778803986497223,7.837086013751104e-05
-3.0413935746764764e-05,3.874796675518155e-05,-8.987682122096885e-06,-9.134917490882799e-05,0.00014857090718578547
-4.224350050208159e-05,3.102083792327903e-05,-6.169756034068996e-06,-5.572502050199546e-05,0.00019141845405101776
-4.724844984593801e-05,1.2869470083387569e-05,-8.205037374864332e-06,-3.519457459333353e-05,0.00020104733994230628
-4.4528886064654216e-05,7.871855132179917e-07,-5.828439043398248e-06,-1.1789433301601093e-05,0.00019761618750635535
-4.1764971683733165e-05,3.9185933928820305e-06,-1.794984086700424e-06,6.9021798481117e-06,0.00020199213759042323
-3.697847932926379e-05,1.2037499800499063e-05,-3.3262313081650063e-06,1.3794949154544156e-05,0.0001810352987376973
-3.668761200970039e-05,1.6617508663330227e-05,-5.395540028985124e-06,2.0522244085441343e-05,0.00011351949069648981
-4.890031414106488e-05,2.0349983969936147e-05,-3.2105458558362443e-06,2.638434489199426e-05,6.405052408808842e-05
-7.056267349980772e-05,2.7884778319275938e-05,7.417069127768627e-07,2.4738730644457974e-05,4.864549191552214e-05
-8.296434680232778e-05,3.429804201005027e-05,8.72381770022912e-06,2.0488210793701e-05,4.9564914661459625e-05
-7.51499756006524e-05,3.6365272535476834e-05,1.966392846952658e-05,2.2838565200800076e-05,6.421191210392863e-05
-5.1134567911503837e-05,3.071593528147787e-05,2.382424645475112e-05,2.8897689844598062e-05,7.156356878113002e-05
-2.374087125645019e-05,2.334123564651236e-05,1.975616396521218e-05,3.637859845184721e-05,7.084180106176063e-05
-7.581038971693488e-06,2.2416115825762972e-05,1.2796217561117373e-05,4.420488403411582e-05,7.911093416623771e-05
-5.4067213568487205e-06,2.7466758183436468e-05,8.00895122665679e-06,4.76661189168226e-05,0.00010600483801681548
-1.1515300684550311e-05,3.065342389163561e-05,3.614168917920324e-06,4.69662991235964e-05,0.0001287435443373397
-1.8994451238540933e-05,2.786001277854666e-05,-1.3565616541200143e-07,4.693185837822966e-05,0.0001325277698924765
-2.7059271815232933e-05,2.474856773915235e-05,-1.682799734226137e-06,4.6826255129417405e-05,0.0001173408527392894
-3.624986857175827e-05,2.5883273337967694e-05,-1.3656648434334784e-06,4.20050673710648e-05,8.928358147386461e-05
-4.151318353251554e-05,2.972663423861377e-05,9.24758467135689e-07,3.353918145876378e-05,5.281135599943809e-05
-3.6862202250631526e-05,3.4226206480525434e-05,6.776894679205725e-06,2.4569089873693883e-05,2.538598891987931e-05
-2.4014034352148883e-05,4.051078940392472e-05,1.3425878933048807e-05,1.7623433450353332e-05,1.6523121303180233e-05
-1.0943732377199922e-05,4.8230740503640845e-05,1.464271372242365e-05,1.5888461348367855e-05,1.8272106899530627e-05
-7.16908334652544e-06,5.540129859582521e-05,9.822687388805207e-06,1.953941500687506e-05,2.4676870452822186e-05
-8.0221907410305e-06,5.660534952767193e-05,7.201426797109889e-06,2.6296944270143285e-05,3.6783898394787684e-05
2.052844365607598e-06,5.8005367463920265e-05,1.0031893907580525e-05,3.123705027974211e-05,5.0080747314495966e-05
3.9608345105079934e-05,6.129715620772913e-05,1.3653004316438455e-05,2.593471435829997e-05,6.783977732993662e-05
8.981685095932335e-05,5.219526792643592e-05,1.385676659992896e-05,1.5794747014297172e-05,9.524345659883693e-05
0.00010201862460235134,3.620035568019375e-05,1.2778655218426138e-05,1.4807791558268946e-05,0.00012387741298880428
6.690754526061937e-05,3.5819539334625006e-05,1.7223675968125463e-05,2.5100298444158398e-05,0.0001386690273648128
2.4183038476621732e-05,4.550970334094018e-05,2.3691834940109402e-05,2.998296076839324e-05,0.00013085779210086912
-1.3362397112359758e-05,4.489269485929981e-05,2.9376280508586206e-05,2.6988933313987218e-05,0.00010394983110018075
-6.226958794286475e-05,3.615142486523837e-05,3.156309685437009e-05,2.2576354240300134e-05,7.082315278239548e-05
-0.0001245847379323095,2.2722450012224726e-05,3.2850028219399974e-05,2.049787508440204e-05,4.023049405077472e-05
-0.00018880928109865636,9.645194950280711e-06,3.421547808102332e-05,2.4930564904934727e-05,1.0736232979979832e-05
-0.000221049805986695,-2.6637760583980707e-06,3.691868550959043e-05,3.0022976716281846e-05,1.2017267181363422e-06
-0.0001874087320175022,-2.0299739844631404e-05,3.907899372279644e-05,3.107426891801879e-05,1.2190045708848629e-05
-0.00010405862849438563,-3.6073186493013054e-05,3.5314889828441665e-05,2.5968922273023054e-05,1.4531357237501652e-06
-3.560021650628187e-05,-3.964561255997978e-05,2.667006447154563e-05,2.4729384676902555e-05,-4.126059866393916e-05
-1.6335667169187218e-05,-2.67726991296513e-05,1.7396443581674248e-05,2.9890881705796346e-05,-5.937972673564218e-05
-2.391249654465355e-05,-7.654902219655924e-06,1.0905735507549252e-05,3.161501444992609e-05,-2.9584005005744984e-06
-2.9020846341154538e-05,6.580433819181053e-06,9.941588359652087e-06,2.498278445273172e-05,0.00010185117571381852
-1.871205859060865e-05,1.0943032066279557e-05,1.4926162293704692e-05,2.1465531972353347e-05,0.00019020626496057957
4.119018740311731e-06,1.0330421901016962e-05,1.924818570842035e-05,3.5510616726242006e-05,0.00023524169228039682
2.0209807189530693e-05,1.0866896445804741e-05,1.9675122530316003e-05,5.876860814169049e-05,0.0002519494737498462
1.5152651940297801e-05,1.3407237020146567e-05,1.5743717085570097e-05,7.093763997545466e-05,0.0002652194525580853
6.672058248113899e-07,1.7138592738774605e-05,1.116021303460002e-05,6.800632399972528e-05,0.0002839664521161467
-1.5396753951790743e-05,2.152175147784874e-05,1.008525759971235e-05,6.153958383947611e-05,0.0002744018565863371
-3.330917388666421e-05,2.700070763239637e-05,1.4015714441484306e-05,5.058789247414097e-05,0.00018239443306811154
-4.2165873310295865e-05,3.699483204400167e-05,1.771540701156482e-05,2.591654447314795e-05,4.4776792492484674e-05
-2.9539400202338584e-05,4.633305798051879e-05,1.49422739923466e-05,-1.0477291652932763e-05,-3.495906639727764e-05
-2.726578941292246e-06,4.9135742301587015e-05,9.640253665565979e-06,-4.213221836835146e-05,-3.0514109312207438e-05
1.937676097440999e-05,5.120148489368148e-05,7.358463335549459e-06,-5.5959731980692595e-05,-6.924091167093138e-07
2.5269855541409925e-05,5.0253234803676605e-05,6.333710189210251e-06,-6.360998668242246e-05,-9.091194442589767e-06
1.1373649613233283e-05,4.2331579606980085e-05,4.852125584875466e-06,-8.919711399357766e-05,-4.895638267043978e-05
-1.5248642739607021e-05,3.294195266789757e-05,1.4165063930704491e-06,-0.0001265530736418441,-5.867749496246688e-05
-4.062701918883249e-05,2.615155062812846e-05,-7.363466465903912e-06,-0.00013070878048893064,-7.970454316819087e-05
-4.861872730543837e-05,2.0640216462197714e-05,-1.3511983524949756e-05,-9.269017027691007e-05,-0.00011552513024071231
-2.962204598588869e-05,2.3907472495920956e-05,-8.002671165741049e-06,-5.2416980906855315e-05,-7.34984569135122e-05
-1.5065559182403376e-06,3.231171649531461e-05,2.5113208721450064e-06,-3.1063078495208174e-05,6.50855190542643e-06
1.5499115761485882e-05,3.8751251850044355e-05,7.83138966653496e-06,-1.5062551028677262e-05,7.278975681401789e-05
1.968362084880937e-05,4.360767707112245e-05,5.582935500569874e-06,1.2647583389480133e-05,0.00012272916501387954
1.6494799638167024e-05,4.510758662945591e-05,2.080856802422204e-06,4.129213994019665e-05,0.00015657732728868723
7.333315807045437e-06,4.468520273803733e-05,2.383893843216356e-06,5.089843398309313e-05,0.00017322962230537087
-7.659418770344928e-06,4.470516068977304e-05,7.308892236324027e-06,3.954658313887194e-05,0.00020478034275583923
-2.42468377109617e-05,4.099383659195155e-05,1.1649275620584376e-05,2.0452025637496263e-05,0.0002829986624419689
-3.548838139977306e-05,3.507545989123173e-05,1.2871073522546794e-05,-3.722436531461426e-06,0.0003559531760402024
-3.231505615985952e-05,3.1493273127125576e-05,1.1875322343257722e-05,-3.428866693866439e-05,0.0003463742323219776
-2.2693728169542737e-05,2.4945185941760428e-05,7.064632882247679e-06,-6.709125591441989e-05,0.00022007299412507564
-3.0355968192452565e-05,1.2368232091830578e-05,-4.6791060981377086e-07,-8.492901542922482e-05,-2.553030753915664e-06
-6.118830788182095e-05,2.45919522967597e-06,-7.832692062947899e-06,-8.278222958324477e-05,-0.00023895750928204507
-9.239403152605519e-05,3.3292933494522003e-06,-1.118509862862993e-05,-8.105221058940515e-05,-0.00038114970084279776
-9.529892849968746e-05,1.015969246509485e-05,-1.1188385542482138e-05,-9.544440399622545e-05,-0.0003775710938498378
-5.9447545936563984e-05,1.881742173281964e-05,-1.1747864846256562e-05,-0.00011269870446994901,-0.00023725413484498858
-8.372623597097117e-06,3.118095992249437e-05,-1.3100908290653024e-05,-0.00010668516915757209,-6.708878936478868e-05
2.388982284173835e-05,4.0183545934269205e-05,-1.0434820978844073e-05,-7.55680666770786e-05,1.0226454833173193e-05
2.8730626581818797e-05,4.181895201327279e-05,-5.628054168482777e-06,-4.1598937968956307e-05,-3.4836648410419002e-06
1.8194383301306516e-05,4.499600254348479e-05,-2.3027237148198765e-06,-2.3985014195204712e-05,-3.2335279684048146e-05
4.586101567838341e-06,5.0048074626829475e-05,6.413816322492494e-07,-1.710353717498947e-05,-3.976589141529985e-05
-5.461358341563027e-06,5.327749749994837e-05,3.507331939545111e-06,-1.0666974958439823e-05,-2.820002191583626e-05
-1.6105312170111574e-05,5.516008968697861e-05,-2.022557509917533e-06,-7.934653467600583e-07,-4.326139787735883e-06
-2.7029249395127408e-05,5.214783232077025e-05,-1.603926830284763e-05,7.846884727769066e-06,3.364846634212881e-05
-3.1691706681158394e-05,3.921748430002481e-05,-3.412326259422116e-05,6.8530939643096644e-06,8.915727812564e-05
-3.537288648658432e-05,3.462233144091442e-05,-5.016126306145452e-05,-2.664558451215271e-06,0.0001413002028129995
-3.783693318837322e-05,3.401711364858784e-05,-5.342038639355451e-05,-4.742990768136224e-06,0.0001742271415423602
-3.8120197132229805e-05,1.9112379959551618e-05,-4.578085645334795e-05,1.621717274247203e-06,0.00018404939328320324
-3.762783308047801e-05,9.935594789567403e-06,-3.141156048513949e-05,1.2689540199062321e-05,0.00016370837693102658
-3.6164125049253926e-05,1.6330875951098278e-05,-1.195305503642885e-05,2.5647099391790107e-05,0.0001337140565738082
-3.506509165163152e-05,2.3680504455114715e-05,1.0807354556163773e-05,3.724117050296627e-05,0.00011647732753772289
-2.765437966445461e-05,2.4270248104585335e-05,3.0811483156867325e-05,4.505461402004585e-05,0.00011545131565071642
-1.5276515114237554e-05,2.6229716240777634e-05,4.4988832087256014e-05,4.312818418839015e-05,0.00011379743955330923
-6.0102988754806574e-06,3.687290518428199e-05,5.103693183627911e-05,3.8681228033965454e-05,9.324583515990525e-05
-5.279631295707077e-06,4.762427488458343e-05,5.125636744196527e-05,5.463769775815308e-05,5.186245107324794e-05
-1.368853099847911e-05,5.279929609969258e-05,4.901308784610592e-05,9.745418356033042e-05,1.803403029043693e-05
-2.1246472897473723e-05,5.838244760525413e-05,4.502368392422795e-05,0.0001367332151858136,1.965848423424177e-05
-1.9139941286994144e-05,6.079711965867318e-05,4.030580385006033e-05,0.00014514834037981927,4.3903673940803856e-05
-8.629510375612881e-06,5.7196724810637534e-05,3.66875683539547e-05,0.00012440120917744935,6.11351351835765e-05
1.3407330925474525e-06,5.393887113314122e-05,3.7368179619079456e-05,0.000100408484286163,6.023514288244769e-05
-5.928819746259251e-07,5.275521471048705e-05,4.146283390582539e-05,8.822827658150345e-05,5.809824506286532e-05
-1.9951283320551738e-05,4.3675183405866846e-05,4.534392064670101e-05,7.230682240333408e-05,6.65183033561334e-05
-4.9001733714248985e-05,2.742203105299268e-05,4.2166360799456015e-05,3.0352459361893125e-05,7.500241190427914e-05
-7.57648449507542e-05,1.6907943063415587e-05,3.073414336540736e-05,-3.2664393074810505e-05,5.7508121244609356e-05
-9.30296810111031e-05,1.4585128155886196e-05,1.9359793441253714e-05,-9.693750325823203e-05,1.4362324691319373e-05
-0.00010509468120289966,1.6148711438290775e-05,1.2749432244163472e-05,-0.00015034308307804167,-2.431147913739551e-05
-0.00011112924403278157,2.1789654056192376e-05,9.250888979295269e-06,-0.00018395100778434426,-2.352886804146692e-05
-9.562173363519832e-05,2.9838354748790152e-05,7.836615623091348e-06,-0.00017926945292856544,1.1236325008212589e-05
-5.430814780993387e-05,3.36220909957774e-05,3.2147802357940236e-06,-0.0001357618602924049,4.3614727474050596e-05
-3.953977284254506e-06,3.67549218935892e-05,-2.6656216505216435e-06,-9.406191384186968e-05,4.027420072816312e-05
2.428689185762778e-05,4.111864109290764e-05,-3.0090532163740136e-06,-7.959248614497483e-05,2.004200723604299e-05
2.704176768020261e-05,4.116031414014287e-05,-9.808513823372778e-07,-8.355066529475152e-05,3.073404513997957e-05
2.586645496194251e-05,3.386040043551475e-05,-3.7865886497456813e-06,-8.48634954309091e-05,5.38944368599914e-05
3.2784304494271055e-05,2.486637094989419e-05,-1.0320864930690732e-05,-6.647193367825821e-05,6.0709327954100445e-05
3.647335324785672e-05,2.3332137061515823e-05,-1.7687569197732955e-05,-2.9227005143184215e-05,8.604734466644004e-05
1.843731661210768e-05,2.760116694844328e-05,-2.098613913403824e-05,1.784419328032527e-05,0.00014821816876064986
-4.343402451922884e-06,3.125287184957415e-05,-1.6074214727268554e-05,5.016336217522621e-05,0.00020809502166230232
-1.7767339159036055e-05,2.7645855880109593e-05,-9.927548489940818e-06,5.591961235040799e-05,0.00023750797845423222
-3.150185875711031e-05,2.0423005480552092e-05,-3.4495972158765653e-06,5.9667676396202296e-05,0.000201009854208678
-4.7163284762063995e-05,1.5661216821172275e-05,7.772589924570639e-06,8.233800326706842e-05,7.157268555602059e-05
-4.812619954464026e-05,1.1465649549791124e-05,1.8595837900647894e-05,0.00012400769628584385,-3.3442091080360115e-05
-3.3513693779241294e-05,5.556379164772807e-06,2.311215030204039e-05,0.0001599709939910099,-2.955571653728839e-05
-2.2276790332398377e-05,-1.386800818181655e-06,2.2955209715291858e-05,0.00015946828352753073,-2.6950247047352605e-06
-1.6018397218431346e-05,-1.7589435401532683e-06,2.106181091221515e-05,0.00011319046461721882,4.87622264699894e-06
-1.2057250387442764e-05,5.746364877268206e-06,1.94623844436137e-05,4.467834878596477e-05,1.7919463061844e-05
-1.768611036823131e-05,1.4472704606305342e-05,1.877627073554322e-05,-2.238798151665833e-05,3.832073707599193e-05
-4.035472375107929e-05,1.7119366020779125e-05,1.3236809536465444e-05,-8.19664346636273e-05,3.518047378747724e-05
-6.980884791119024e-05,1.3261960702948272e-05,8.302448577524046e-07,-0.00012949890515301377,-6.013728125253692e-06
-7.367991202045232e-05,1.0013240171247162e-05,-9.824473636399489e-06,-0.00016707973554730415,-6.94339832989499e-05
-2.835858686012216e-05,1.533065369585529e-05,-1.2152996532677207e-05,-0.00019676117517519742,-9.007829066831619e-05
3.066303543164395e-05,2.8855363780166954e-05,-1.0197295523539651e-05,-0.00021885841852054,-1.9757781046791933e-05
2.8660464522545226e-05,3.9549326174892485e-05,-7.152742000471335e-06,-0.0002412798348814249,7.672406354686245e-05
-4.6878867578925565e-05,4.2394312913529575e-05,-3.195757244611741e-06,-0.00025304220616817474,9.60508405114524e-05
-0.00011275194265181199,3.742484113899991e-05,2.669301011337666e-07,-0.00022132681624498218,4.3763149733422324e-05
-9.431323269382119e-05,2.9268034268170595e-05,4.128582133944292e-07,-0.00014774415467400104,1.3954077076050453e-05
-1.4903889677952975e-05,2.9589695259346627e-05,-1.3966981669000234e-06,-6.218843191163614e-05,3.4609129215823486e-05
3.907860445906408e-05,3.6281897337175906e-05,1.558757503516972e-06,2.1472883418027777e-06,6.75156552460976e-05
2.821949601639062e-05,3.653102248790674e-05,1.158220698016521e-06,2.71618009719532e-05,0.00010142147948499769
-1.5885885659372434e-05,2.7086785848950967e-05,-4.050389634357998e-06,2.410917113593314e-05,0.00015495051047764719
-3.945233765989542e-05,2.2915774025022984e-05,-4.630913281289395e-06,1.406536375725409e-05,0.0002178787108277902
-2.7077961931354366e-05,3.253110116929747e-05,3.038449222003692e-06,-1.7248569292860338e-06,0.0002883590350393206
-2.4829037101881113e-06,4.108092616661452e-05,7.741745321254712e-06,-2.7434996809461154e-05,0.0003592502325773239
1.3930166460340843e-05,3.897515853168443e-05,3.951155576942256e-06,-4.734254616778344e-05,0.0003606055397540331
1.0824575838341843e-05,3.2950549211818725e-05,5.770256166215404e-07,-5.494332071975805e-05,0.00021257642947603017
2.8426651965673955e-07,3.323066994198598e-05,-4.867663392360555e-07,-5.7431530876783654e-05,-1.4082489542488474e-05
-1.2301711649342906e-05,4.219474067213014e-05,-2.7679807317326777e-06,-5.285454244585708e-05,-0.000140804608236067
-2.3591501303599216e-05,4.992665708414279e-05,-7.903895493655e-06,-3.239193756598979e-05,-0.00013446529919747263
-3.651826045825146e-05,5.126560790813528e-05,-1.1253145203227177e-05,4.005847529242601e-07,-7.777604332659394e-05
-4.332976823206991e-05,4.903300941805355e-05,-1.0702844519983046e-05,3.228716377634555e-05,-1.9842600522679277e-05
-3.348294194438495e-05,4.846134106628597e-05,-7.561003712908132e-06,5.0120113883167505e-05,3.228991772630252e-05
-1.287599570787279e-05,4.4963839172851294e-05,-7.721190740994643e-06,5.0343085604254156e-05,7.281799480551854e-05
2.3702903035882628e-06,3.0902210710337386e-05,-6.948159352759831e-06,4.050015195389278e-05,9.457678970647976e-05
-2.8674878649326274e-06,1.2836381756642368e-05,-5.351844833967334e-07,3.15466859319713e-05,9.404675802215934e-05
-2.0201965526212007e-05,-2.4161611236195313e-06,5.80350888412795e-06,3.64863735740073e-05,7.44432836654596e-05
-3.1360039429273456e-05,-9.914301699609496e-06,8.14801205706317e-06,6.128590030129999e-05,4.941435327054933e-05
-2.79839205177268e-05,-8.813589374767616e-06,1.1071273547713645e-05,9.033492824528366e-05,2.613805736473296e-05
-2.2658186935586855e-05,-4.084440661245026e-06,1.5738791262265295e-05,0.00010872491839108989,2.0180377759970725e-05
-2.498448702681344e-05,2.729900188569445e-06,1.7917822333402e-05,0.00013351131929084659,4.76458044431638e-05
-3.427806223044172e-05,1.197584697365528e-05,1.8317619833396748e-05,0.00017643994942773134,9.205927926814184e-05
-4.246065145707689e-05,2.0654420950450003e-05,1.7831807781476527e-05,0.00020493046031333506,0.0001119377848226577
-4.7875520976958796e-05,3.0288709240267053e-05,1.7446636775275692e-05,0.00019635813077911735,9.941972530214116e-05
-5.3241350542521104e-05,3.288771404186264e-05,1.5644483937649056e-05,0.00015372577763628215,8.329505362780765e-05
-4.736064147436991e-05,2.801371374516748e-05,1.3077910807623994e-05,8.534674998372793e-05,7.415263098664582e-05
-2.280519220221322e-05,2.635342207213398e-05,1.1332052963552997e-05,2.069225774903316e-05,5.6223547289846465e-05
-5.375442015065346e-06,2.541169487813022e-05,5.249631612969097e-06,-3.366040255059488e-05,3.533605195116252e-05
4.1782757875807874e-07,2.1536745407502167e-05,-5.867485924682114e-06,-8.464472921332344e-05,4.967840504832566e-05
2.341709659958724e-06,1.9709324988070875e-05,-1.462139334762469e-05,-0.00010521251533646137,8.66364935063757e-05
1.6986131186058628e-06,2.6852214432437904e-05,-1.8746053683571517e-05,-0.00010435867443447933,0.00010477779142092913
1.2587946685016504e-06,3.8249450881266966e-05,-1.7916490833158605e-05,-0.00012122251064283773,8.343032095581293e-05
-2.8535889669001335e-06,4.683720544562675e-05,-1.0403567102912348e-05,-0.00012845879246015102,2.584246794867795e-05
-1.3596366443380248e-05,4.572117904899642e-05,-1.9514632754180639e-07,-0.00010076531179947779,-3.674094477901235e-05
-3.7509380490519106e-05,3.8905287510715425e-05,2.60044953392935e-06,-5.57934217795264e-05,-9.23242696444504e-05
-6.271764141274616e-05,3.307957376819104e-05,-1.6918139635890839e-06,-1.1870421076309867e-05,-0.00010779069270938635
-7.273288792930543e-05,2.3883423637016676e-05,-3.8343091546266805e-06,1.457831785955932e-05,-6.104812200646847e-05
-6.369823677232489e-05,1.790275564417243e-05,1.783573566171981e-06,1.6235402654274367e-05,2.1109506633365527e-05
-4.808711673831567e-05,1.8986213035532273e-05,7.735141480225138e-06,-1.6771439277363243e-06,0.00011189108772668988
-3.794484291574918e-05,2.2427633666666225e-05,6.746264716639416e-06,-2.2403122784453444e-05,0.00019083326333202422
-4.099899888387881e-05,2.012801996897906e-05,4.888246166956378e-06,-3.3292872103629634e-05,0.0002247031661681831
-5.661286922986619e-05,1.552795947645791e-05,8.435022209596355e-06,-4.068010093760677e-05,0.00020782428327947855
-6.175480666570365e-05,1.9185539713362232e-05,1.328455709881382e-05,-5.863930346095003e-05,0.00016487417451571673
-2.830132143571973e-05,3.339349859743379e-05,1.0656930498953443e-05,-9.432464139536023e-05,0.0001117778811021708
3.0922099540475756e-05,5.2218150813132524e-05,2.9259344955789857e-06,-0.00014196161646395922,5.653831976815127e-05
6.861705332994461e-05,6.628849951084703e-05,-2.5297330807916296e-07,-0.00017997162649407983,8.862080903782044e-06
6.427072366932407e-05,7.195553189376369e-05,2.734050212893635e-06,-0.0001878558105090633,-1.5514187907683663e-05
3.455443220445886e-05,6.917423888808116e-05,3.4175081964349374e-06,-0.00016438329475931823,-2.2884394638822414e-05
-8.410891609855753e-07,5.851443711435422e-05,2.069993797704228e-06,-0.00012182301725260913,-2.5604931579437107e-05
-3.7634385080309585e-05,3.873429159284569e-05,2.148296971427044e-06,-6.977591692702845e-05,-2.338248123123776e-05
-7.517528865719214e-05,1.1919858479814138e-05,5.575522266099142e-08,-2.2454751160694286e-05,-3.0776213861827273e-06
-9.546461660647765e-05,-1.0235565241600852e-05,-8.252994120994117e-06,9.100520401261747e-06,4.587342118611559e-05
-7.986782293301076e-05,-5.273859187582275e-06,-1.9755736502702348e-05,2.0576897441060282e-05,0.00010822923650266603
-4.616636942955665e-05,1.768914080457762e-05,-2.3270660676644184e-05,1.5339628589572385e-05,0.00014436441415455192
-3.4308726753806695e-05,2.973623304569628e-05,-1.7144004232250154e-05,8.041523869906086e-06,0.00014745493535883725
