-4.321462620282546e-05,1.0985455446643755e-05,7.691766768402886e-06,-5.263071670924546e-06,5.5273361795116216e-05
-3.841206125798635e-05,1.3317187494976679e-06,1.1070007531088777e-05,-6.640147603320656e-06,5.348714694264345e-05
-2.4540846425225027e-05,-5.256284566712566e-06,1.3234407560958061e-05,-3.7385825635283254e-06,5.334151501301676e-05
-1.0269938684359659e-05,-8.74943179951515e-06,1.2373135177767836e-05,-4.0195632209361065e-06,5.442778274300508e-05
-1.7626041426410666e-06,-2.7707496883522253e-06,8.364791028725449e-06,-7.4804270298045594e-06,5.6283803132828325e-05
-2.132750296368613e-07,1.7841419321484864e-05,4.529990746959811e-06,-7.4046620284207165e-06,5.869153392268345e-05
-2.222064040324767e-06,2.6640715077519417e-05,2.4015939743549097e-06,-8.672158401168417e-06,6.266694981604815e-05
-3.111103069386445e-06,9.335863069281913e-06,-1.1133372481708648e-06,-1.4551775166182779e-05,6.47399210720323e-05
-9.004308594739996e-06,-3.2068817290564766e-06,5.264590754450182e-07,-1.824570063035935e-05,6.365036097122356e-05
-1.876499482023064e-05,1.1490652468637563e-05,4.566962616081582e-06,-1.9420012904447503e-05,6.33370436844416e-05
-2.3306041839532554e-05,3.230195943615399e-05,6.661251973127946e-06,-1.756942037900444e-05,6.596231105504557e-05
-2.5674742573755793e-05,4.022311986773275e-05,5.2700638661917765e-06,-1.4262051990954205e-05,7.082076626829803e-05
-2.7068877898273058e-05,3.3955686376430094e-05,4.062041170982411e-06,-1.0580477464827709e-05,7.33135748305358e-05
-2.8531057978398167e-05,2.456861147948075e-05,4.001155502919573e-06,-1.1776207429647911e-05,7.473083678632975e-05
-2.956071875814814e-05,2.0429171854630113e-05,5.982843958918238e-06,-1.7128269973909482e-05,7.672535866731778e-05
-2.7812991902465e-05,2.1060421204310842e-05,1.2216512914164923e-05,-1.8820173863787204e-05,7.691094651818275e-05
-2.2702995920553803e-05,2.3926651920191944e-05,1.9704511942109093e-05,-1.3530011528928299e-05,7.532747986260802e-05
-2.0234867406543344e-05,2.578224848548416e-05,2.0594648958649486e-05,-5.567766493186355e-06,7.473944424418733e-05
-2.0197219782858156e-05,2.6244757464155555e-05,1.3467905773723032e-05,-1.1700059303620947e-06,7.58740134187974e-05
-1.985092785616871e-05,2.486294397385791e-05,8.9085870058625e-06,-5.085864174247945e-08,7.56631197873503e-05
-2.2561887817573734e-05,2.1951298549538478e-05,1.2205930943309795e-05,-2.079222895190469e-06,7.351720705628395e-05
-2.9552435080404393e-05,1.9344952306710184e-05,1.7872629541670904e-05,-7.087271114869509e-06,7.170254684751853e-05
-3.3979613363044336e-05,2.4006116291275248e-05,2.118070187862031e-05,-1.1884168088727165e-05,7.034274312900379e-05
-3.400744026293978e-05,3.0122624593786895e-05,2.3188902559923008e-05,-1.3467684766510502e-05,6.741606921423227e-05
-3.523330815369263e-05,2.8721580747514963e-05,1.974096267076675e-05,-1.1683112461469136e-05,6.4772080804687e-05
-3.620380812208168e-05,2.6708106815931387e-05,1.0693347576307133e-05,-8.516016350768041e-06,6.39818754279986e-05
-4.004791844636202e-05,3.072162871831097e-05,4.240449015924241e-06,-7.667081263207365e-06,6.174358713906258e-05
-3.9090446080081165e-05,3.389923585928045e-05,4.461651315068593e-06,-1.2357188097666949e-05,6.173992733238265e-05
-2.956411844934337e-05,3.590753840398975e-05,3.184606384820654e-06,-1.2058877473464236e-05,6.296661013038829e-05
-2.135878639819566e-05,3.80052333639469e-05,3.1874412798060803e-06,-4.4765019993064925e-06,6.206005491549149e-05
-1.8970666133100167e-05,4.094669202459045e-05,6.54907307762187e-06,5.246246246315422e-07,6.371772178681567e-05
-2.1083584215375595e-05,3.836693213088438e-05,9.841193786996882e-06,2.0530083020275924e-06,6.497502909041941e-05
-2.453594970575068e-05,3.409600321901962e-05,5.776073521701619e-06,-9.62157173489686e-07,6.299532833509147e-05
-2.4581380785093643e-05,3.37022720486857e-05,-8.712033832125599e-07,-6.601437235076446e-06,6.257864879444242e-05
-1.822660669859033e-05,3.349129110574722e-05,-2.6905340746452566e-06,-1.418198644387303e-05,6.312038021860644e-05
-1.5262296074070036e-05,2.9969849492772482e-05,-3.13563418785634e-06,-1.6294570741592906e-05,6.156988092698157e-05
-1.7295193174504675e-05,2.3813847292331047e-05,-2.7274713829683606e-06,-1.4696302059746813e-05,6.347462476696819e-05
-2.0643316020141356e-05,2.1121575628058054e-05,-2.345781240364886e-07,-1.2325733223406132e-05,6.755467620678246e-05
-2.5285457013524137e-05,2.183890319429338e-05,3.0471171612589387e-06,-9.964462151401676e-06,6.883529567858204e-05
-2.9485656341421418e-05,2.2516267563332804e-05,3.243040055167512e-06,-8.177295057976153e-06,6.588507676497102e-05
-2.9563412681454793e-05,2.1267122065182775e-05,4.914892997476272e-06,-6.5161461861862335e-06,6.28449342912063e-05
-2.7573458282859065e-05,1.6960286302492023e-05,8.318567779497243e-06,-8.212949069275055e-06,6.019209831720218e-05
-2.6715206331573427e-05,1.2424929991539102e-05,1.0448788998473901e-05,-1.2941231034346856e-05,5.5918677389854565e-05
-2.5258204914280213e-05,1.536678428237792e-05,1.1076206646976061e-05,-1.718043495202437e-05,5.321453500073403e-05
-2.2436979634221643e-05,2.603590655780863e-05,1.2265895747987088e-05,-1.7291005860897712e-05,5.265855725156143e-05
-1.846037048380822e-05,3.8075926568126306e-05,1.0711087270465214e-05,-1.2684074135904666e-05,5.255965515971184e-05
-1.6824356862343848e-05,4.6290657337522134e-05,5.656282610289054e-06,-5.319587216945365e-06,5.1344170060474426e-05
-1.400311703037005e-05,4.9175770982401446e-05,1.4982322227297118e-06,-3.7721813441748964e-06,4.9312857299810275e-05
-1.0370175914431456e-05,4.498177077039145e-05,3.271110927016707e-06,-7.1239132921618875e-06,4.9144473450724036e-05
-8.49453681439627e-06,4.196617010165937e-05,4.708573669631733e-06,-1.0145368833036628e-05,5.3781925089424476e-05
-1.2322647307883017e-05,4.596902726916596e-05,2.1639402802975383e-06,-1.0879730325541459e-05,5.9897331084357575e-05
-1.709587377263233e-05,5.054188295616768e-05,4.3722156988224015e-06,-9.617589057597797e-06,6.408994522644207e-05
-1.347255238215439e-05,4.515608452493325e-05,8.592477570346091e-06,-6.978011242608773e-06,6.7948414653074e-05
-1.5565001376671717e-05,2.9871776860090904e-05,9.158353350358084e-06,-7.426908268826082e-06,7.143391121644527e-05
-2.75447491731029e-05,2.8825939807575196e-05,3.675754385312757e-07,-1.4284968528954778e-05,7.443730282830074e-05
-3.324133649584837e-05,4.4934640754945576e-05,-1.4058660781302024e-05,-2.0229634174029343e-05,7.604585698572919e-05
-3.040676710952539e-05,5.4978212574496865e-05,-2.0350824343040586e-05,-1.437943683413323e-05,7.276263931998983e-05
-2.5836114218691364e-05,5.0669474148890004e-05,-1.774166594259441e-05,-3.012606839547516e-06,6.836670218035579e-05
-1.6979442079900764e-05,3.533605195116252e-05,-9.576470802130643e-06,3.0703488391736755e-06,6.33314048172906e-05
-7.013950835244032e-06,1.6579093426116742e-05,-8.170659953066206e-07,-1.2793793757737149e-06,5.8568835811456665e-05
-5.645319106406532e-06,4.82845825899858e-06,7.81879589339951e-06,-8.785000318312086e-06,5.572418012889102e-05
-1.3004926586290821e-05,5.156682618689956e-06,1.7322860003332607e-05,-1.009612333291443e-05,5.563472586800344e-05
-2.0017094357172027e-05,1.1899336641363334e-05,2.4283106540679e-05,-1.2553992746688891e-05,5.617147689918056e-05
-2.713023241085466e-05,2.192197644035332e-05,3.085638309130445e-05,-1.8825316146831028e-05,5.5963035265449435e-05
-4.5316828618524596e-05,2.985407081723679e-05,3.784155342145823e-05,-2.3937527657835744e-05,5.849994704476558e-05
-6.622762884944677e-05,3.8803413190180436e-05,4.2200648749712855e-05,-2.478616988810245e-05,6.13009906373918e-05
-7.262388680828735e-05,5.521505590877496e-05,4.2172614485025406e-05,-2.469228820700664e-05,6.16340184933506e-05
-6.240743823582307e-05,6.95628477842547e-05,3.9027301681926474e-05,-2.61669592873659e-05,6.152800779091194e-05
-4.687063119490631e-05,5.8633857406675816e-05,3.467185524641536e-05,-2.5085373636102304e-05,6.197703623911366e-05
-3.521259350236505e-05,2.5981718863477e-05,3.169886986142956e-05,-1.897857873700559e-05,6.112357368692756e-05
-3.079535235883668e-05,2.5098579499172047e-06,3.001057484652847e-05,-1.5846128007979132e-05,5.93228978686966e-05
-3.3866446756292135e-05,7.163338977989042e-06,2.578616295068059e-05,-1.8086597265210003e-05,5.5756921938154846e-05
-3.7050100218039006e-05,2.9993068892508745e-05,1.9372388123883866e-05,-1.9826728021143936e-05,5.018740557716228e-05
-3.065242344746366e-05,4.896869359072298e-05,1.5094942682480905e-05,-1.8137483493774198e-05,4.6976711018942297e-05
-1.3947329534858e-05,5.344358578440733e-05,1.5979798263288103e-05,-1.6268782928818837e-05,5.0410959374858066e-05
-2.7157270778843667e-06,4.627015005098656e-05,2.108764965669252e-05,-1.611485640751198e-05,5.819347279611975e-05
-6.867700449220138e-06,3.681521047838032e-05,1.940376023412682e-05,-1.7783684597816318e-05,6.358909740811214e-05
-1.5100807104317937e-05,3.0895746021997184e-05,9.861834769253619e-06,-2.1717112758778967e-05,6.140518962638453e-05
-1.9713135770871304e-05,3.467207352514379e-05,1.9705482827703236e-06,-1.8858125258702785e-05,5.62587047170382e-05
-1.9017512386199087e-05,3.830782952718437e-05,-3.1490965284319827e-06,-9.738212611409836e-06,5.4623069445369765e-05
-1.986192728509195e-05,3.762492269743234e-05,-7.907668987172656e-06,-5.674406111211283e-06,5.1053499191766605e-05
-2.8750811907229945e-05,3.785207081818953e-05,-1.1096362868556753e-05,-4.301671197026735e-06,4.5458669774234295e-05
-3.381123678991571e-05,3.6353372706798837e-05,-8.85817553353263e-06,-1.029727172863204e-06,4.6298639063024893e-05
-3.276276765973307e-05,3.4024284104816616e-05,-3.8354669413820375e-06,4.028887360618683e-06,4.9054786359192804e-05
-2.738574221439194e-05,3.446614573476836e-05,-4.0067261579679325e-06,1.1084882316936273e-05,4.81176030007191e-05
-2.161908196285367e-05,3.6307577829575166e-05,-9.985853466787376e-06,1.1274863027210813e-05,4.7724650357849896e-05
-2.5308150725322776e-05,3.7340560083976015e-05,-1.28181873151334e-05,3.4169299851782853e-06,5.02905277244281e-05
-3.141865090583451e-05,3.736099097295664e-05,-1.1891919712070376e-05,-6.525852427330392e-07,4.8647540097590536e-05
-3.374437437742017e-05,3.452970486250706e-05,-1.1385625839466229e-05,2.5384231321368134e-06,4.53249886049889e-05
-3.411693251109682e-05,2.977437907247804e-05,-1.2036196494591422e-05,2.7127191515319282e-06,4.577853178489022e-05
-3.0761686502955854e-05,2.9802369681419805e-05,-1.0543797543505207e-05,-3.7133527257537935e-06,4.6294157073134556e-05
-2.697688978514634e-05,2.8901611585752107e-05,-8.190944754460361e-06,-1.0722661500039976e-05,4.671858187066391e-05
-2.468520324327983e-05,2.4736873456276953e-05,-6.967932222323725e-06,-1.761566090863198e-05,4.647433161153458e-05
-1.9457651433185674e-05,2.167360253224615e-05,-5.137656899023568e-06,-2.3077509467839263e-05,4.4714746763929725e-05
-1.6009702449082397e-05,2.3813117877580225e-05,-3.703495849549654e-06,-2.4137369109666906e-05,4.507821358856745e-05
-1.9309834897285327e-05,3.174477024003863e-05,-9.667741096563987e-07,-2.1599287720164284e-05,5.091577986604534e-05
-2.344910171814263e-05,4.1151619370793924e-05,3.2723494314268464e-06,-1.8815382645698264e-05,5.848599175806157e-05
-2.5863548216875643e-05,4.570285091176629e-05,7.2532170634076465e-06,-1.4476852811640128e-05,6.177733303047717e-05
-2.7347516152076423e-05,4.164574056630954e-05,7.738520253042225e-06,-5.910304935241584e-06,5.864566992386244e-05
-2.7113561372971162e-05,3.118310996796936e-05,5.522160790860653e-06,2.5842598461167654e-06,5.5633034207858145e-05
-2.488958853064105e-05,1.762058491294738e-05,3.2965738228085684e-06,1.739301751513267e-06,5.723480353481136e-05
-2.259575921925716e-05,1.0017053682531696e-05,4.372253897599876e-06,-6.517982001241762e-06,5.8650155551731586e-05
-1.9209825040888973e-05,1.8524700863054022e-05,7.549501788162161e-06,-7.3460241765133105e-06,5.480599429574795e-05
-1.5215813618851826e-05,3.097200533375144e-05,8.676337529323064e-06,-6.992029852881387e-07,4.8296049499185756e-05
-8.747854735702276e-06,3.4496912121539935e-05,6.572887286893092e-06,2.925023181887809e-06,4.756159250973724e-05
-2.9916413950559217e-06,3.890524021699093e-05,3.927720626961673e-06,3.131028051939211e-06,5.3565057896776125e-05
-3.570969056454487e-06,4.921380605082959e-05,4.899182385997847e-06,3.04415266327851e-06,5.6934957683552057e-05
-1.0357975043007173e-05,5.287847307045013e-05,6.706305612169672e-06,4.990969273421797e-07,5.499726830748841e-05
-2.4647446480230428e-05,2.950810630863998e-05,6.151861725811614e-06,-4.4370335672283545e-06,5.161377339391038e-05
-4.015370359411463e-05,-1.5568821254419163e-05,5.115102794661652e-06,-6.037701041350374e-06,4.86557291878853e-05
-5.2999439503764734e-05,-3.217952689738013e-05,2.35067204812367e-06,-3.5976806884718826e-06,4.951627124683e-05
-6.163426587590948e-05,-3.351707846377394e-06,-4.3504280711204046e-07,-5.313940164342057e-06,5.235922071733512e-05
-6.196107278810814e-05,2.6990002879756503e-05,-1.5906798580545e-06,-1.0324401955585927e-05,5.2708714065374807e-05
-5.435793718788773e-05,3.6264973459765315e-05,-1.2395689736877102e-06,-1.2912954844068736e-05,5.550196874537505e-05
-4.5234621211420745e-05,2.7201223929296248e-05,-2.1595616317426902e-07,-1.218957913806662e-05,5.972219514660537e-05
-3.750180621864274e-05,1.0621092769724783e-05,-2.207139459642349e-06,-8.831891136651393e-06,5.947559475316666e-05
-3.5538214433472604e-05,-1.3043855688010808e-05,-3.4316817618673667e-06,-5.932738986302866e-06,5.784330642200075e-05
-4.0270744648296386e-05,-3.272158210165799e-05,-6.007338015479036e-06,-3.759065066333278e-06,5.6656634114915505e-05
-4.73992113256827e-05,-4.3180352804483846e-05,-1.0559358997852542e-05,-5.641359621222364e-06,5.5644493841100484e-05
-4.7038058255566284e-05,-4.693172741099261e-05,-1.3615243915410247e-05,-7.205072051874595e-06,5.6777207646518946e-05
-3.354578802827746e-05,-4.166617145529017e-05,-1.4457592442340683e-05,-5.305467766447691e-06,5.857443466084078e-05
-1.521094782219734e-05,-2.5060171537916176e-05,-1.2921941561216954e-05,-3.5298722877996624e-07,5.921546835452318e-05
-3.1220965865941253e-06,-2.9795480713801226e-06,-7.806094799889252e-06,3.9864430618763436e-06,5.8742585679283366e-05
-4.6056575229158625e-06,1.8247965272166766e-05,-4.211958781752401e-08,2.125577793776756e-06,5.889998283237219e-05
-1.7155276509583928e-05,3.947625373257324e-05,5.480842446559109e-06,-6.480082902271533e-06,6.137668242445216e-05
-2.9712749892496504e-05,5.767876064055599e-05,7.416516837110976e-06,-1.3217330888437573e-05,6.352170021273196e-05
-2.9707020075875334e-05,7.481059583369642e-05,8.960128070611972e-06,-1.0656512131390627e-05,6.540059257531539e-05
-2.0344539734651335e-05,9.043204045156017e-05,1.0553737411100883e-05,-7.327962066483451e-06,6.605960516026244e-05
-1.1780550266848877e-05,9.8916505521629e-05,1.2481971680244897e-05,-1.205319040309405e-05,6.44401807221584e-05
-5.583449365076376e-06,9.954794950317591e-05,1.6888458048924804e-05,-1.8044809621642344e-05,6.25245738774538e-05
6.187409553604084e-07,9.773397323442623e-05,2.20599613385275e-05,-1.7724581994116306e-05,6.102327461121604e-05
7.767197530483827e-06,8.756569150136784e-05,2.2008878659107722e-05,-1.681618596194312e-05,6.006990952300839e-05
1.661201167735271e-05,7.464270311174914e-05,1.553573201817926e-05,-1.4363484297064133e-05,5.99299200985115e-05
2.0642293748096563e-05,6.338058301480487e-05,9.983428753912449e-06,-1.1235882993787527e-05,6.143905920907855e-05
1.4092585843172856e-05,5.414578481577337e-05,1.5458697816939093e-05,-1.0628367817844264e-05,6.454514368670061e-05
-3.5449299957690528e-06,4.468438419280574e-05,2.996155853907112e-05,-1.0553417268965859e-05,6.499933078885078e-05
-2.3794505978003144e-05,3.728629963006824e-05,3.223557723686099e-05,-7.517549875046825e-06,6.240013317437842e-05
-3.215828110114671e-05,3.069365266128443e-05,2.8022197511745617e-05,-6.508871592814103e-06,5.8228717534802854e-05
-2.961141217383556e-05,1.9632114344858564e-05,3.0809220334049314e-05,-9.464250069868285e-06,5.858295480720699e-05
-2.6440238798386417e-05,2.4241680876002647e-06,3.006724000442773e-05,-1.2907061318401247e-05,6.430283247027546e-05
-2.8370095606078394e-05,-1.4908040611771867e-05,2.1339177692425437e-05,-1.4415360965358559e-05,6.790353654650971e-05
-3.230569927836768e-05,-1.2869057172792964e-05,1.3748969649896026e-05,-1.5669764252379537e-05,6.963924533920363e-05
-3.066479985136539e-05,5.11409098180593e-06,9.742548172653187e-06,-1.815239738789387e-05,6.913231482030824e-05
-2.5763711164472625e-05,1.9722396245924756e-05,7.589811048092088e-06,-1.8747041394817643e-05,6.678088539047167e-05
-2.2635880668531172e-05,2.345312350371387e-05,7.315474704228109e-06,-1.4245385500544216e-05,6.380752893164754e-05
-2.504160329408478e-05,1.5893678209977224e-05,7.299348453670973e-06,-5.199833594815573e-06,6.350100738927722e-05
-2.974110066134017e-05,5.593678451987216e-06,7.827838999219239e-06,3.4029253583867103e-06,6.500884774141014e-05
-2.9838985938113183e-05,1.3627980024466524e-06,7.4765694080269895e-06,7.846695552871097e-06,6.418237899197266e-05
-2.5637178623583168e-05,8.843378054734785e-06,7.002944130363176e-06,2.5641465981607325e-06,5.962411887594499e-05
-1.8611350242281333e-05,2.0637900888687e-05,7.443146387231536e-06,-7.70174665376544e-06,5.2484392654150724e-05
-1.3096621842123568e-05,2.6619631171342917e-05,9.302473699790426e-06,-1.4862712305330206e-05,4.759292278322391e-05
-1.2084495210729074e-05,2.5598370484658517e-05,8.455373063043226e-06,-1.6643469280097634e-05,4.859028194914572e-05
-1.4985479538154323e-05,2.304223926330451e-05,4.138865278946469e-06,-1.7004324035951868e-05,5.176710328669287e-05
-1.7429505533073097e-05,2.341742583666928e-05,-1.188256760542572e-06,-2.0528683307929896e-05,5.435465573100373e-05
-1.8278944480698556e-05,2.68617022811668e-05,-2.7276785203866893e-06,-2.7882821086677723e-05,5.518972466234118e-05
-1.859619078459218e-05,3.026347803825047e-05,2.5996566819230793e-06,-3.218350684619509e-05,5.31771729583852e-05
-2.09052195714321e-05,3.0407514714170247e-05,9.680499715614133e-06,-3.005421967827715e-05,5.224523920333013e-05
-2.1774054403067566e-05,3.156157981720753e-05,1.053499090630794e-05,-2.628161928441841e-05,5.266731750452891e-05
-2.2863127014716156e-05,3.1970641430234537e-05,4.579731921694474e-06,-2.566290640970692e-05,5.170093209017068e-05
-3.134921280434355e-05,3.295681381132454e-05,1.271524325829887e-07,-2.2956624889047816e-05,5.23196067661047e-05
-3.5595418012235314e-05,3.7180481740506366e-05,2.503783491647482e-07,-1.99732712644618e-05,5.7922319683711976e-05
-3.49588408425916e-05,4.357895886641927e-05,1.0389067028881982e-06,-2.6516905563767068e-05,6.257467612158507e-05
-3.6060151614947245e-05,4.775368142873049e-05,9.7434656254336e-07,-2.7773230613092892e-05,5.950015111011453e-05
-3.525800275383517e-05,4.3800639105029404e-05,4.869424969911051e-07,-2.3653106836718507e-05,5.755920574301854e-05
-3.5785240470431745e-05,3.7054040149087086e-05,1.5572766187688103e-06,-2.4301134544657543e-05,6.012353333062492e-05
-3.9824113628128543e-05,3.765755900531076e-05,4.577598247124115e-06,-2.17978231376037e-05,5.9417874581413344e-05
-4.305973561713472e-05,3.925010241800919e-05,5.09086294187e-06,-2.014361416513566e-05,5.825390690006316e-05
-3.54623407474719e-05,3.6624158383347094e-05,4.988839009456569e-06,-2.1504491087398492e-05,5.873861300642602e-05
-2.2796246412326582e-05,3.132041820208542e-05,5.074527052784106e-06,-2.0847033738391474e-05,6.0113350627943873e-05
-2.062568637484219e-05,2.4293753085657954e-05,6.279154604271753e-06,-2.262174166389741e-05,5.909425453864969e-05
-2.495888838893734e-05,1.6903995856409892e-05,8.39598669699626e-06,-2.3362563297268935e-05,5.796644472866319e-05
-2.551999750721734e-05,1.6922258510021493e-05,9.040296390594449e-06,-1.8678651031223126e-05,5.600654549198225e-05
-2.1011897842981853e-05,1.9833036276395433e-05,9.262894309358671e-06,-1.5083301150298212e-05,5.644706106977537e-05
-1.7156024114228785e-05,2.0933688574586995e-05,8.883179361873772e-06,-1.7955315342987888e-05,5.974267332931049e-05
-1.7657983335084282e-05,2.344697350054048e-05,7.90392641647486e-06,-2.125871105818078e-05,6.326788570731878e-05
-1.872038956207689e-05,2.69853844656609e-05,7.5392567850940395e-06,-2.037573176494334e-05,6.645612302236259e-05
-1.9426082872087136e-05,2.7063002562499605e-05,8.543538569938391e-06,-1.6641397451166995e-05,6.528806989081204e-05
-1.928819801833015e-05,2.343818596273195e-05,1.022001561068464e-05,-1.189570230053505e-05,6.173833389766514e-05
-1.860694283095654e-05,2.0322846467024647e-05,9.778958883543964e-06,-6.494499757536687e-06,5.997280095471069e-05
-2.1649242626153864e-05,1.8451057258062065e-05,5.826623691973509e-06,-4.626926966011524e-06,5.9563026297837496e-05
-2.9368098694249056e-05,1.8869581253966317e-05,8.93022331638349e-07,-7.182259196270024e-06,5.748982584918849e-05
-3.473608012427576e-05,2.063545434793923e-05,-3.1494730592385167e-06,-8.184848411474377e-06,5.6701042922213674e-05
-3.379051122465171e-05,2.507131102902349e-05,-6.809827027609572e-06,-5.917583166592522e-06,5.849795343237929e-05
-2.8885624487884343e-05,3.11937001242768e-05,-9.939859410224017e-06,-2.395039018665557e-06,6.1020702560199425e-05
-2.611879972391762e-05,3.3037260436685756e-05,-9.905056685965974e-06,-1.8097963447871734e-06,6.026768096489832e-05
-2.767185287666507e-05,2.8451204343582503e-05,-6.562966973433504e-06,-2.570900278442423e-06,5.7352073781657964e-05
-2.9653760066139512e-05,2.362113445997238e-05,-5.736534149036743e-06,1.5884630499840569e-07,5.494794822880067e-05
-2.8596130505320616e-05,2.0823617887799628e-05,-7.585267667309381e-06,5.340767074812902e-06,5.6679298722883686e-05
-2.162852069886867e-05,1.7060627214959823e-05,-7.212716354842996e-06,5.390104888647329e-06,5.989985220367089e-05
-1.4414529687201139e-05,1.076265107258223e-05,-2.0308327748352895e-06,2.443520315864589e-06,6.0536702221725136e-05
-1.349716512777377e-05,1.5353585695265792e-05,7.084520348143997e-08,5.0829065401103435e-08,5.839996811118908e-05
-2.0165629393886775e-05,2.7335921913618222e-05,-4.463360880890832e-07,-2.950784391941852e-06,5.8414399973116815e-05
-2.7353971745469607e-05,3.235189069528133e-05,2.13114321923058e-06,-3.742383114513359e-06,6.230100552784279e-05
-3.1977710023056716e-05,3.0469991543213837e-05,4.000833996542497e-06,-5.075455192127265e-06,6.576137820957229e-05
-3.370749982423149e-05,2.52730242209509e-05,5.635531124426052e-06,-5.013957888877485e-06,6.634418969042599e-05
-3.347007805132307e-05,3.080584428971633e-05,5.151471214048797e-06,-1.379986088068108e-06,6.444906466640532e-05
-3.252109672757797e-05,4.36990121670533e-05,5.4940733207331505e-06,-2.249665840281523e-06,6.182363722473383e-05
-2.9627723051817156e-05,4.282786539988592e-05,6.943295375094749e-06,-5.7432721405348275e-06,5.7604655012255535e-05
-2.285178743477445e-05,3.140160333714448e-05,7.197854301921325e-06,-6.687915629299823e-06,5.082963252789341e-05
-1.9928675101255067e-05,2.424914055154659e-05,5.38856647835928e-06,-6.8830172494926956e-06,4.569626253214665e-05
-2.039554965449497e-05,2.407194915576838e-05,5.362664524000138e-06,-6.926577952981461e-06,4.712658119387925e-05
-1.97488370758947e-05,2.1313948309398256e-05,7.3975284067273606e-06,-3.7738138871645788e-06,5.347888873075135e-05
-1.7591997675481252e-05,1.0588276381895412e-05,7.5894995461567305e-06,-2.6622137738741003e-06,6.199461495270953e-05
-1.5224024537019432e-05,6.072951350688527e-07,7.064093551889528e-06,-7.016061772446847e-06,6.754422065569088e-05
-1.6728688933653757e-05,2.866111344701494e-06,7.809087037458085e-06,-1.0087148439197335e-05,6.898960418766364e-05
-1.9521974536473863e-05,1.3185548596084118e-05,7.375605036941124e-06,-1.0397415280749556e-05,6.875862163724378e-05
-2.0405423128977418e-05,1.734106263029389e-05,4.471444299269933e-06,-1.3303512787388172e-05,6.577275780728087e-05
-1.7083975762943737e-05,8.065940164669883e-06,4.243283456162317e-06,-1.809505010896828e-05,6.024094909662381e-05
-1.1585813808778767e-05,-1.500785492680734e-05,6.4580049183859956e-06,-1.9013992641703226e-05,5.96070931351278e-05
-7.211506726889638e-06,-4.136812640354037e-05,9.457336091145407e-06,-1.7695096175884828e-05,6.339473475236446e-05
-3.2121245112648467e-06,-4.440742850420065e-05,1.0765153092506807e-05,-1.799622805265244e-05,6.611385470023379e-05
1.267283437300648e-06,-1.7488011508248746e-05,7.762323548377026e-06,-1.8508957509766333e-05,6.63934915792197e-05
5.503947591023461e-07,1.0346781891712453e-05,2.1320900032151258e-06,-1.9460936528048478e-05,6.43957027932629e-05
-2.5514500521239825e-06,2.951042006316129e-05,-1.6296738749588258e-06,-1.9204195268684998e-05,6.68964785290882e-05
-2.507040790078463e-06,5.5693613830953836e-05,-2.636937551869778e-06,-1.6786580090411007e-05,7.286223262781277e-05
-2.539939259804669e-06,8.569222700316459e-05,2.266697720187949e-06,-1.646817327127792e-05,7.314696995308623e-05
-2.2942163923289627e-05,0.00010131905582966283,9.9767348729074e-06,-1.528804568806663e-05,6.79952499922365e-05
-4.96157917950768e-05,9.763347770785913e-05,1.21594566735439e-05,-1.1907543012057431e-05,6.648265843978152e-05
-5.863503974978812e-05,8.694434654898942e-05,1.0895179912040476e-05,-9.006551408674568e-06,6.815911183366552e-05
-5.8750607422553e-05,7.707941404078156e-05,1.32642317112186e-05,-1.1236656064284034e-05,6.625918467761949e-05
-5.603431782219559e-05,6.0228670918149874e-05,1.6392817997257225e-05,-1.268276810151292e-05,6.149729597382247e-05
-5.528685142053291e-05,3.575914888642728e-05,1.5088950931385625e-05,-8.640198757348116e-06,5.9275997045915574e-05
-5.3914132877252996e-05,1.1329565495543648e-05,9.395751476404257e-06,-4.7882958824629895e-06,6.076717545511201e-05
-4.622639244189486e-05,-5.585837698163232e-06,2.4381988623645157e-06,-5.705243893316947e-06,6.1659055063501e-05
-3.902897879015654e-05,-1.5536528735538013e-05,7.16650561116694e-08,-7.726897820248269e-06,6.160168413771316e-05
-3.7915939174126834e-05,-1.2845456694776658e-05,1.190345187751518e-06,-7.334094789257506e-06,6.213010783540085e-05
-4.167253428022377e-05,3.0859284834150458e-06,3.48913567904674e-06,-7.89289697422646e-06,6.488625513156876e-05
-4.60151131846942e-05,2.052487980108708e-05,4.062326752318768e-06,-8.979678568721283e-06,6.54174291412346e-05
-4.529185753199272e-05,3.9211106923175976e-05,7.478626571355562e-07,-1.1925711078220047e-05,6.191153079271317e-05
-4.416276715346612e-05,6.434606621041894e-05,-3.6236044707038673e-06,-1.5640836863894947e-05,5.770497227786109e-05
-4.402920967550017e-05,8.958968828665093e-05,-3.637604777395609e-06,-1.8692559024202637e-05,5.51473640371114e-05
-3.9422011468559504e-05,0.00010182923142565414,-2.377913261852882e-07,-1.8048909623757936e-05,5.2809300541412085e-05
-3.1355786632047966e-05,9.698169014882296e-05,-1.1405673205899802e-07,-1.4472309885604773e-05,5.201269959798083e-05
-3.0193421480362304e-05,7.995033956831321e-05,-1.4117625823928392e-06,-1.1608301065280102e-05,5.29281169292517e-05
-3.664650648715906e-05,6.565840885741636e-05,-2.2157077239626233e-07,-1.0461006240802817e-05,5.3321407904149964e-05
-4.165336940786801e-05,6.0634247347479686e-05,2.1646769710059743e-06,-8.372788215638138e-06,5.369172140490264e-05
-4.239851114107296e-05,5.617977149086073e-05,2.749193072304479e-06,-6.078027126932284e-06,5.4699910833733156e-05
-4.115243427804671e-05,4.6319852117449045e-05,1.3095929034534493e-06,-7.660157280042768e-06,5.623945253319107e-05
-4.107480708626099e-05,3.752142583834939e-05,-6.419166425075673e-07,-1.1070595974160824e-05,5.590627188212238e-05
-3.578185351216234e-05,3.0129693186609074e-05,-1.3113573231748887e-06,-1.1978716429439373e-05,5.6746885093161836e-05
-2.4435863451799378e-05,2.276359373354353e-05,-4.081793747445772e-07,-8.049094503803644e-06,5.9858190070372075e-05
-2.321351166756358e-05,2.1672070943168364e-05,2.1922667201579316e-06,-1.494090724918351e-06,6.0602764278883114e-05
-3.12373558699619e-05,2.288325413246639e-05,4.978774995834101e-06,3.4910996760117996e-07,5.5902215535752475e-05
-3.5885688703274354e-05,2.2493351934826933e-05,9.966836842068005e-06,-1.4469940197159303e-06,5.438483276520856e-05
-3.7064961361465976e-05,2.2766191250411794e-05,1.6097603293019347e-05,-4.849924607697176e-06,5.527194662136026e-05
-3.65731175406836e-05,2.55266459134873e-05,1.6811834939289838e-05,-7.86481086834101e-06,5.566428444581106e-05
-3.530550384311937e-05,2.6238920327159576e-05,1.4177878256305121e-05,-4.6531167754437774e-06,5.427227733889595e-05
-3.652138912002556e-05,2.6783091016113758e-05,9.011472684505861e-06,-3.1603656225343e-06,5.023483754484914e-05
-3.633407686720602e-05,2.486122139089275e-05,6.520958777400665e-06,-7.975138032634277e-06,4.8806115955812857e-05
-3.0830145988147706e-05,2.119959390256554e-05,4.723043275589589e-06,-1.2326895557634998e-05,4.9549027608009055e-05
-2.3333795979851857e-05,2.1954496332909912e-05,2.131372411895427e-06,-1.318488284596242e-05,5.163935566088185e-05
-1.9236142179579474e-05,2.0750265321112238e-05,3.4296169815206667e-06,-1.316682573815342e-05,5.215712371864356e-05
-1.7167460100608878e-05,1.889169834612403e-05,7.812389412720222e-06,-9.909134860208724e-06,5.415336272562854e-05
-1.6170499293366447e-05,1.563978185004089e-05,9.160527042695321e-06,-8.775781680014916e-06,5.60006192245055e-05
-1.8608820028021e-05,1.5514615370193496e-05,1.707993988020462e-06,-1.0616065083013382e-05,5.5496511777164415e-05
-2.1386824300861917e-05,1.8370445104665123e-05,-6.535478405567119e-06,-1.0012224265665282e-05,5.53919053345453e-05
-2.6415546017233282e-05,1.9119310309179127e-05,-6.802057214372326e-06,-5.197344762564171e-06,5.721280103898607e-05
-3.499025842756964e-05,1.461658212065231e-05,1.1156211030538543e-06,-1.186902181871119e-06,5.933245120104402e-05
-4.183710916549899e-05,1.056352903106017e-05,8.950542905949987e-06,8.407807285948365e-07,6.105032662162557e-05
-4.0546608943259344e-05,1.190278180729365e-05,1.379927016387228e-05,2.5898191324813524e-06,6.323651905404404e-05
-3.0263543521868996e-05,1.4495653886115178e-05,1.686759242147673e-05,2.4406908778473735e-06,6.428061897167936e-05
-1.9437220544205047e-05,1.737075945129618e-05,1.651268576097209e-05,1.2885730029665865e-06,6.461853627115488e-05
-1.8674070815904997e-05,2.188375947298482e-05,1.1035302122763824e-05,1.4882124332871172e-07,6.396209937520325e-05
-2.770610990410205e-05,2.4594375645392574e-05,6.166035745991394e-06,-1.245721364284691e-06,6.318661326076835e-05
-3.285241109551862e-05,2.1103158360347152e-05,7.2000384534476325e-06,-3.3151450224977452e-06,6.216920155566186e-05
-3.139198452117853e-05,1.9765944671235047e-05,8.657227226649411e-06,-3.993351583631011e-06,6.183960795169696e-05
-3.132926212856546e-05,2.25845960812876e-05,6.2437807173409965e-06,-3.6329076920083025e-06,6.0717557062162086e-05
-3.304783967905678e-05,2.884309105866123e-05,3.2638404263707343e-06,-5.187541773921112e-06,5.915076326346025e-05
-3.210562135791406e-05,3.184146771673113e-05,1.6672182709953631e-06,-5.9806393437611405e-06,5.947364115854725e-05
-2.7669095288729295e-05,2.8205826311022975e-05,3.555839384716819e-06,-2.9823208933521528e-06,6.124545325292274e-05
-2.99744751828257e-05,2.7558258807403035e-05,7.017577900114702e-06,-3.909113729605451e-06,6.044153269613162e-05
-3.160292180837132e-05,2.8960534109501168e-05,3.7583624816761585e-06,-6.349061095534125e-06,5.785955363535322e-05
-2.2353306121658534e-05,2.9016222470090725e-05,-3.7873371638852404e-07,-4.523975349002285e-06,5.6656645028851926e-05
-1.304902252741158e-05,3.062160612898879e-05,1.3883980045648059e-06,-1.5870290326347458e-07,5.653615153278224e-05
-7.4365402724652085e-06,3.140957414871082e-05,3.475961193544208e-06,-1.6296504554702551e-06,5.930326733505353e-05
-9.222876542480662e-06,2.994400892930571e-05,3.1602155559085077e-06,-5.155267899681348e-06,6.167319224914536e-05
-1.706645889498759e-05,2.9905917472206056e-05,4.814491148863453e-06,-7.665295925107785e-06,5.785276152892038e-05
-1.8710998119786382e-05,3.1430779927177355e-05,7.571461992483819e-06,-1.1909395652764942e-05,5.193104880163446e-05
-1.6383572074119e-05,2.7571359169087373e-05,6.177780505822739e-06,-1.7575881429365836e-05,5.099731424706988e-05
-1.0820768693520222e-05,2.0803050574613735e-05,1.085862095351331e-06,-2.108634726027958e-05,5.3679275879403576e-05
-5.164426966075553e-06,1.5338780940510333e-05,-2.308190914845909e-06,-2.1762169126304798e-05,5.640503150061704e-05
-5.316806891642045e-06,1.2550556675705593e-05,-6.279864805947e-07,-2.0863224563072436e-05,5.617305214400403e-05
-9.241719453711994e-06,1.239606262970483e-05,4.445233571459539e-06,-2.1306437702151015e-05,5.571585279540159e-05
-1.4648765500169247e-05,1.4717566045874264e-05,1.0192426088906359e-05,-2.4160442990250885e-05,5.740583947044797e-05
-1.9536088075255975e-05,2.1207990357652307e-05,1.5954734408296645e-05,-2.5207900762325153e-05,5.767174661741592e-05
-2.289324220328126e-05,3.206857218174264e-05,1.6518541087862104e-05,-2.496811794117093e-05,5.4918884416110814e-05
-2.6486284696147777e-05,3.956004366045818e-05,8.319699190906249e-06,-2.1220053895376623e-05,5.4173484386410564e-05
-3.161970744258724e-05,3.623421798693016e-05,2.5105799750235747e-07,-1.5050478396005929e-05,5.619841977022588e-05
-3.261793244746514e-05,2.8304524676059373e-05,6.780342687306984e-08,-1.0199564712820575e-05,5.8138590247835964e-05
-2.449051316943951e-05,2.4185050278902054e-05,1.906983925437089e-06,-8.324995178554673e-06,6.031348675605841e-05
-9.553930794936605e-06,2.047242014668882e-05,4.235806045471691e-06,-8.363042979908641e-06,6.18119738646783e-05
-4.815188731299713e-06,1.0693896911107004e-05,6.723819296894362e-06,-9.737698746903334e-06,6.279258377617225e-05
-1.1636487215582747e-05,-7.033312954263238e-08,8.329305273946375e-06,-1.1320751582388766e-05,6.186821701703593e-05
-1.702094596112147e-05,-6.289627890510019e-06,1.341378901997814e-05,-9.300555575464386e-06,5.960385169601068e-05
-1.7922457118402235e-05,-1.0528520760999527e-05,2.0644833057303913e-05,-4.188132606941508e-06,6.0215148550923914e-05
-1.5433186490554363e-05,-1.0262355317536276e-05,2.7529542421689257e-05,-1.9714952941285446e-06,6.263003888307139e-05
-1.544698898214847e-05,-1.1746277550628292e-06,2.9086877475492656e-05,-2.3774935016263044e-06,5.946220699115656e-05
-2.754660090431571e-05,1.5023395462776534e-05,2.437690636725165e-05,-4.6553673200833146e-06,5.010668974136934e-05
-4.885940870735794e-05,3.956850923714228e-05,1.7569705960340798e-05,-4.7539824663545005e-06,4.8141966544790193e-05
-6.0922320699319243e-05,5.971345308353193e-05,1.4513006135530304e-05,-5.9671133385563735e-06,5.5536951549584046e-05
-5.763907029177062e-05,6.525537901325151e-05,1.4542093595082406e-05,-6.61847570881946e-06,6.124000356066972e-05
-4.884261579718441e-05,5.695351865142584e-05,1.4100238331593573e-05,-4.205581262795022e-06,6.34699099464342e-05
-4.4838834583060816e-05,4.319748404668644e-05,1.2508642612374388e-05,-4.5989568207005505e-06,6.309914169833064e-05
-4.127865395275876e-05,3.89991000702139e-05,8.413534487772267e-06,-8.050793439906556e-06,6.246360135264695e-05
-3.536839722073637e-05,4.2346990085206926e-05,3.5223342820245307e-06,-1.3633510207000654e-05,6.313061021501198e-05
-3.2012925657909364e-05,4.34194844274316e-05,8.564962428181389e-08,-2.0390689314808697e-05,6.507401849376038e-05
-2.762858639471233e-05,4.2152674723183736e-05,-4.3686071649062796e-07,-2.4884986487450078e-05,6.623914669035003e-05
-2.4069053324637935e-05,4.0147806430468336e-05,1.633310830584378e-06,-2.432428846077528e-05,6.297193613136187e-05
-2.070362097583711e-05,3.7569814594462514e-05,5.326501195668243e-06,-2.0961097106919624e-05,5.9000532928621396e-05
-1.5952902685967274e-05,3.779916005441919e-05,6.866389412607532e-06,-1.6809175576781854e-05,5.855481867911294e-05
-9.428085832041688e-06,4.162140976404771e-05,5.981775757391006e-06,-1.4377063962456305e-05,6.2089558923617e-05
-7.121771432139212e-06,4.290872311685234e-05,6.147947715362534e-06,-1.2198554941278417e-05,6.557143933605403e-05
-1.321086074312916e-05,4.099317447980866e-05,9.323955964646302e-06,-9.788968782231677e-06,6.505223427666351e-05
-2.2350690414896235e-05,3.7673686165362597e-05,9.805582521948963e-06,-9.935041816788726e-06,6.241103255888447e-05
-2.7382544431020506e-05,3.4492721169954166e-05,3.42578914569458e-06,-1.2455771866370924e-05,5.870287714060396e-05
-2.735748785198666e-05,3.38350837409962e-05,-3.165600674037705e-06,-1.2778876225638669e-05,5.689244790119119e-05
-2.6059886295115575e-05,3.191452196915634e-05,-4.7975722736737225e-06,-8.342944965988863e-06,5.990481440676376e-05
-2.556523213570472e-05,2.552389560150914e-05,-1.7949972743735998e-06,-1.7079112240026006e-06,6.393848889274523e-05
-2.646327266120352e-05,2.2450934920925647e-05,1.7299092860412202e-06,3.5932048376707826e-06,6.395592936314642e-05
-2.386832238698844e-05,2.428054722258821e-05,3.444075218794751e-06,5.2214672905392945e-06,6.20757564320229e-05
-2.1212215870036744e-05,2.3604417947353795e-05,2.7739342840504833e-06,4.456341684999643e-06,6.013746315147728e-05
-1.8126493159797974e-05,2.390626832493581e-05,-4.4555977751770115e-07,1.8366536096436903e-06,5.8958143199561164e-05
-1.6346550182788633e-05,3.1488107197219506e-05,-3.3437834190408466e-06,-1.9873739347531227e-06,6.133073475211859e-05
-2.24483464990044e-05,4.00331846321933e-05,-1.799282358661003e-06,-5.793803666165331e-06,6.401518476195633e-05
-2.5220813768100925e-05,4.136095230933279e-05,1.9074336705671158e-06,-9.1583615358104e-06,6.305816350504756e-05
-2.8105943783884868e-05,3.7911897379672155e-05,-3.7283510323504743e-07,-6.512326763186138e-06,6.115403812145814e-05
-3.476696656434797e-05,3.4735359804471955e-05,-3.5695672977453796e-06,-4.408876975503517e-06,5.977854743832722e-05
-3.445086258579977e-05,3.565461520338431e-05,-3.3400999654986663e-06,-7.271231424965663e-06,5.362481533666141e-05
-3.245772313675843e-05,4.040600106236525e-05,-2.9222958346508676e-06,-6.100141035858542e-06,5.027181759942323e-05
-3.035787449334748e-05,4.706541221821681e-05,-1.8796258700604085e-06,-1.0851910019482602e-06,5.183882240089588e-05
-2.6259440346620977e-05,6.132634007371962e-05,-5.770741040578287e-07,6.86186126586108e-07,5.189522198634222e-05
-2.4211762138293125e-05,7.916487811598927e-05,-5.190009915168048e-07,-2.5789561277633766e-06,5.448330193758011e-05
-2.7167212465428747e-05,8.206481288652867e-05,4.5700306827711756e-07,-5.614137535303598e-06,5.805913679068908e-05
-2.50783941737609e-05,6.773044151486829e-05,4.024979716632515e-06,-3.9839637793193106e-06,5.909716128371656e-05
-2.19231460505398e-05,4.3396859837230295e-05,6.564778232132085e-06,-2.3436871288140537e-06,5.6872177083278075e-05
-2.437099647067953e-05,2.250940633530263e-05,1.0551942978054285e-05,-2.3143895759858424e-06,5.5530173995066434e-05
-2.6912435714621097e-05,6.5479284785396885e-06,1.2445950233086478e-05,-4.646630259230733e-06,5.78356884943787e-05
-2.493397369107697e-05,-1.3331914487935137e-05,7.873035428929143e-06,-8.922747838369105e-06,6.275068881222978e-05
-2.0610914361895993e-05,-3.525539432303049e-05,1.9802191673079506e-06,-1.2844889170082752e-05,6.639579078182578e-05
-1.8777893274091184e-05,-4.534769323072396e-05,2.3533696094091283e-06,-1.427942424925277e-05,6.756707443855703e-05
-1.5220058230625e-05,-4.163528501521796e-05,6.2997951317811385e-06,-1.4242290490074083e-05,6.748471787432209e-05
-9.83143036137335e-06,-4.039513078168966e-05,7.309181455639191e-06,-1.387752763548633e-05,6.412561924662441e-05
-5.4259148782875855e-06,-4.6117631427478045e-05,5.862418674951186e-06,-1.3611042959382758e-05,6.1745238781441e-05
-3.0343703656399157e-06,-3.714894046424888e-05,4.247536253387807e-06,-1.514295036031399e-05,6.227411358850077e-05
-2.9069692573102657e-06,-4.287481715437025e-06,3.6986550639994675e-06,-1.5075155715749133e-05,6.137891614343971e-05
-5.81285530643072e-06,2.636755380081013e-05,3.2969433050311636e-06,-1.3516059880203102e-05,5.8799865655601025e-05
-8.355803402082529e-06,3.867306077154353e-05,1.5496516425628215e-06,-1.1103091310360469e-05,6.0016955103492364e-05
-9.588295142748393e-06,3.639600254246034e-05,-4.82657412703702e-07,-7.4743829827639274e-06,6.427802873076871e-05
-1.3088621926726773e-05,3.2754443964222446e-05,-2.126283561665332e-06,-5.264626906864578e-06,6.27798362984322e-05
-2.1187532183830626e-05,3.877064955304377e-05,-7.351154181378661e-06,-8.405922017118428e-06,5.533489093068056e-05
-3.422235022298992e-05,4.688409171649255e-05,-1.1149079909955617e-05,-1.3055841009190772e-05,5.076096567790955e-05
-5.023078483645804e-05,4.76708410133142e-05,-8.728915418032557e-06,-1.9776853150688112e-05,5.2351566409925e-05
-5.675653665093705e-05,4.794192500412464e-05,-4.228383204463171e-06,-2.0517771190498024e-05,5.96407990087755e-05
-5.0929684221046045e-05,5.389813304645941e-05,3.0549026064363716e-07,-1.1789710697485134e-05,6.540415051858872e-05
-4.123500548303127e-05,5.712821803172119e-05,-1.544071324133256e-06,-6.8527533585438505e-06,6.32125957054086e-05
-3.239805664634332e-05,5.528532710741274e-05,-9.363925528305117e-06,-7.891312634455971e-06,5.603575482382439e-05
-2.7457503165351227e-05,5.238216544967145e-05,-1.036384219332831e-05,-1.1559551239770371e-05,4.9386660975869745e-05
-2.8024142011418007e-05,4.25497601099778e-05,-4.983988219464663e-06,-1.408921252732398e-05,4.436332528712228e-05
-3.31132068822626e-05,3.239734360249713e-05,-3.685661795316264e-06,-1.2656920262088533e-05,3.7678655644413084e-05
-3.74366863979958e-05,2.8581362130353227e-05,-6.4109626691788435e-06,-8.03302555141272e-06,2.740083982644137e-05
-3.5359222238184884e-05,2.8701237170025706e-05,-4.455625457921997e-06,-4.1725543269421905e-06,1.6727955880924128e-05
-2.8358985218801536e-05,2.40504141402198e-05,1.2075173572156928e-06,-3.4374852475593798e-06,1.3105212019581813e-05
-2.1246612959657796e-05,2.0239167497493327e-05,3.05372259390424e-06,-2.103428414557129e-06,1.2921173038193956e-05
-1.7073869457817636e-05,2.338541526114568e-05,1.154496658273274e-06,1.6906724340515211e-06,1.0988167559844442e-05
-1.6211366528295912e-05,2.981088800879661e-05,2.9064465252304217e-06,4.131472906010458e-06,7.87982116889907e-06
-1.587221231602598e-05,3.314286004751921e-05,9.712633982417174e-06,-1.2096596719857189e-06,5.824478193972027e-06
-1.6269110346911475e-05,3.296446448075585e-05,1.52664324559737e-05,-1.0358668077969924e-05,4.4286944103077985e-06
-1.6421261534560472e-05,3.412198566365987e-05,1.304247143707471e-05,-1.493675972596975e-05,2.4287521682708757e-06
-1.5617606550222263e-05,3.446067057666369e-05,6.133119768492179e-06,-1.3668253814103082e-05,1.308586519144228e-07
-1.3683595170732588e-05,3.382180875632912e-05,2.2832896320323925e-06,-1.0509633284527808e-05,2.851825797733909e-07
-1.4050089703232516e-05,3.647672201623209e-05,3.340695911902003e-06,-8.355366844625678e-06,6.349338946165517e-06
-1.646817872824613e-05,4.247799006407149e-05,6.726132141920971e-06,-6.58441831546952e-06,1.3615611351269763e-05
-1.498322581028333e-05,5.184921610634774e-05,1.1142245966766495e-05,-4.7103803808568045e-06,1.64025514095556e-05
-1.3484642295225058e-05,6.179704359965399e-05,1.4116800230112858e-05,-5.235575372353196e-06,1.839857031882275e-05
-1.8300052033737302e-05,6.130221299827099e-05,1.2617270840564743e-05,-1.1681832802423742e-05,2.0819143173866905e-05
-2.547416261222679e-05,5.154563405085355e-05,1.0186017789237667e-05,-1.4744769032404292e-05,2.432488872727845e-05
-3.249962173867971e-05,4.320033986005001e-05,9.862129445536993e-06,-1.4136604477243964e-05,2.8888165616081096e-05
-3.9171529351733625e-05,4.025965608889237e-05,8.692581104696728e-06,-1.810687899705954e-05,3.323017153888941e-05
-4.486440957407467e-05,3.592101711547002e-05,8.422885912295897e-06,-2.1652653231285512e-05,3.7916001019766554e-05
-4.5157426939113066e-05,3.313205888844095e-05,1.202778184961062e-05,-2.1396976080723107e-05,3.906828715116717e-05
-4.131505193072371e-05,3.275815834058449e-05,1.5279874787665904e-05,-2.0445428162929602e-05,4.151760367676616e-05
-3.785602166317403e-05,3.636845212895423e-05,1.901453288155608e-05,-1.9263135982328095e-05,4.3432359234429896e-05
-3.389581979718059e-05,3.898055001627654e-05,2.3949753085616976e-05,-1.8361586626269855e-05,4.6555185690522194e-05
-3.2975418434944004e-05,3.62136670446489e-05,2.542717265896499e-05,-2.0453808247111738e-05,5.0840582844102755e-05
-3.1784245948074386e-05,3.303114863228984e-05,2.2067417376092635e-05,-2.0591882275766693e-05,5.2792602218687534e-05
-3.0893181246938184e-05,3.3755728509277105e-05,2.1556741558015347e-05,-1.7628497516852804e-05,5.350864739739336e-05
-3.076534267165698e-05,3.401552021387033e-05,2.79805335594574e-05,-1.4391182048711926e-05,5.446992872748524e-05
-2.7588519515120424e-05,3.065636337851174e-05,3.373329309397377e-05,-1.219990554091055e-05,5.749677438871004e-05
-2.813463106576819e-05,1.8064463802147657e-05,3.499222293612547e-05,-1.3809878510073759e-05,6.122607737779617e-05
-3.720282620633952e-05,1.7933198250830173e-06,3.533287235768512e-05,-1.631036320759449e-05,6.700730591546744e-05
-4.492580410442315e-05,-6.1313512560445815e-06,3.119886605418287e-05,-1.6819831216707826e-05,7.235470548039302e-05
-4.411897316458635e-05,-4.2724350350908935e-06,2.2548279957845807e-05,-1.5529782103840262e-05,7.714651292189956e-05
-3.893197208526544e-05,-9.979844861618403e-08,1.7730197214405052e-05,-1.4338041182782035e-05,8.065278962021694e-05
-3.6204393836669624e-05,1.5160524071688997e-06,1.9658578821690753e-05,-1.4062774425838143e-05,8.10466954135336e-05
-3.596875103539787e-05,3.4830195545509923e-06,2.1462468794197775e-05,-1.4603865565732121e-05,7.784371700836346e-05
-3.30857110384386e-05,4.414432169141946e-06,1.9995946786366403e-05,-1.4826711776549928e-05,7.424435170833021e-05
-2.7832113119075075e-05,8.862398317432962e-06,1.6698662875569426e-05,-1.276688271900639e-05,7.388784433715045e-05
-2.4226561436080374e-05,2.2871217879583128e-05,1.1087970051448792e-05,-9.99753683572635e-06,7.797834405209869e-05
-2.2160704247653484e-05,3.704527989611961e-05,5.465267804538598e-06,-1.1177741725987289e-05,8.58270941535011e-05
-1.7695401766104624e-05,3.900647061527707e-05,4.79977688883082e-06,-1.3979723007651046e-05,9.265173139283434e-05
-1.3083606063446496e-05,4.1141909605357796e-05,7.611991350131575e-06,-1.284597055928316e-05,9.514283010503277e-05
-1.3553906683227979e-05,4.7079549403861165e-05,7.555334832431981e-06,-9.941280040948186e-06,9.610344568500295e-05
-1.6225512808887288e-05,5.121408321429044e-05,5.782394509878941e-06,-1.098062602977734e-05,9.470051736570895e-05
-1.4745760381629225e-05,5.0364666094537824e-05,4.905497917206958e-06,-1.4885790733387694e-05,8.972653449745849e-05
-6.683094397885725e-06,4.8163943574763834e-05,3.9007618397590704e-06,-1.716148472041823e-05,8.45658578327857e-05
2.8759445740433875e-06,4.442427234607749e-05,6.434828492274391e-07,-1.9102066289633512e-05,7.968702266225591e-05
-4.802509920409648e-06,4.387180888443254e-05,-2.137296405635425e-06,-2.226412652817089e-05,7.690300117246807e-05
-2.026825495704543e-05,4.600116881192662e-05,-5.091892944619758e-06,-2.0456849597394466e-05,7.932139124022797e-05
-2.3086749934009276e-05,4.433079811860807e-05,-4.959286343364511e-06,-1.3828343071509153e-05,8.578530832892284e-05
-1.8665636162040755e-05,3.9981048757908866e-05,-3.0336034342326457e-06,-9.846720786299556e-06,9.164241782855242e-05
-1.7880774976219982e-05,3.121236295555718e-05,-5.540104666579282e-06,-1.1559774065972306e-05,9.249711001757532e-05
-2.2378490029950626e-05,2.4536864657420665e-05,-1.1840375918836799e-05,-1.5285559129551984e-05,9.177017636829987e-05
-2.151934131688904e-05,2.2755839381716214e-05,-1.88912217709003e-05,-1.483770120103145e-05,9.042008605320007e-05
-1.6512833099113777e-05,2.1633926735376008e-05,-1.8188047761213966e-05,-1.1938150237256195e-05,9.10906310309656e-05
-1.5286939742509276e-05,1.634439468034543e-05,-1.1462763723102398e-05,-1.131690623878967e-05,9.314533963333815e-05
-2.1697247575502843e-05,9.964025593944825e-06,-7.229528364405269e-06,-1.2662683730013669e-05,8.952674397733063e-05
-2.9509861633414403e-05,6.966028195165563e-06,-8.290570804092567e-06,-1.6543282981729135e-05,8.371204603463411e-05
-2.971224603243172e-05,6.556463176821126e-06,-1.1024953892047051e-05,-2.1406631276477128e-05,7.875441951910034e-05
-2.215735185018275e-05,6.615998245251831e-06,-1.047558725986164e-05,-2.2023114070179872e-05,7.703073788434267e-05
-1.7986874809139408e-05,3.3353699109284207e-06,-3.2627397104079137e-06,-1.7237651263712905e-05,7.556694617960602e-05
-2.1769537852378562e-05,4.662103947339347e-06,7.892726898717228e-06,-1.4487819498754106e-05,7.155517960200086e-05
-2.473660424584523e-05,1.2097688340872992e-05,1.4690152056573424e-05,-1.6604852135060355e-05,6.880161527078599e-05
-1.9377221178729087e-05,1.636286651773844e-05,1.1433974577812478e-05,-1.5570421965094283e-05,6.860804569441825e-05
-1.0254558219457977e-05,1.8175171135226265e-05,2.26255065172154e-06,-1.0106286936206743e-05,6.997314631007612e-05
-5.349990260583581e-06,2.25836720346706e-05,-4.316486410971265e-06,-7.884589649620466e-06,7.214818469947204e-05
-5.318477633409202e-06,2.6491059543332085e-05,-6.478773684648331e-06,-1.0041323548648506e-05,7.441907655447721e-05
-1.2647611583815888e-05,2.871569085982628e-05,-8.173997230187524e-06,-1.1020199053746182e-05,7.592408655909821e-05
-2.3731437977403402e-05,2.8100103008910082e-05,-1.079272260540165e-05,-1.0158650184166618e-05,7.650397310499102e-05
-3.520368773024529e-05,2.107925138261635e-05,-1.0187470252276398e-05,-1.1448911209299695e-05,7.786808419041336e-05
-4.1623283323133364e-05,1.704547139524948e-05,-9.875026989902835e-06,-1.6786423657322302e-05,7.694884698139504e-05
-4.417365198605694e-05,2.781538751150947e-05,-1.4849473700451199e-05,-2.281897650391329e-05,7.458344771293923e-05
-4.78468464280013e-05,4.100456862943247e-05,-1.625947334105149e-05,-2.594891338958405e-05,7.509900751756504e-05
-4.585640272125602e-05,4.1247785702580586e-05,-1.0778077012219e-05,-2.174931432818994e-05,7.815043500158936e-05
-4.45759178546723e-05,4.374953277874738e-05,-5.661509931087494e-06,-1.731651536829304e-05,7.889519474701956e-05
-4.9867117922985926e-05,5.563907325267792e-05,3.450078907007992e-07,-1.4711145013279747e-05,7.481093780370429e-05
-5.326373138814233e-05,5.83105102123227e-05,9.639065865485463e-06,-1.1504278518259525e-05,7.142528920667246e-05
-5.1072125643258914e-05,4.909455674351193e-05,1.9968883862020448e-05,-8.602707566751633e-06,6.776833470212296e-05
-4.896558675682172e-05,4.042308501084335e-05,2.3661186787649058e-05,-5.596314167632954e-06,6.610617856495082e-05
-4.3426505726529285e-05,4.040052226628177e-05,1.6967203919193707e-05,-1.0410145478090271e-05,6.761987606296316e-05
-2.806659358611796e-05,4.61187373730354e-05,7.74528962210752e-06,-1.8269669453729875e-05,6.836155080236495e-05
-1.6136384147102945e-05,4.203954813419841e-05,6.789290637243539e-06,-1.802982296794653e-05,6.829750054748729e-05
-1.4959975487727206e-05,2.6507495931582525e-05,9.591875823389273e-06,-1.2845486708101816e-05,6.620295607717708e-05
-2.2590589651372284e-05,6.787719939893577e-06,1.0133149771718308e-05,-8.711422196938656e-06,6.723396654706448e-05
-3.0345945560839027e-05,-7.655594345123973e-06,1.1338781405356713e-05,-4.64563345303759e-06,7.290371286217123e-05
-3.2909232686506584e-05,-2.0752668206114322e-05,1.3180085261410568e-05,1.3921668369221152e-06,7.692541112191975e-05
-3.347315578139387e-05,-3.0112219974398613e-05,1.3697672329726629e-05,5.764514298789436e-06,7.827248191460967e-05
-3.398199623916298e-05,-3.0318216886371374e-05,1.3055941963102669e-05,5.332590262696613e-06,7.734806422377005e-05
-2.9223587262094952e-05,-2.4141667381627485e-05,1.2743174920615274e-05,1.8813827864505583e-06,7.600817480124533e-05
-1.941688788065221e-05,-1.863509532995522e-05,1.1378338967915624e-05,-1.0869035804716987e-06,7.43345299270004e-05
-9.333697562396992e-06,-1.8539918528404087e-05,8.97878908290295e-06,-1.2639665101232822e-06,7.178113446570933e-05
2.2752401491743512e-06,-1.3368272448133212e-05,5.713710379495751e-06,7.944321964714618e-07,7.007852400420234e-05
1.2119347047701012e-05,1.2755263014696538e-05,4.606576567312004e-06,3.4457807487342507e-06,6.950738315936178e-05
1.668178811087273e-05,5.868244988960214e-05,7.221809482871322e-06,5.987813437968725e-06,7.009211549302563e-05
1.6204079656745307e-05,9.851798677118495e-05,8.826813427731395e-06,3.7519585021073e-06,7.06503342371434e-05
7.450400062225526e-06,0.00011103927681688219,7.141979949665256e-06,-2.3479221908928594e-06,7.094769534887746e-05
-1.1284250831522513e-05,9.881474397843704e-05,5.410516223491868e-06,-4.354542852524901e-06,7.207947055576369e-05
-3.2441421353723854e-05,8.100137347355485e-05,4.763080596603686e-06,-6.248171303013805e-06,7.164123235270381e-05
-3.802968421950936e-05,7.40394534659572e-05,5.806182798551163e-06,-1.0603544978948776e-05,6.893358658999205e-05
-2.7253090593148954e-05,7.056906179059297e-05,8.433165930910036e-06,-9.610894267098047e-06,6.654438038822263e-05
-2.0147432223893702e-05,5.6806667998898774e-05,6.964471594983479e-06,-4.869303211307852e-06,6.524678610730916e-05
-2.339215097890701e-05,4.622582855517976e-05,-1.300731923947751e-06,-5.932634394412162e-06,6.392435898305848e-05
-3.0586132197640836e-05,4.2812087485799566e-05,-8.512124622939155e-06,-1.095235984394094e-05,6.396979733835906e-05
-3.2811225537443534e-05,4.879506377619691e-05,-9.373002285428811e-06,-1.509131288912613e-05,6.575786392204463e-05
-3.1642732210457325e-05,6.218096677912399e-05,-3.2215602914220653e-06,-1.6409327145083807e-05,6.548874080181122e-05
-3.3646363590378314e-05,7.07452927599661e-05,4.27131999458652e-06,-1.1702426490955986e-05,6.614219455514103e-05
-3.823844235739671e-05,6.926307105459273e-05,5.959295776847284e-06,-6.624841262237169e-06,7.0174690335989e-05
-3.7687561416532844e-05,5.753481309511699e-05,3.660121592474752e-06,-5.170185886527179e-06,7.202968845376745e-05
-3.265716804889962e-05,4.2548137571429834e-05,3.6387782529345714e-06,-5.983420578559162e-06,7.130995800253004e-05
-2.709538057388272e-05,3.404261951800436e-05,5.640193649014691e-06,-8.974478078016546e-06,6.929793016752228e-05
-3.049695078516379e-05,2.8964943339815363e-05,5.067773599876091e-06,-1.0737674529082142e-05,6.678707723040134e-05
-3.912969259545207e-05,2.6066350983455777e-05,3.505383119772887e-06,-8.587820957473014e-06,6.429423956433311e-05
-4.331567106419243e-05,3.1052029953571036e-05,3.650373173513799e-06,-3.353441570652649e-06,6.079105878598057e-05
-4.0773058572085574e-05,4.204544529784471e-05,4.083826297573978e-06,-1.221496177095105e-06,5.760246131103486e-05
-3.637933696154505e-05,5.0105041736969724e-05,6.305275746854022e-06,-8.86422867552028e-07,5.38233362021856e-05
-3.1933166610542685e-05,4.897707549389452e-05,1.2918251741211861e-05,-1.1607733796381581e-07,5.041716212872416e-05
-2.6730558602139354e-05,4.265236566425301e-05,1.5796082152519375e-05,5.67376559956756e-07,5.13678060087841e-05
-2.6000547222793102e-05,3.7016765418229625e-05,8.999576493806671e-06,-4.887893396698928e-07,5.672651604982093e-05
-3.190148709109053e-05,3.489153095870279e-05,-1.0326036914420911e-07,-5.400137069955235e-06,6.180288619361818e-05
-4.1365157812833786e-05,3.431090954109095e-05,-2.034428689512424e-06,-1.087750933947973e-05,6.257397762965411e-05
-4.3276148062432185e-05,2.94797482638387e-05,1.8143449551644153e-06,-1.2662512745009735e-05,5.8306384744355455e-05
-3.607197504607029e-05,2.374247196712531e-05,6.446063252951717e-06,-1.0438221579534002e-05,5.2187740948284045e-05
-2.697159106901381e-05,2.587895687611308e-05,1.045769386109896e-05,-7.296931471501011e-06,5.0176080549135804e-05
-1.9252800484537147e-05,2.7024496375815943e-05,1.2370888725854456e-05,-6.488421149697388e-06,5.5804808653192595e-05
-7.247508619911969e-06,2.1284928152454086e-05,1.1282854757155292e-05,-4.427133717399556e-06,6.482012395281345e-05
6.844859399279812e-07,1.865414196799975e-05,6.827446668467019e-06,-2.731421133717049e-08,7.092695159371942e-05
-5.881650395167526e-06,2.5779403586057015e-05,4.130155957682291e-06,9.578548088029493e-07,6.732194742653519e-05
-2.010909520322457e-05,3.5196255339542404e-05,8.573753802920692e-06,-6.990346719248919e-06,5.913690256420523e-05
-2.2582602468901314e-05,2.6574767616693862e-05,1.1700949471560307e-05,-1.5108547813724726e-05,5.3990512242307886e-05
-1.5841211279621348e-05,-1.2061925190209877e-05,1.2749616871587932e-05,-1.1681731848511845e-05,5.3052564908284694e-05
-1.6239788237726316e-05,-5.517749741557054e-05,1.0226009180769324e-05,-9.314851922681555e-06,5.313615474733524e-05
-2.025169123953674e-05,-7.614579953951761e-05,4.1183102439390495e-06,-1.2511803106463049e-05,5.193038305151276e-05
-2.5940933483070694e-05,-7.769613148411736e-05,3.2101970646181144e-06,-1.5054160030558705e-05,5.3379360906546935e-05
-3.5411296266829595e-05,-6.0563885199371725e-05,5.431533281807788e-06,-1.5370947949122638e-05,5.391944796429016e-05
-4.3196552724111825e-05,-2.9650647775270045e-05,8.42715053295251e-06,-1.765401248121634e-05,5.1944163715234026e-05
-4.4993244955549017e-05,-4.66214669359033e-06,1.0056266546598636e-05,-1.969490222109016e-05,5.030097236158326e-05
-4.416779847815633e-05,9.116357432503719e-06,1.0022522474173456e-05,-1.9951470676460303e-05,5.029305611969903e-05
-4.475951209315099e-05,1.1646068742265925e-05,9.716533895698376e-06,-1.7612446754355915e-05,5.027517909184098e-05
-4.428032843861729e-05,1.1910403372894507e-05,9.407576726516709e-06,-1.4860948795103468e-05,5.2140119805699214e-05
-4.201561750960536e-05,1.7131154891103506e-05,1.0642645065672696e-05,-1.5241550499922596e-05,5.3355506679508835e-05
-3.660122092696838e-05,2.549235250626225e-05,1.39320427479106e-05,-1.89709389815107e-05,5.501527994056232e-05
-2.676870280993171e-05,2.8023161576129496e-05,1.353273637505481e-05,-2.3650416551390663e-05,5.733674333896488e-05
-1.5353929484263062e-05,2.0928640878992155e-05,8.474676178593654e-06,-2.479134673194494e-05,5.734123260481283e-05
-5.8036039263242856e-06,1.3869431313651148e-05,5.551073627430014e-06,-2.081165621348191e-05,5.678514935425483e-05
-1.5205574754872941e-06,1.2993705240660347e-05,8.19875185698038e-06,-1.6056890672189184e-05,5.73148499825038e-05
1.5983980006240017e-07,1.5726747733424418e-05,1.232495742442552e-05,-1.60155523190042e-05,5.9000911278417334e-05
3.800347485594102e-06,1.8421644199406728e-05,1.2983558917767368e-05,-1.7990154447034e-05,5.980280911899172e-05
4.388877187011531e-06,2.5540448405081406e-05,1.3772340025752783e-05,-1.6633841369184665e-05,5.981019057799131e-05
-7.149213161028456e-06,3.255605770391412e-05,1.6874731954885647e-05,-8.707357665116433e-06,5.863407568540424e-05
-2.3786471501807682e-05,3.894027031492442e-05,1.8053540770779364e-05,-3.3960923246922903e-06,5.744731970480643e-05
-3.546752850525081e-05,4.288676427677274e-05,1.7530917830299586e-05,-4.94767209602287e-06,5.601622979156673e-05
-4.068770067533478e-05,4.592982804751955e-05,1.7510270481579937e-05,-8.567891200073063e-06,5.675033025909215e-05
-3.407651820452884e-05,5.0007634854409844e-05,1.5651372450520284e-05,-9.140541806118563e-06,5.921989941271022e-05
-2.471562402206473e-05,4.7236539103323594e-05,1.3710227904084604e-05,-8.381080078834202e-06,5.834782132296823e-05
-2.4038095943978988e-05,4.386329965200275e-05,1.207909190270584e-05,-6.386210770870093e-06,5.611628512269817e-05
-2.290108022862114e-05,4.269881173968315e-05,1.009516381600406e-05,-3.5448979360808153e-06,5.684839197783731e-05
-1.9548117052181624e-05,4.1481944208499044e-05,1.2494973816501442e-05,-2.4915011636039708e-06,5.588547355728224e-05
-2.2091462597018108e-05,4.1035094909602776e-05,1.1854376680275891e-05,-4.351634288468631e-06,5.152565790922381e-05
-2.754135311988648e-05,4.135753624723293e-05,5.010986114939442e-06,-7.02505622030003e-06,4.853697828366421e-05
-3.4206041163997725e-05,3.899719740729779e-05,-8.859120725901448e-07,-8.289543984574266e-06,4.8420752136735246e-05
-3.846800609608181e-05,3.3986005291808397e-05,-4.3332438508514315e-06,-8.175426955858711e-06,5.077460446045734e-05
-3.658774949144572e-05,3.431809091125615e-05,-3.335783958391403e-06,-6.0779802879551426e-06,5.607260754914023e-05
-3.118074164376594e-05,2.8408709113136865e-05,2.1750712164703145e-07,-6.377178124239435e-06,5.8865425671683624e-05
-2.169244908145629e-05,1.7631033188081346e-05,2.1189839571889024e-06,-1.0771273991849739e-05,5.645064447890036e-05
-1.6348700228263624e-05,1.3033929462835658e-05,8.759151910453511e-07,-1.4467358596448321e-05,5.327572944224812e-05
-1.2846234312746674e-05,1.6354999388568103e-05,-1.7355746422254015e-06,-1.4020430171512999e-05,5.075048829894513e-05
-7.992461178218946e-06,2.369976391491946e-05,-3.825524800049607e-06,-1.422729383193655e-05,5.150366632733494e-05
-4.169199655734701e-06,2.814656363625545e-05,-5.146298008185113e-06,-1.4698409358970821e-05,5.435898492578417e-05
-4.6504451347573195e-06,2.5636865757405758e-05,-5.0111839300370775e-06,-1.2938562576891854e-05,5.5639749916736037e-05
-7.282675142050721e-06,2.0699262677226216e-05,-3.803142590186326e-06,-1.2547320693556685e-05,5.393654282670468e-05
-7.708629709668458e-06,1.957130734808743e-05,-2.6466061626706505e-06,-1.2743964362016413e-05,5.0673676014412194e-05
-7.426345746353036e-06,2.226019205409102e-05,-1.634954969631508e-06,-1.0186389772570692e-05,4.8755831812741235e-05
-5.864996182936011e-06,2.96847392746713e-05,-1.91496906154498e-06,-6.863098406029167e-06,5.116350803291425e-05
-3.6917367651767563e-06,4.035558959003538e-05,-5.727953222844917e-08,-4.440520569914952e-06,5.497050005942583e-05
-3.5052614748565247e-06,4.3399773858254775e-05,7.894542250141967e-06,-3.4355223306192784e-06,5.597127164946869e-05
-6.119054432929261e-06,3.374593870830722e-05,1.6819287338876165e-05,-5.739721927966457e-06,5.544954910874367e-05
-9.249669346900191e-06,2.3676666387473233e-05,1.9569137293729e-05,-9.401326678926125e-06,5.3991676395526156e-05
-1.638566391193308e-05,2.2871688997838646e-05,1.4382333574758377e-05,-1.0758752978290431e-05,5.309303742251359e-05
-3.1606963602826e-05,2.9731882023043e-05,7.281901162059512e-06,-8.100448212644551e-06,5.313793371897191e-05
-4.891541902907193e-05,3.770021430682391e-05,3.29721842717845e-06,-5.682600203726906e-06,5.1635379350045696e-05
-5.7200439186999574e-05,4.56150846730452e-05,3.412907517486019e-06,-4.794208962266566e-06,5.112856160849333e-05
-4.982872633263469e-05,5.033597335568629e-05,5.648564638249809e-06,-4.617109880200587e-06,5.328111001290381e-05
-3.6295859899837524e-05,5.070928455097601e-05,7.853625447751256e-07,-8.366348993149586e-06,5.7883953559212387e-05
-2.5524554075673223e-05,4.901206193608232e-05,-6.385544111253694e-06,-1.3746382137469482e-05,6.246811972232535e-05
-2.954639057861641e-05,4.5780387154081836e-05,-7.121556336642243e-06,-1.3609029338113032e-05,6.172845314722508e-05
-5.8802943385671824e-05,3.9046764868544415e-05,-6.253860192373395e-06,-8.396203156735282e-06,6.034280886524357e-05
-9.117759327637032e-05,3.621806172304787e-05,-4.374399395601358e-06,-4.458037892618449e-06,6.0315232985885814e-05
-0.00011063113197451457,3.733110861503519e-05,-3.7692275327572133e-06,-6.783093795093009e-06,6.022573506925255e-05
-0.00011514509242260829,3.71339701814577e-05,-8.213850378524512e-06,-1.3401921023614705e-05,5.920731200603768e-05
-0.0001128487492678687,3.4877397411037236e-05,-9.818161743169185e-06,-1.791376416804269e-05,5.788516500615515e-05
-0.00010445281077409163,3.347000529174693e-05,-3.4621666600287426e-06,-1.803605118766427e-05,5.778304330306128e-05
-8.730604167794809e-05,3.019973883056082e-05,2.981544412250514e-06,-1.6649728422635235e-05,5.899689858779311e-05
-6.163208308862522e-05,2.445089558023028e-05,4.368668214738136e-06,-1.4992150681791827e-05,6.16603356320411e-05
-3.464756446192041e-05,2.5897417799569666e-05,1.750839714986796e-06,-1.3007816050958354e-05,6.569371180376038e-05
-1.7281250620726496e-05,3.5664015740621835e-05,-3.3083674111367145e-07,-1.2238007002451923e-05,6.994965224293992e-05
-1.3892031347495504e-05,4.331531818024814e-05,1.3200176454120083e-06,-8.460046956315637e-06,7.074756285874173e-05
-1.8010403437074274e-05,4.109426663490012e-05,5.54416146769654e-06,-3.2358050248149084e-06,6.78980941302143e-05
-1.5299297956516966e-05,3.26606968883425e-05,9.238876373274252e-06,-3.195763838448329e-06,6.598993059014902e-05
-3.754585975457303e-08,2.2794161850470118e-05,1.0622121408232488e-05,-7.6035539677832276e-06,6.594415026484057e-05
2.6106090444955043e-05,1.7947131709661335e-05,1.0854959327843972e-05,-6.5558670030441135e-06,6.693740579066798e-05
5.107911056256853e-05,2.608816976135131e-05,1.0214507710770704e-05,-5.804528768749151e-07,6.878444401081651e-05
6.143796053947881e-05,4.1675633838167414e-05,8.74318811838748e-06,7.301298410311574e-07,6.711463356623426e-05
5.5182121286634356e-05,4.7851644922047853e-05,5.507894002221292e-06,-1.2471163017835352e-06,6.196536560310051e-05
4.004517541034147e-05,4.159948366577737e-05,8.180739996532793e-07,-2.3635100205865456e-06,5.715702354791574e-05
1.790974783943966e-05,3.359713082318194e-05,-8.435641802861937e-07,-3.623209295255947e-06,5.55245642317459e-05
-5.1665019782376476e-06,3.460042717051692e-05,-2.787548964988673e-06,-7.804994311300106e-06,5.2828665502602234e-05
-1.897439688036684e-05,4.076895129401237e-05,-4.950988568452885e-06,-1.3561058949562721e-05,4.946932676830329e-05
-1.7092199414037168e-05,4.2043411667691544e-05,-1.9934225292672636e-06,-1.5195016203506384e-05,5.0795286369975656e-05
-9.86898157862015e-06,3.9270387787837535e-05,7.78223511588294e-06,-9.566104381519835e-06,5.3813688282389194e-05
-1.093911942007253e-05,4.34190733358264e-05,1.622842682991177e-05,-5.262667855276959e-06,5.81110107304994e-05
-1.3937698895460926e-05,5.1009003072977066e-05,1.6911544662434608e-05,-5.836152467963984e-06,6.337402010103688e-05
-1.1440387424954679e-05,5.513628639164381e-05,1.4170273061608896e-05,-2.7828034490084974e-06,6.537270382978022e-05
-8.848463039612398e-06,5.460423926706426e-05,1.0438635399623308e-05,-7.735791882623744e-07,6.441491859732196e-05
-6.677591045445297e-06,5.0773858674801886e-05,1.0181281140830833e-05,-2.668221668500337e-06,6.476134149124846e-05
-4.179147708782693e-06,5.068258906248957e-05,1.1116677342215553e-05,-2.540749392210273e-06,6.50293513899669e-05
-3.0141800380079076e-06,5.5388434702763334e-05,9.765324648469687e-06,-3.8949039549152076e-07,5.99799350311514e-05
-1.2629026059585158e-05,4.726282350020483e-05,7.511849162256112e-06,-2.450414626764541e-07,5.1464481657603756e-05
-3.2009069400373846e-05,2.1022178771090694e-05,1.1182234629814047e-05,-2.8558379199239425e-06,4.4577147491509095e-05
-5.0631180783966556e-05,1.2091376220269012e-06,1.7848431525635533e-05,-7.301659934455529e-06,4.2434126953594387e-05
-6.420013232855126e-05,-3.5232392292527948e-06,2.1206989913480356e-05,-1.2389245966915041e-05,4.369815724203363e-05
-7.142026151996106e-05,-6.351804586302023e-06,1.8257427655044012e-05,-1.6658868844388053e-05,4.5119577407604083e-05
-7.009258115431294e-05,-1.6962638255790807e-05,9.86168106464902e-06,-2.1080322767375037e-05,4.6705728891538456e-05
-5.990246427245438e-05,-2.6216008336632513e-05,2.789884092635475e-06,-2.4862094505806454e-05,5.0196744268760085e-05
-4.529353100224398e-05,-2.288515133841429e-05,3.102212531302939e-06,-2.6297322619939223e-05,5.815652184537612e-05
-3.1900068279355764e-05,-1.1381683179934043e-05,5.2515633797156624e-06,-2.5131033908110112e-05,6.91383975208737e-05
-2.2648226149613038e-05,-1.968053311429685e-06,3.95476399717154e-06,-2.243580274807755e-05,7.819371239747852e-05
-1.3568847862188704e-05,4.533663741312921e-06,1.6526147419426707e-06,-1.7546070012031123e-05,8.730068657314405e-05
-3.862838639179245e-06,1.2098412298655603e-05,-2.234791736555053e-06,-1.2465031431929674e-05,9.77483214228414e-05
1.747242663441284e-06,2.002067594730761e-05,-2.9226523565739626e-06,-9.8363807410351e-06,0.0001046321849571541
-5.252908522379585e-06,2.694038448680658e-05,8.957590580394026e-07,-1.0597452273941599e-05,0.00010625892173266038
-1.8917222405434586e-05,3.0167624572641216e-05,6.022863999533001e-06,-1.3726044926443137e-05,0.00010589202429400757
-2.775767097773496e-05,2.657879849721212e-05,8.047606570471544e-06,-1.826377774705179e-05,0.00010821555770235136
-2.974013659695629e-05,2.3820308342692442e-05,9.37982986215502e-06,-1.9549181160982698e-05,0.00011132565850857645
-3.419044878683053e-05,2.7223177312407643e-05,9.052426321431994e-06,-1.8473694581189193e-05,0.00011119503324152902
-4.675374657381326e-05,2.9343829737626947e-05,8.466076906188391e-06,-1.907742080220487e-05,0.0001104237453546375
-5.969910853309557e-05,3.311254840809852e-05,1.037157289829338e-05,-1.860993870650418e-05,0.00010845367796719074
-6.187098915688694e-05,3.8995651266304776e-05,1.155757581727812e-05,-1.6680442058714107e-05,0.00010696097888285294
-5.943489304627292e-05,4.411534609971568e-05,1.0785357517306693e-05,-1.5262341548805125e-05,0.0001077613778761588
-5.954410517006181e-05,4.792499021277763e-05,1.2495705050241668e-05,-1.5584033462801017e-05,0.0001072015511454083
-5.663087358698249e-05,4.339223960414529e-05,1.1667461876641028e-05,-1.880184754554648e-05,0.00010485973325558007
-4.964375330018811e-05,3.4366457839496434e-05,5.35758181285928e-06,-1.8663451555767097e-05,9.939742449205369e-05
-3.799062324105762e-05,3.1994812161428854e-05,1.8147733271689503e-06,-1.1618726603046525e-05,9.427870099898428e-05
-2.9352791898418218e-05,3.738609666470438e-05,1.5298438711397466e-06,-7.329452273552306e-06,8.697807788848877e-05
-2.9642256777151488e-05,3.8659447454847395e-05,4.203402113489574e-06,-9.625318853068165e-06,8.030272147152573e-05
-2.386530104558915e-05,3.2659288990544155e-05,4.2133247006859165e-06,-1.193055049952818e-05,8.002513641258702e-05
-2.992368536069989e-06,2.6113099011126906e-05,1.1383443734303e-06,-1.073181556421332e-05,8.029615128180012e-05
2.1415276933112182e-05,2.8677592126769014e-05,-1.5841334288779763e-06,-8.389436516154092e-06,7.740329601801932e-05
3.552198541001417e-05,3.7731268093921244e-05,-1.3599213843917823e-06,-7.481034572265344e-06,7.168682350311428e-05
3.141652632621117e-05,4.4459964556153864e-05,-1.3997503174323356e-06,-1.092477668862557e-05,6.800016853958368e-05
1.25292708617053e-05,4.465059464564547e-05,-2.652089733601315e-06,-1.409149535902543e-05,6.565404328284785e-05
-7.989223377080634e-06,4.05848550144583e-05,-1.0548001228016801e-06,-1.1787915354943834e-05,6.393423245754093e-05
-2.0271114408387803e-05,3.508952431729995e-05,2.7567045890464215e-06,-6.956593097129371e-06,6.271023448789492e-05
-2.5184433980030008e-05,2.913625394285191e-05,4.573828846332617e-06,-5.490464900503866e-06,6.046239650459029e-05
-2.512055289116688e-05,2.6685702323447913e-05,3.1095407848624745e-06,-9.658700946602039e-06,5.662694456987083e-05
-1.7969898181036115e-05,2.3058739316184074e-05,-6.357729489536723e-07,-1.436955153621966e-05,5.258341843727976e-05
-1.3118313290760852e-05,6.7834894252882805e-06,-5.801799034088617e-06,-1.6415871868957765e-05,5.097323082736693e-05
-2.028658491326496e-05,-5.005786533729406e-06,-2.751123020061641e-06,-1.550774868519511e-05,4.903989247395657e-05
-3.004642712767236e-05,9.828335350903217e-06,9.157975910056848e-06,-8.426449312537443e-06,4.3134470615768805e-05
-3.378567998879589e-05,2.8841688617831096e-05,1.692466867098119e-05,2.347904455746175e-06,3.627348996815272e-05
-3.468797149253078e-05,4.1457838960923254e-05,1.5525522030657157e-05,9.343334568256978e-06,3.334601933602244e-05
-3.157709215884097e-05,5.142664667801e-05,1.1607318811002187e-05,8.180644726962782e-06,3.444729736656882e-05
-2.7178328309673816e-05,5.941993367741816e-05,8.75519253895618e-06,-1.6135510350068216e-07,3.5008157283300534e-05
-2.403652797511313e-05,5.376523404265754e-05,6.691336238873191e-06,-1.4368306437972933e-06,3.568541433196515e-05
-1.696849722065963e-05,2.651760405569803e-05,3.352860858285567e-06,9.647526894696057e-06,3.778349491767585e-05
-2.0700412278529257e-05,5.500875204234035e-07,2.8558154099300737e-06,1.692204750725068e-05,3.718585867318325e-05
-4.524101677816361e-05,-9.936060450854711e-06,5.975666226731846e-06,1.7181257135234773e-05,3.244664185331203e-05
-8.384996908716857e-05,-9.904797479975969e-06,5.458754912979202e-06,1.3685978956345934e-05,2.4689978090464137e-05
-0.0001153734847321175,-1.1319508303131443e-05,1.554916252644034e-06,7.3568344305385835e-06,2.1313040633685887e-05
-0.00011191318480996415,-1.1906505278602708e-05,-4.675416676036548e-07,6.279739181991317e-07,2.4440108973067254e-05
-7.729923527222127e-05,-5.146862349647563e-06,-6.559031362485257e-07,-5.196550773689523e-06,2.898929415096063e-05
-4.033512232126668e-05,6.132714815976215e-07,2.375163830947713e-06,-7.112789262464503e-06,3.267945794505067e-05
-1.4235756680136546e-05,3.2000446026358986e-06,5.3103690333955456e-06,-9.139323083218187e-06,3.4344902815064415e-05
6.751403816451784e-06,6.567588116013212e-06,9.600453267921694e-06,-1.1569144589884672e-05,3.4730317565845326e-05
1.931682891154196e-05,1.4471117538050748e-05,1.6549212887184694e-05,-1.2911898920719977e-05,3.562607162166387e-05
1.529014298284892e-05,2.7011226848117076e-05,1.9231632904848084e-05,-1.361960130452644e-05,3.5447497793938965e-05
-1.4317422483145492e-06,3.7496709410334006e-05,1.575949318066705e-05,-1.3736559594690334e-05,3.4580723877297714e-05
-1.5879777492955327e-05,3.707836731337011e-05,1.0051383469544817e-05,-1.5584992070216686e-05,3.457165803411044e-05
-1.908045305754058e-05,2.988614869536832e-05,7.82180723035708e-06,-1.841907032940071e-05,3.381745045771822e-05
-1.571383108966984e-05,2.643815241754055e-05,6.461180873884587e-06,-1.8487786292098463e-05,3.143856520182453e-05
-1.880449963209685e-05,3.0661311029689386e-05,2.5435099360038294e-06,-1.6931555364863016e-05,2.939375008281786e-05
-2.8480544642661698e-05,3.635223401943222e-05,-1.512859967078839e-06,-1.5694808098487556e-05,2.993372800119687e-05
-3.283843761892058e-05,3.4103155485354364e-05,9.389413548888115e-07,-1.4412857126444578e-05,3.2051426387624815e-05
-3.321160329505801e-05,2.0630142898880877e-05,5.992287242406746e-06,-1.5974932466633618e-05,3.511847899062559e-05
-3.9390648453263566e-05,8.359228559129406e-06,5.82381790081854e-06,-1.7595713870832697e-05,3.842728619929403e-05
-4.637222446035594e-05,7.191676559159532e-06,4.34993080489221e-06,-1.6729920389479958e-05,4.0662238461663947e-05
-4.91027494717855e-05,8.830351362121291e-06,9.819182196224574e-06,-1.8198003090219572e-05,3.95686220144853e-05
-5.1484323194017634e-05,1.2765863175445702e-05,1.4670203199784737e-05,-2.2225945940590464e-05,3.307594670332037e-05
-5.333028457243927e-05,1.946863812918309e-05,1.1522684872034006e-05,-2.306605711055454e-05,2.8571168513735756e-05
-5.528626206796616e-05,2.321651845704764e-05,9.766597941052169e-06,-1.8884678866015747e-05,2.9127122616046108e-05
-5.2895211410941556e-05,1.680000059423037e-05,9.749041964823846e-06,-1.1783528861997183e-05,2.7549192964215763e-05
-4.8881647671805695e-05,1.4360031855176203e-05,5.517447789316066e-06,-3.847385869448772e-06,2.7996091375825927e-05
-4.757041097036563e-05,2.6388363039586693e-05,4.776328751177061e-06,-1.0140146287085372e-06,3.239243233110756e-05
-4.6724344429094344e-05,4.010016346001066e-05,7.049964551697485e-06,-6.767916147509823e-06,3.2249507057713345e-05
-4.961428203387186e-05,4.419919423526153e-05,7.159668257372687e-06,-1.4822199773334432e-05,3.071366882068105e-05
-5.522523133549839e-05,4.407179221743718e-05,5.608943411061773e-06,-1.4079088941798545e-05,3.131258927169256e-05
-5.846406929777004e-05,5.035593858337961e-05,4.019128482468659e-06,-8.51326603878988e-06,3.402889706194401e-05
-5.4838012147229165e-05,5.889326348551549e-05,3.71753185390844e-06,-1.0895343621086795e-05,3.547175583662465e-05
-4.634513607015833e-05,6.441341247409582e-05,2.453727802276262e-06,-1.7439513612771407e-05,3.4250271710334346e-05
-3.9230035326909274e-05,6.787109305150807e-05,6.619021064580011e-07,-2.1183997887419537e-05,3.458091305219568e-05
-3.086028664256446e-05,7.327275670832023e-05,2.337920705031138e-06,-2.1296043996699154e-05,3.450119402259588e-05
-2.19582343561342e-05,7.535855547757819e-05,5.3333196774474345e-06,-1.649148362048436e-05,3.698798900586553e-05
-1.877432077890262e-05,7.387041841866449e-05,1.6565612668273388e-06,-9.038299140229356e-06,3.9826638385420665e-05
-2.378332646912895e-05,7.169289165176451e-05,-6.708735782012809e-06,-5.941796644037822e-06,3.677819768199697e-05
-3.219495920347981e-05,6.349277828121558e-05,-1.0430760994495358e-05,-9.50977027969202e-06,3.0349998269230127e-05
-3.690257290145382e-05,4.617994636646472e-05,-5.923149274167372e-06,-1.4556581845681649e-05,2.7829913960886188e-05
-3.9740527427056804e-05,2.7228694307268597e-05,-1.080542915588012e-06,-1.7188162019010633e-05,3.0929379136068746e-05
-4.700787758338265e-05,1.562564284540713e-05,-3.399258957870188e-06,-1.7171425497508608e-05,3.5556589864427224e-05
-5.350270657800138e-05,1.3764372852165252e-05,-9.179765584121924e-06,-1.5601532140863128e-05,4.230561535223387e-05
-4.3029758671764284e-05,1.6945728930295445e-05,-1.111312576540513e-05,-1.2736010830849409e-05,4.798067675437778e-05
-1.1731364793376997e-05,1.8097167412634008e-05,-7.3552687354094815e-06,-8.589608114561997e-06,4.8666042857803404e-05
2.397997013758868e-05,1.9417006114963442e-05,1.923154968608287e-06,-3.7393781440187013e-06,4.618089224095456e-05
5.137372136232443e-05,2.164174111385364e-05,1.0672145435819402e-05,-5.0774360715877265e-06,4.449541665962897e-05
6.283632683334872e-05,2.6020637960755266e-05,1.3511340512195602e-05,-1.1908276974281762e-05,4.661318598664366e-05
5.373269596020691e-05,3.620393181336112e-05,1.0336840205127373e-05,-1.2549612620205153e-05,5.364052049117163e-05
3.667822602437809e-05,4.589657692122273e-05,7.68317659094464e-06,-6.182698598422576e-06,5.8259101933799684e-05
2.498260982974898e-05,4.888018884230405e-05,9.307772415922955e-06,-1.8769320604405948e-06,5.761748616350815e-05
1.5479527064599097e-05,5.055754445493221e-05,1.23541876746458e-05,-5.853931725141592e-06,5.840781523147598e-05
4.7076327973627485e-06,4.9700400268193334e-05,1.143337522080401e-05,-1.015046382235596e-05,5.870262612006627e-05
-1.6992122255032882e-05,4.37782691733446e-05,4.390546109789284e-06,-1.046998022502521e-05,5.5836804676800966e-05
-4.9038048018701375e-05,3.986147930845618e-05,-3.3699689083732665e-06,-1.2656762919505127e-05,5.13570339535363e-05
-7.134881161618978e-05,4.046105095767416e-05,-7.957987691042945e-06,-1.4719146747665945e-05,4.961262675351463e-05
-7.6571166573558e-05,4.1081919334828854e-05,-4.773127329826821e-06,-1.5330193491536193e-05,4.886654278379865e-05
-6.547464727191254e-05,4.222946154186502e-05,-1.63891826332474e-07,-1.8192920833826065e-05,4.8847687139641494e-05
-5.550632340600714e-05,4.7794252168387175e-05,2.089958798023872e-06,-1.920699651236646e-05,4.972825990989804e-05
-6.0523118008859456e-05,5.7528835895936936e-05,5.195135599933565e-06,-1.6434712961199693e-05,5.120700370753184e-05
-7.87925164331682e-05,6.408719491446391e-05,8.912160410545766e-06,-1.3315172509464901e-05,5.291838169796392e-05
-9.102451440412551e-05,6.091140676289797e-05,1.3356851013668347e-05,-1.2064364455000032e-05,5.439564847620204e-05
-7.661703421035782e-05,4.938880738336593e-05,1.4144121450954117e-05,-1.1912294212379493e-05,5.6522123486502096e-05
-3.581370765459724e-05,4.083536987309344e-05,9.299920748162549e-06,-1.0328242751711514e-05,5.7332308642799035e-05
9.956751455320045e-06,4.2844836571021006e-05,6.526020570163382e-06,-6.755561571480939e-06,5.776892794528976e-05
3.329935861984268e-05,5.1032220653723925e-05,8.682544830662664e-06,-5.536556273000315e-06,5.773425436927937e-05
2.768055310298223e-05,5.347023034119047e-05,1.2046151823597029e-05,-7.4528138611640316e-06,5.7984565501101315e-05
1.2050461009494029e-05,4.568440272123553e-05,1.3984963516122662e-05,-8.805768629827071e-06,6.040507651050575e-05
9.574980595061788e-07,3.797443423536606e-05,1.5475518011953682e-05,-9.733827027957886e-06,6.326149014057592e-05
-9.690475053503178e-06,3.8177113310666755e-05,1.6327334378729574e-05,-1.1045261999242939e-05,6.038238643668592e-05
-1.8760025341180153e-05,4.301878288970329e-05,1.124031678045867e-05,-1.1257965525146574e-05,5.502513158717193e-05
-2.414418304397259e-05,4.366229404695332e-05,5.3066009968461e-06,-1.0530008694331627e-05,5.549914567382075e-05
-2.6058582079713233e-05,3.836771793430671e-05,7.872653441154398e-06,-1.0735353498603217e-05,5.915770452702418e-05
-2.7019335902878083e-05,3.379944246262312e-05,1.1919467397092376e-05,-8.707710549060721e-06,5.84967783652246e-05
-2.6971996703650802e-05,3.459499203017913e-05,8.725359293748625e-06,-4.195880592305912e-06,5.582485027844086e-05
-2.8709013349725865e-05,3.526634463923983e-05,1.9150104435539106e-06,-2.709557975322241e-06,5.334946763468906e-05
-2.8025109713780694e-05,2.9080063541186973e-05,-1.4700749488838483e-06,-7.317226391023723e-06,5.106226308271289e-05
-2.3369853806798346e-05,1.590146894159261e-05,2.5090996587096015e-06,-9.311523172073066e-06,5.0062146328855306e-05
-1.8381526388111524e-05,5.481999778567115e-06,7.477342023776146e-06,-4.836826974496944e-06,5.227672590990551e-05
-7.625141279277159e-06,9.629791748011485e-06,5.716741270589409e-06,-1.7478045037933043e-06,5.749356932938099e-05
6.577566637133714e-06,1.6601785318925977e-05,2.9636200906679733e-06,-3.578877340260078e-06,6.289230077527463e-05
1.1248034752497915e-05,5.302127192408079e-06,3.210866225344944e-06,-9.087052603717893e-06,6.38645506114699e-05
6.773149380023824e-06,-1.0162671060243156e-05,5.071572559245396e-06,-1.5224646631395444e-05,6.215404573595151e-05
-5.043028750151279e-07,-8.675355275045149e-06,8.983007319329772e-06,-1.3796015082334634e-05,6.342378765111789e-05
-8.005325980775524e-06,8.844337571645156e-06,9.263850188290235e-06,-7.750702025077771e-06,6.668823334621266e-05
-1.526909545646049e-05,2.4531072995159775e-05,9.66486732068006e-06,-4.296914084989112e-06,7.160456152632833e-05
-2.9820461350027472e-05,3.23984058923088e-05,1.1787524272222072e-05,-3.2517036743229255e-06,7.687116885790601e-05
-5.099516056361608e-05,3.651269798865542e-05,1.0860071597562637e-05,-3.8267312447715085e-06,8.039193198783323e-05
-7.239001570269465e-05,3.4951979614561424e-05,6.214132554305252e-06,-5.788121598016005e-06,7.663614087505266e-05
-8.459388482151553e-05,2.866382601496298e-05,3.4652364320209017e-06,-1.2776930816471577e-05,6.712481990689412e-05
-8.631293167127296e-05,1.3497049621946644e-05,4.531409558694577e-06,-2.1509709767997265e-05,5.610217704088427e-05
-8.138705743476748e-05,-6.289111297519412e-06,4.909074959869031e-06,-2.5055271180463023e-05,4.901483771391213e-05
-7.011071284068748e-05,-1.6845086065586656e-05,2.57706233242061e-06,-2.341930303373374e-05,4.9847807531477883e-05
-5.111886275699362e-05,-1.3101800504955463e-05,-1.2091841199435294e-06,-1.980126035050489e-05,5.7587254559621215e-05
-2.232395127066411e-05,-4.727236955659464e-06,-3.3322426133963745e-06,-1.516762586106779e-05,6.742126424796879e-05
1.5609999536536634e-05,-2.4981534352264134e-06,-2.9518157589336624e-06,-1.1499582797114272e-05,7.376646681223065e-05
4.9891976232174784e-05,-5.1058536882919725e-06,-1.9615888504631585e-06,-8.169092325260863e-06,7.618079689564183e-05
5.8714729675557464e-05,-1.3089247659081593e-06,3.8631181809023474e-08,-5.545926796912681e-06,7.451533747371286e-05
4.036610698676668e-05,1.084929499484133e-05,5.92681635680492e-06,-7.1438034865423106e-06,6.836059037595987e-05
1.593389970366843e-05,2.273157770105172e-05,1.1445200470916461e-05,-7.898961484897882e-06,6.227706762729213e-05
-2.824223770403478e-07,3.169854971929453e-05,1.2561170478875283e-05,-6.521488558064448e-06,6.077354555600323e-05
-8.384738066524733e-06,3.6310542782302946e-05,9.183578185911756e-06,-2.98178861157794e-06,6.0663471231237054e-05
-9.23784409678774e-06,3.879506402881816e-05,7.489777090086136e-06,1.2664061159739504e-06,5.9854526625713333e-05
-5.053307177149691e-06,4.439186886884272e-05,6.6175211941299494e-06,-2.041722382273292e-06,5.6748838687781245e-05
-5.0300768634770066e-06,5.485689325723797e-05,6.178906005516183e-06,-5.428353233583039e-06,5.2354898798512295e-05
-1.7757130990503356e-05,6.167180254124105e-05,5.9679341575247236e-06,-4.167703082202934e-06,4.8312351282220334e-05
-3.9393940824083984e-05,5.51619850739371e-05,3.2799950986373005e-06,-3.639731176008354e-06,4.719152639154345e-05
-5.90575800742954e-05,4.618046659743413e-05,-8.291667086268717e-07,-8.262882147391792e-06,4.747589264297858e-05
-6.103860505390912e-05,4.107130007469095e-05,-5.10910467710346e-06,-1.326752590102842e-05,4.951371738570742e-05
-6.040119842509739e-05,3.596358874347061e-05,-8.225212695833761e-06,-1.1990705388598144e-05,5.733340367441997e-05
-7.264213490998372e-05,2.6062865799758583e-05,-8.336750397575088e-06,-9.632642104406841e-06,6.828430923633277e-05
-8.9797489636112e-05,2.111415597028099e-05,-2.7672419946611626e-06,-9.905325896397699e-06,8.18352636997588e-05
-0.00010516144538996741,2.282892819494009e-05,2.541040203141165e-06,-1.3938584743300453e-05,9.52968985075131e-05
-0.00010831569670699537,1.6866224541445263e-05,6.294309059740044e-06,-1.5754139894852415e-05,0.00010038546315627173
-9.902752935886383e-05,6.026365326761152e-07,8.428398359683342e-06,-1.0875951375055593e-05,9.67290106927976e-05
-7.908498082542792e-05,-1.9941620848840103e-05,5.207934009376913e-06,-6.874628979858244e-06,9.157685417449102e-05
-4.5380762458080426e-05,-3.300589378341101e-05,-2.827234766300535e-06,-8.15081330074463e-06,8.768760017119348e-05
-1.3384205885813572e-06,-3.2047450076788664e-05,-1.0358365216234233e-05,-7.329971595027018e-06,8.501324919052422e-05
3.0519411666318774e-05,-1.6605215932941064e-05,-1.259217879123753e-05,-9.693603715277277e-07,8.506215817760676e-05
3.06644469674211e-05,2.6275392883690074e-06,-8.684333806741051e-06,3.4988834158866666e-06,8.692967821843922e-05
5.332929958967725e-06,1.3744513125857338e-05,-7.140443472053448e-07,-1.6136256419940764e-07,8.467327279504389e-05
-2.2417216314352117e-05,9.66498009802308e-06,3.994760390924057e-06,-9.47383523453027e-06,7.59990798542276e-05
-3.776426092372276e-05,-3.567630983525305e-06,2.7703044906957075e-06,-1.8159114915761165e-05,6.337571539916098e-05
-3.7489055102923885e-05,-7.520962753915228e-06,1.772725539694875e-07,-2.162655619031284e-05,5.4764110245741904e-05
-2.683694037841633e-05,7.0714795583626255e-06,-1.582810398303991e-07,-2.0380997739266604e-05,5.240032623987645e-05
-1.742684435157571e-05,2.711886918405071e-05,1.9996818991785403e-06,-2.2201598767424002e-05,5.022164623369463e-05
-1.536939998914022e-05,3.7795925891259685e-05,7.640856892976444e-06,-2.7999256417388096e-05,4.520949732977897e-05
-1.825226172513794e-05,4.023586370749399e-05,8.710740985407028e-06,-3.245002153562382e-05,3.8390840927604586e-05
-1.9693918147822842e-05,4.258844637661241e-05,6.080334514990682e-06,-3.2383639336330816e-05,2.8270238544791937e-05
-1.445368707209127e-05,5.073384818388149e-05,6.952147487027105e-06,-2.3415626856149174e-05,1.7310383555013686e-05
-7.887497304182034e-06,5.86927926633507e-05,6.2972835621621925e-06,-1.567892286402639e-05,1.4527061466651503e-05
-6.9567363425449e-06,5.443358531920239e-05,3.636510200522025e-06,-1.8045380784315057e-05,2.0909166778437793e-05
-1.2294985026528593e-05,2.4618808311061002e-05,2.2618414732278325e-06,-2.283936737512704e-05,3.292853944003582e-05
-1.6534304450033233e-05,-1.1439724403317086e-05,-6.223601189958572e-07,-1.7908580048242584e-05,4.5248005335452035e-05
-1.0410009053885005e-05,-1.677398176980205e-05,-1.5451472563654534e-06,-5.093460913485615e-06,5.908891762373969e-05
-8.459762284473982e-06,-5.249435730547702e-07,4.261967205820838e-06,4.310795247874921e-06,7.101872324710712e-05
-1.3733007108385209e-05,1.03042793853092e-05,9.292033610108774e-06,1.1604064638959244e-05,8.023274131119251e-05
-1.5050726688059513e-05,1.0307796401320957e-05,9.663295713835396e-06,1.286063161387574e-05,8.688656816957518e-05
-1.3524925634555984e-05,1.451531716156751e-05,6.1376117628242355e-06,6.134298473625677e-06,8.87687856447883e-05
-9.862251317827031e-06,2.324478373338934e-05,6.886780738568632e-06,-1.831333946711311e-07,8.688891102792695e-05
-6.041525011823978e-06,2.3783431970514357e-05,1.1922715202672407e-05,-2.8742194899677997e-06,8.231016545323655e-05
-6.30900274245505e-07,1.8372924387222156e-05,1.47305117934593e-05,-6.081450010242406e-06,8.117364632198587e-05
4.356127192295389e-06,1.672643338679336e-05,1.3297947589308023e-05,-1.1224395166209433e-05,8.137489930959418e-05
-1.1868113460877794e-06,2.2415952116716653e-05,1.1317755706841126e-05,-1.690551289357245e-05,8.024860289879143e-05
-1.6923122529988177e-05,3.138542524538934e-05,1.0836799447133671e-05,-1.9325982066220604e-05,7.628172897966579e-05
-3.458540959400125e-05,3.959404057241045e-05,1.0776308045024052e-05,-1.8516426280257292e-05,7.412693230435252e-05
-4.5601798774441704e-05,4.205136792734265e-05,1.0788288818730507e-05,-1.6445255823782645e-05,7.526527770096436e-05
-4.5276799937710166e-05,4.0651782910572365e-05,1.0212162123934831e-05,-1.445030102331657e-05,7.432069833157584e-05
-4.0254857594845816e-05,3.782381099881604e-05,1.23610107038985e-05,-1.4661614841315895e-05,6.9626301410608e-05
-3.623974771471694e-05,3.833015580312349e-05,1.4427913811232429e-05,-1.4232563444238622e-05,6.280282832449302e-05
-3.14591197820846e-05,4.223030919092707e-05,1.3572657735494431e-05,-1.1037082913389895e-05,5.631843305309303e-05
-2.6052965040435083e-05,4.35641486546956e-05,1.1757799256884027e-05,-6.877316991449334e-06,5.223114203545265e-05
-1.9341670849826187e-05,3.776100493269041e-05,1.2261783922440372e-05,-4.686742613557726e-06,5.0647031457629055e-05
-1.3981547454022802e-05,3.29692593368236e-05,1.3867760571883991e-05,3.2911287917158916e-07,4.9464593757875264e-05
-1.6448271708213724e-05,3.396578904357739e-05,1.4039043890079483e-05,8.740978046262171e-06,4.643375359592028e-05
-2.3995464289328083e-05,3.170288255205378e-05,1.3720936294703279e-05,8.042312401812524e-06,3.948308585677296e-05
-2.898490129155107e-05,2.7826443329104222e-05,1.061438706528861e-05,-3.255165665905224e-06,3.255662522860803e-05
-2.8405234843376093e-05,3.1993586162570864e-05,6.433218914025929e-06,-1.0817873771884479e-05,2.865312490030192e-05
-2.7707215849659406e-05,3.960604954045266e-05,7.566264230263187e-06,-1.0053985533886589e-05,2.812205821101088e-05
-2.4264460080303252e-05,4.9423062591813505e-05,1.3607968867290765e-05,-1.0613076483423356e-05,2.826257150445599e-05
-2.3956356017151847e-05,6.172290886752307e-05,1.844113830884453e-05,-1.3681296877621207e-05,3.367603858350776e-05
-3.085241041844711e-05,7.067323895171285e-05,1.9683135178638622e-05,-1.40074007504154e-05,4.634576544049196e-05
-3.422463487368077e-05,6.535365537274629e-05,1.9876079022651538e-05,-1.8484381143935025e-05,5.441328539745882e-05
-3.902636672137305e-05,3.365927477716468e-05,1.4577007277694065e-05,-2.519624467822723e-05,5.103716466692276e-05
-3.987279342254624e-05,7.198824278020766e-06,9.23689003684558e-06,-2.8057096642442048e-05,4.319227809901349e-05
-3.045963057957124e-05,1.1302226084808353e-05,4.205773620924447e-06,-2.701004996197298e-05,4.159766103839502e-05
-2.387568019912578e-05,3.3622396585997194e-05,-1.81440509550157e-06,-2.110751302097924e-05,4.5106004108674824e-05
-2.6436451662448235e-05,5.428658550954424e-05,-2.905675728470669e-06,-1.3563112588599324e-05,4.575825369101949e-05
-2.6889780201599933e-05,5.862480975338258e-05,-3.2490131616214057e-06,-7.743889909761492e-06,4.252952930983156e-05
-2.5728644686751068e-05,4.869531039730646e-05,-3.210768909411854e-06,-6.371509698510636e-06,4.11263681598939e-05
-3.0727449484402314e-05,3.825694875558838e-05,1.3159394711692585e-06,-9.167321877612267e-06,4.2673713323893026e-05
-3.4470729588065296e-05,3.394344821572304e-05,5.536172466236167e-06,-1.1554137017810717e-05,4.749948493554257e-05
-2.7012656573788263e-05,2.994319402205292e-05,7.229463335534092e-06,-1.1342285688442644e-05,5.555303141591139e-05
-1.5559789972030558e-05,1.6788229913800023e-05,8.707595952728298e-06,-9.72932502918411e-06,6.151322304503992e-05
-1.1322781574563123e-05,-2.9069065021758433e-06,8.369643182959408e-06,-7.58889382268535e-06,6.128425593487918e-05
-1.654106381465681e-05,-1.6321742805303074e-05,7.605141036037821e-06,-5.548001354327425e-06,5.776078251074068e-05
-2.842567118932493e-05,-1.662612885411363e-05,9.099756425712258e-06,-3.713657179105212e-06,5.418411092250608e-05
-3.4749733458738774e-05,5.138260235071357e-07,1.3074164598947391e-05,6.793876536903554e-07,5.0489619752625003e-05
-2.8246680813026614e-05,2.9603001166833565e-05,1.4791807188885286e-05,6.468113497248851e-06,5.139527274877764e-05
-1.89086113095982e-05,4.889713090960868e-05,1.3477480024448596e-05,8.634500773041509e-06,5.822319144499488e-05
-1.8907834601122886e-05,5.1692997658392414e-05,9.865609172265977e-06,4.584526777762221e-06,6.276518979575485e-05
-2.0486262656049803e-05,5.817707642563619e-05,5.230875103734434e-06,-5.24523693457013e-06,6.537991430377588e-05
-1.6494168448843993e-05,7.424441719194874e-05,2.4322398530784994e-06,-1.2261933079571463e-05,6.861792644485831e-05
-1.3201182810007595e-05,8.498813986079767e-05,2.8567824301717337e-06,-1.2400868399708997e-05,6.756855145795271e-05
-9.31275098992046e-06,8.184328180504963e-05,2.0194643184368033e-06,-1.0771374036266934e-05,6.362831481965259e-05
-1.1351958164595999e-05,6.730899622198194e-05,-4.861042270931648e-07,-1.0095806828758214e-05,6.080191087676212e-05
-1.561913450132124e-05,4.871840064879507e-05,6.079013132875843e-07,-8.325033377332147e-06,6.244388350751251e-05
-1.7174810636788607e-05,4.200644980301149e-05,3.0012024581083097e-06,-5.34282298758626e-06,6.582713103853166e-05
-2.5185234335367568e-05,4.2458559619262815e-05,3.125384466784453e-07,-4.350732524471823e-06,6.759446841897443e-05
-3.6419634852791205e-05,3.749259849428199e-05,-4.218889444018714e-06,-9.786383998289239e-06,6.659943755948916e-05
-4.9769125325838104e-05,3.61616512236651e-05,-7.650590305274818e-06,-1.666101707087364e-05,6.714186019962654e-05
-5.432084799394943e-05,3.779818507609889e-05,-8.534874723409303e-06,-1.5949615772115067e-05,7.398099842248484e-05
-3.8514892366947606e-05,3.092029510298744e-05,-4.69325959784328e-06,-1.0859209396585356e-05,8.235391578637064e-05
-5.336803496902576e-06,1.5850280760787427e-05,3.1620475056115538e-06,-7.389430720650125e-06,8.306725794682279e-05
2.287732422701083e-05,9.08120273379609e-06,1.0331032171961851e-05,-6.941082119737985e-06,7.592348265461624e-05
3.0092727683950216e-05,1.6015119399526156e-05,1.2604987205122598e-05,-8.389119102503173e-06,7.049961277516559e-05
1.3213177226134576e-05,2.6444573450135067e-05,1.4043907867744565e-05,-1.2726943168672733e-05,6.999557808740065e-05
-1.0449577530380338e-05,3.07590926240664e-05,1.275685372092994e-05,-1.7911890608957037e-05,7.486392132705078e-05
-2.0270181266823784e-05,3.3396230719517916e-05,5.854377377545461e-06,-2.0447960196179338e-05,8.109124610200524e-05
-1.6172994946828112e-05,4.063737651449628e-05,-1.5610541481692053e-07,-2.0385527022881433e-05,8.591328514739871e-05
-1.2874424101028126e-05,4.8359459469793364e-05,-2.9953528724036005e-07,-1.84094715223182e-05,8.516197704011574e-05
-1.818928649299778e-05,5.230353417573497e-05,2.5154761260637315e-06,-1.5497547792620026e-05,7.65123259043321e-05
-2.525269337638747e-05,4.845784860663116e-05,4.139403245062567e-06,-1.3769786164630204e-05,6.532025145133957e-05
-3.306550206616521e-05,3.640848080976866e-05,4.351850748207653e-06,-1.4611649021389894e-05,5.633769978885539e-05
-4.2915562517009676e-05,2.650050191732589e-05,4.379651727504097e-06,-1.919794340210501e-05,4.845339935855009e-05
-5.561666330322623e-05,2.858939114958048e-05,5.3670123634219635e-06,-2.878940722439438e-05,4.026952592539601e-05
-6.820721318945289e-05,3.282943362137303e-05,8.5203555499902e-06,-3.6870347685180604e-05,3.519613528624177e-05
-7.482262299163267e-05,2.7532856620382518e-05,9.702065653982572e-06,-3.607795588322915e-05,3.882794771925546e-05
-6.945447239559144e-05,1.4694302990392316e-05,7.860637197154574e-06,-2.9282666218932718e-05,4.8135370889212936e-05
-5.504587898030877e-05,8.016385436349083e-06,7.426811862387694e-06,-1.8755192286334932e-05,5.2251612942200154e-05
-3.2742136681918055e-05,1.541495294077322e-05,6.501132247649366e-06,-8.53145684232004e-06,5.3452651627594605e-05
-3.8858297557453625e-06,3.224970350856893e-05,5.293845333653735e-06,-3.9937421547620033e-07,5.611354572465643e-05
3.1711908377474174e-05,4.1243260056944564e-05,9.493824109085836e-06,9.691053492133506e-06,5.914043867960572e-05
5.740763299399987e-05,4.560167872114107e-05,1.3144558579369914e-05,1.734121178742498e-05,5.850259185535833e-05
4.405887011671439e-05,5.722587957279757e-05,8.074877769104205e-06,2.0933059204253368e-05,5.274283103062771e-05
1.0565166121523362e-05,6.432144436985254e-05,3.741128921319614e-06,1.776181670720689e-05,5.2709328883793205e-05
-6.7338555709284265e-06,6.581052002729848e-05,2.618284725031117e-06,7.847186680010054e-06,5.792934825876728e-05
-1.234211140399566e-05,6.303621921688318e-05,-7.356708010775037e-06,-1.298245661018882e-05,6.031716839061119e-05
-1.7792623111745343e-05,5.669479287462309e-05,-2.0532446797005832e-05,-4.363357584225014e-05,5.803424573969096e-05
-2.5879344320856035e-05,4.61502349935472e-05,-2.6399515263619833e-05,-6.472964741988108e-05,5.547932960325852e-05
-2.8095060770283453e-05,3.431245932006277e-05,-2.2875079594086856e-05,-6.904469046276063e-05,5.6667166063562036e-05
-2.8768072297680192e-05,2.9377351893344894e-05,-1.5520243323408067e-05,-6.220283830771223e-05,5.1530616474337876e-05
-3.640120121417567e-05,2.834752194758039e-05,-8.664771485200617e-06,-5.0692375225480646e-05,3.9058999391272664e-05
-5.2395738748600706e-05,2.2734458980266936e-05,-2.2736526261724066e-06,-3.9667847886448726e-05,2.9060693123028614e-05
-6.391233182512224e-05,1.2161402082710993e-05,3.3901633287314326e-06,-2.924474210885819e-05,3.3178977901116014e-05
-5.733401849283837e-05,8.121764039970003e-06,7.586444098706124e-06,-1.7635047697694972e-05,5.3049636335344985e-05
-3.680918234749697e-05,1.1125212949991692e-05,8.810880899545737e-06,-2.531171276132227e-06,7.691689825151116e-05
-1.7115096852649003e-05,7.4323311309854034e-06,1.0222152923233807e-05,1.7910149836097844e-05,8.990782225737348e-05
-1.1787891708081588e-05,-1.7685588318272494e-06,1.3706387107959017e-05,3.617287802626379e-05,8.386765694012865e-05
-1.8722197637544014e-05,-2.551856141508324e-06,1.9157530914526433e-05,4.849061224376783e-05,6.771802145522088e-05
-2.921009945566766e-05,9.408371624886058e-06,2.4498729544575326e-05,5.842422251589596e-05,5.8607689425116405e-05
-3.5757057048613206e-05,2.746227983152494e-05,2.873369521694258e-05,6.429645873140544e-05,5.984244489809498e-05
-3.697401552926749e-05,3.559313699952327e-05,3.0515589969581924e-05,5.7478275266475976e-05,5.957515895715915e-05
-3.071058381465264e-05,2.2493677533930168e-05,2.8294762159930542e-05,4.12892441090662e-05,5.325723032001406e-05
-2.2408339646062814e-05,9.497810424363706e-06,2.4486580514349043e-05,2.6903842808678746e-05,4.9064627091865987e-05
-1.8429207557346672e-05,1.7178907000925392e-05,2.0891593521810137e-05,1.62456290127011e-05,5.276247611618601e-05
-3.0302084269351326e-05,2.350846989429556e-05,1.7458052752772346e-05,8.32760451885406e-06,5.8392510254634544e-05
-5.5114600399974734e-05,1.674431041465141e-05,1.4639443179476075e-05,4.7066196202649735e-06,5.869934830116108e-05
-7.98843611846678e-05,7.2462839852960315e-06,1.3981039046484511e-05,4.096998964087106e-06,5.537216929951683e-05
-9.736685751704499e-05,-4.032653123431373e-06,1.8871929569286294e-05,5.331362444849219e-07,5.696415973943658e-05
-0.00010495189781067893,-1.220784724864643e-05,2.3719429009361193e-05,-1.853785215644166e-05,6.639408093178645e-05
-0.00011126072786282748,-1.564551166666206e-05,2.0610084902727976e-05,-4.7974957851693034e-05,7.502739754272625e-05
-0.00010841510083992034,-1.956317646545358e-05,8.643773071526084e-06,-7.140490924939513e-05,8.152191730914637e-05
-8.476060611428693e-05,-2.110629247908946e-05,-3.4968345516972477e-06,-8.701188198756427e-05,8.814324246486649e-05
-5.0696002290351316e-05,-1.7647540516918525e-05,-6.888174084451748e-06,-9.503494220552966e-05,8.997965778689831e-05
-2.3719840100966394e-05,-1.0043959264294244e-05,-3.43393548973836e-06,-9.581186168361455e-05,8.802583033684641e-05
-1.5611416529281996e-05,-1.7670196257313364e-06,2.063830606857664e-06,-8.771614375291392e-05,8.241961768362671e-05
-1.7119580661528744e-05,6.737344619978103e-07,4.665912911150372e-06,-7.210562034742907e-05,7.443062349921092e-05
-2.048295209533535e-05,3.374726702531916e-06,1.772624045770499e-06,-5.041833719587885e-05,6.376439705491066e-05
-2.0484156266320497e-05,1.6049341866164468e-05,-5.521814728126628e-06,-2.527060132706538e-05,5.534047159017064e-05
-1.3098286217427813e-05,3.2291110983351246e-05,-1.2254853572812863e-05,-4.741536486108089e-06,5.595940456259996e-05
4.799358066520654e-06,4.0959115722216666e-05,-1.4978030776546802e-05,1.8000159798248205e-06,6.159466283861548e-05
1.9407814761507325e-05,4.060071296407841e-05,-1.2528570550784934e-05,1.2120250403313548e-06,6.410682544810697e-05
1.978374712052755e-05,3.962315895478241e-05,-5.864261765964329e-06,1.7197902479892946e-06,6.440863944590092e-05
1.3040908925177064e-05,4.088276546099223e-05,2.9502916731871665e-06,5.331459760782309e-06,6.356451922329143e-05
8.79251729202224e-06,4.278683627489954e-05,1.0661692613211926e-05,1.239248194906395e-05,5.782938387710601e-05
9.254147698811721e-06,4.656218152376823e-05,1.4170937902235892e-05,1.35458640215802e-05,4.7535904741380364e-05
5.364197932067327e-06,5.50198856217321e-05,1.2655380487558432e-05,-5.958103884040611e-06,3.904401819454506e-05
-6.172063876874745e-06,6.386948371073231e-05,5.039662482886342e-06,-3.5896944609703496e-05,3.684664989123121e-05
-1.4772414033359382e-05,6.722318357788026e-05,-5.832008810102707e-06,-4.355575219960883e-05,3.43104220519308e-05
-8.082281965471338e-06,6.494736589957029e-05,-7.784869922033977e-06,-1.8716904378379695e-05,2.7120284357806668e-05
1.164610239356989e-06,6.246069096960127e-05,4.315763817430707e-06,1.960078407137189e-05,1.704199894447811e-05
-1.6207349062824505e-06,5.9731573855970055e-05,1.989120755752083e-05,5.719919136026874e-05,8.056501428654883e-06
-9.866588698059786e-06,4.624581924872473e-05,3.1891824619378895e-05,9.589084947947413e-05,-2.140501692338148e-06
-1.2135401448176708e-05,2.739389310590923e-05,3.72767353837844e-05,0.00012906608753837645,-4.766964593727607e-06
-1.400715973431943e-05,1.707181945675984e-05,3.719093729159795e-05,0.00015269737923517823,8.724300641915761e-06
-1.854488618846517e-05,1.404438262397889e-05,3.638341877376661e-05,0.00017024533008225262,2.3710643290542066e-05
-2.7100870283902623e-05,5.771747055405285e-06,4.1032857552636415e-05,0.000181835304829292,2.890851283154916e-05
-3.8190835766727105e-05,-1.2246040569152683e-05,5.103839066578075e-05,0.00018322204414289445,2.9400374842225574e-05
-4.011874625575729e-05,-1.859306030382868e-05,5.89003466302529e-05,0.00016834717825986445,3.042442949663382e-05
-3.298338197055273e-05,-1.2562930351123214e-05,5.896582661080174e-05,0.00013076522736810148,3.8756930734962225e-05
-2.760410643531941e-05,-7.887039828347042e-06,4.777390859089792e-05,7.974559412105009e-05,4.2733005102491006e-05
-2.7942984161200002e-05,2.097069227602333e-06,3.366014061612077e-05,2.673982089618221e-05,1.8537126379669644e-05
-3.5504286643117666e-05,1.5904071915429085e-05,1.7558259060024284e-05,-2.3340544430539012e-05,-1.851438355515711e-05
-4.617957165464759e-05,2.8747308533638716e-05,1.357135147372901e-06,-7.208431634353474e-05,-4.084281317773275e-05
-5.4438638471765444e-05,3.183087756042369e-05,-9.16299904929474e-06,-0.00012168771354481578,-3.983531496487558e-05
-5.742555731558241e-05,3.4970467822859064e-05,-1.3966758160677273e-05,-0.00016021498595364392,-1.688253541942686e-05
-6.219730130396783e-05,4.7948851715773344e-05,-1.5573899872833863e-05,-0.00017294699500780553,2.8426062272046693e-05
-6.106165528763086e-05,6.80513767292723e-05,-1.6748797861509956e-05,-0.00016311478975694627,9.95961599983275e-05
-4.8003566917032003e-05,7.931301661301404e-05,-1.6837597286212258e-05,-0.0001422847417416051,0.00017921904509421438
-3.2209452911047265e-05,7.381559407804161e-05,-1.6319492715410888e-05,-0.00011807079135905951,0.00023160173441283405
-2.6886225896305405e-05,5.880298704141751e-05,-1.3521206710720435e-05,-9.753270569490269e-05,0.00023766390222590417
-3.661457230919041e-05,3.9513714000349864e-05,-9.992502782552037e-06,-7.619283860549331e-05,0.0002096819953294471
-5.621194213745184e-05,2.138468698831275e-05,-6.931108146090992e-06,-5.274528302834369e-05,0.0001750249502947554
-7.801764877513051e-05,8.634857294964604e-06,-7.88108263805043e-06,-3.8428283005487174e-05,0.00014703866327181458
-8.649229857837781e-05,7.980513146321755e-06,-1.3094994756102096e-05,-3.892329186783172e-05,0.00012455151590984315
-7.105137774487957e-05,1.7741518604452722e-05,-1.7118754840339534e-05,-4.3765761802205816e-05,0.00010765100887510926
-3.1205756386043504e-05,2.6134806830668822e-05,-1.502993382018758e-05,-4.529954821919091e-05,0.00010327872587367892
8.779840754868928e-06,3.0425135264522396e-05,-8.65268702909816e-06,-4.718040509033017e-05,0.00011250090756220743
1.7682727047940716e-05,3.6674482544185594e-05,-3.909238785126945e-06,-5.399737710831687e-05,0.00011381033982615918
-5.1799679567920975e-06,4.3772932258434594e-05,-6.086594112275634e-06,-6.318558007478714e-05,9.22359322430566e-05
-3.3373929909430444e-05,5.726602830691263e-05,-1.2024131137877703e-05,-7.374583947239444e-05,6.505254714284092e-05
-4.937927224091254e-05,7.222199201351032e-05,-1.7346754248137586e-05,-7.876900053815916e-05,5.344407691154629e-05
-4.682092185248621e-05,8.710015390533954e-05,-1.817629708966706e-05,-7.400410686386749e-05,6.018001295160502e-05
-3.207984991604462e-05,0.00010423782077850774,-1.4017925423104316e-05,-6.735944771207869e-05,7.541786908404902e-05
-1.348565911030164e-05,0.00010591212776489556,-1.2995075849175919e-05,-7.241720595629886e-05,8.302649075631052e-05
-7.42950260246289e-06,8.484572754241526e-05,-2.0641658920794725e-05,-9.428929479327053e-05,8.080744737526402e-05
-1.3340641089598648e-05,6.173479050630704e-05,-3.5366214433452114e-05,-0.00011425742559367791,7.230828487081453e-05
-1.02260992207448e-05,4.36587943113409e-05,-4.853678910876624e-05,-0.00012298111687414348,6.70045628794469e-05
-2.3824364348001836e-07,3.045050470973365e-05,-5.7682158512761816e-05,-0.00011842294770758599,7.320321310544387e-05
-4.57108080809121e-06,2.746387144725304e-05,-6.064359695301391e-05,-9.504177432972938e-05,8.216386049753055e-05
-2.6703679395723157e-05,3.218702113372274e-05,-5.127963959239423e-05,-5.704236900783144e-05,8.49890784593299e-05
-4.9589216359891e-05,3.63504295819439e-05,-3.055948400287889e-05,-1.68046335602412e-05,8.678274025442079e-05
-5.4656480642734095e-05,3.614751767599955e-05,-8.161041478160769e-06,1.0780989214254078e-05,9.932633838616312e-05
-3.622372605605051e-05,2.354164644202683e-05,9.83654445008142e-06,1.866030834207777e-05,0.00011592353985179216
-1.1281435945420526e-05,1.6635447082080645e-06,1.9098866687272675e-05,1.2965764653927181e-05,0.00011991682549705729
4.696273208537605e-06,-1.2480923032853752e-05,2.159849645977374e-05,7.6278024607745465e-06,0.00010211197513854131
7.484019988623913e-06,-1.053018968377728e-05,2.59112857747823e-05,1.5526240531471558e-05,6.950835813768208e-05
-3.4091331144736614e-06,-1.2441892067727167e-06,3.6824774724664167e-05,3.097720036748797e-05,3.88240696338471e-05
-2.3512007828685455e-05,6.854765160824172e-06,5.118193803355098e-05,4.0136888856068254e-05,2.5077571990550496e-05
-4.038674524053931e-05,1.2469009561755229e-05,6.185720849316567e-05,4.3463605834404007e-05,2.5803508833632804e-05
-4.175695721642114e-05,1.1508627721923403e-05,6.397975084837526e-05,5.18339584232308e-05,2.6556466764304787e-05
-2.6554271244094707e-05,8.905973118089605e-06,5.5762004194548354e-05,6.209977436810732e-05,1.977096871996764e-05
-6.946115263417596e-06,8.474286914861295e-06,4.0138387703336775e-05,6.201648648129776e-05,1.1023287697753403e-05
5.871492703590775e-06,1.5748634041301557e-06,2.4465565729769878e-05,5.744308509747498e-05,9.080595191335306e-06
1.6650086763547733e-05,-2.7456771931611e-05,1.4847915736027062e-05,5.2579296607291326e-05,1.5835017620702274e-05
2.6148829419980757e-05,-5.4869873565621674e-05,8.689641617820598e-06,4.4604465074371547e-05,2.9387641916400753e-05
2.8152033337391913e-05,-4.691980575444177e-05,3.6296266898716567e-06,4.1557585063856095e-05,4.617171362042427e-05
2.116219729941804e-05,-2.427292929496616e-05,5.286516625346849e-06,4.642740896088071e-05,5.911535117775202e-05
6.099799520598026e-06,-7.369619197561406e-06,1.2772682566719595e-05,4.9363592552253976e-05,6.60458899801597e-05
-5.238543508312432e-06,4.758907834911952e-06,1.5861744032008573e-05,4.809615347767249e-05,6.495355046354234e-05
-1.586492362548597e-05,7.575934432679787e-06,1.1973760592809413e-05,4.964103936799802e-05,5.422666436061263e-05
-3.5884600947611034e-05,-2.118180418619886e-06,7.068464583426248e-06,5.725952723878436e-05,4.020213964395225e-05
-5.607764614978805e-05,-1.5116139366000425e-05,6.315718565019779e-06,7.077274494804442e-05,2.1506457414943725e-05
-5.979424167890102e-05,-1.688846714387182e-05,1.0542914424149785e-05,8.716494630789384e-05,4.053107204526896e-06
-5.4285752412397414e-05,-1.3265543202578556e-05,1.6579249859205447e-05,9.327637235401198e-05,-1.2365229849820025e-05
-4.875784361502156e-05,-1.2453452654881403e-05,1.8407397874398157e-05,7.959418871905655e-05,-2.718190080486238e-05
-3.7417066778289154e-05,-1.167569644167088e-05,1.4585712051484734e-05,5.32384256075602e-05,-3.617114634835161e-05
-2.5313300284324214e-05,-5.452680852613412e-06,8.854146472003777e-06,2.8656022550421767e-05,-3.974793798988685e-05
-1.4759553778276313e-05,-3.5751858717958385e-07,6.170776941871736e-06,1.083102779375622e-05,-2.3001255613053218e-05
-3.2484542771271663e-06,5.169191808818141e-06,4.949466529069468e-06,-6.187043254612945e-06,2.2089587218943052e-05
9.514789780951105e-06,1.534757757326588e-05,5.389912985265255e-06,-2.2223895939532667e-05,7.309126522159204e-05
1.8236918549519032e-05,3.4730604966171086e-05,7.501993877667701e-06,-3.235539043089375e-05,9.849642810877413e-05
1.6059968402259983e-05,5.247608351055533e-05,7.372545951511711e-06,-3.2901039958233014e-05,8.329247793881223e-05
1.58230398028536e-06,6.365237641148269e-05,7.023144917184254e-06,-2.566066905274056e-05,4.245432864991017e-05
-1.672961843723897e-05,7.709780766163021e-05,9.602193131286185e-06,-1.9605427951319143e-05,1.7997292161453515e-05
-3.334165012347512e-05,9.18401638045907e-05,1.2523551959020551e-05,-2.3058933948050253e-05,3.4364704333711416e-05
-4.8451413022121415e-05,9.566203516442329e-05,1.0077432307298295e-05,-4.0277449443237856e-05,7.25407589925453e-05
-6.136226875241846e-05,8.778899791650474e-05,2.7513228815223556e-06,-6.503328040707856e-05,0.00010070377902593464
-6.708432192681357e-05,7.978980283951387e-05,-4.129069566261023e-06,-8.221948519349098e-05,0.00011316697055008262
-6.131311238277704e-05,6.26015171292238e-05,-7.5148241194256116e-06,-8.180158329196274e-05,0.00011900862591573969
-4.7047062253113836e-05,3.410613862797618e-05,-8.285459443868604e-06,-7.289334462257102e-05,0.00012569948739837855
-3.027635466423817e-05,1.690875069471076e-05,-7.162293513829354e-06,-6.719752855133265e-05,0.00013207430311013013
-1.4031319551577326e-05,2.5748659027158283e-05,-3.879788891936187e-06,-6.559395842486992e-05,0.0001246223400812596
-5.807584784633946e-06,4.237973189447075e-05,1.1979365126535413e-06,-5.596967457677238e-05,9.968865924747661e-05
-1.1890472705999855e-05,5.918676470173523e-05,-7.652556064385863e-07,-3.584483783924952e-05,7.204117719084024e-05
-2.2696442101732828e-05,8.459723903797567e-05,-5.579860953730531e-06,-1.6933923689066432e-05,5.6481709179934114e-05
-2.855117963918019e-05,0.00011235235433559865,-3.3260907912335824e-06,-3.879379164573038e-06,4.82058385387063e-05
-3.541545811458491e-05,0.00012882173177786171,1.8373156080997433e-06,6.573515292984666e-06,3.5690009099198505e-05
-5.7489658502163365e-05,0.00013167073484510183,7.480680324079003e-06,1.4490706234937534e-05,2.449663406878244e-05
-8.206710481317714e-05,0.00012733896437566727,8.874546438164543e-06,1.0779221156553831e-05,2.1203557480475865e-05
-8.541678835172206e-05,0.00011998638365184888,3.4458644222468138e-06,-1.070472899300512e-05,2.6116069420822896e-05
-7.606211875099689e-05,0.00010718587145674974,-7.016636573098367e-06,-3.553781789378263e-05,3.0719344067620113e-05
-6.657874473603442e-05,9.373958891956136e-05,-1.6168614820344374e-05,-4.5648979721590877e-05,3.226852277293801e-05
-5.5635588068980724e-05,7.656528032384813e-05,-1.735292244120501e-05,-4.614718636730686e-05,4.406891093822196e-05
-5.022565892431885e-05,6.42842787783593e-05,-1.1710792023222893e-05,-4.2070856579812244e-05,6.891068915138021e-05
-4.4507683924166486e-05,5.694078572560102e-05,-9.206582035403699e-06,-4.04025377065409e-05,8.945658919401467e-05
-3.3678272302495316e-05,4.2890958866337314e-05,-1.1132897270726971e-05,-4.2766354454215616e-05,8.884724957169965e-05
-2.3311300537898205e-05,6.787892289139563e-06,-1.1610300134634599e-05,-4.968036955688149e-05,7.054742309264839e-05
-1.6847377992235124e-05,-3.8693586247973144e-05,-1.1862141946039628e-05,-5.414387123892084e-05,4.975133924745023e-05
-1.2848972801293712e-05,-5.932031854172237e-05,-9.746259820531122e-06,-5.1918384997406974e-05,3.951974576921202e-05
-7.612932222400559e-06,-4.8082511057145894e-05,-4.796087523573078e-06,-4.1504459659336135e-05,4.2834129999391735e-05
-1.659223812566779e-06,-2.4868384571163915e-05,2.032176553257159e-06,-1.834209615481086e-05,5.420739034889266e-05
-3.6106897027821105e-07,-1.086204792954959e-05,9.717694410937838e-06,1.5134175555431284e-05,6.71089073875919e-05
-2.168977289329632e-06,-1.642206007090863e-05,1.844952021201607e-05,4.671756687457673e-05,7.899480988271534e-05
4.856159193877829e-06,-4.6555109292967245e-05,2.7085898182122037e-05,5.957396570011042e-05,8.462784899165854e-05
2.430861241009552e-05,-7.202255073934793e-05,3.3177449950017035e-05,5.470129690365866e-05,8.312094723805785e-05
4.157044895691797e-05,-5.167174094822258e-05,3.204758104402572e-05,5.015158967580646e-05,7.84372678026557e-05
3.8819023757241666e-05,6.998619937803596e-06,2.517040047678165e-05,6.279456283664331e-05,7.200962136266753e-05
1.9992627130704932e-05,5.177355706109665e-05,2.2156118575367145e-05,8.882380643626675e-05,6.424047751352191e-05
-9.829060445554205e-07,5.4776119213784114e-05,2.650213718879968e-05,0.00011486209405120462,5.687527300324291e-05
-8.888635420589708e-06,1.6428110029664822e-05,3.124057548120618e-05,0.00012170051195425913,5.348305785446428e-05
-2.8061244847776834e-06,-3.9748832932673395e-05,3.123444548691623e-05,0.0001064569951267913,5.4048043239163235e-05
-8.052218163356883e-07,-8.075673395069316e-05,2.494753607606981e-05,6.649264105362818e-05,5.5003780289553106e-05
-1.9904173313989304e-05,-9.288574801757932e-05,1.0402884072391316e-05,-8.093270480458159e-06,5.478111779666506e-05
-5.4545216698898e-05,-6.722839316353202e-05,-7.2930056376208086e-06,-8.486409205943346e-05,5.3522289817919955e-05
-7.311742228921503e-05,-1.7815445971791632e-05,-2.0179712009849027e-05,-0.00011216004349989817,5.4906322475289926e-05
-6.63587125018239e-05,2.8288279281696305e-05,-2.5774254027055576e-05,-0.00010841005860129371,5.493163189385086e-05
-5.439570304588415e-05,5.28225427842699e-05,-2.9817450922564603e-05,-0.00010992655734298751,4.888884723186493e-05
-4.556865314953029e-05,4.736902337754145e-05,-3.0240400519687682e-05,-0.00012799911201000214,4.468061160878278e-05
-4.894951416645199e-05,3.442725937929936e-05,-2.70913169515552e-05,-0.00015246767725329846,4.532744060270488e-05
-6.165763625176623e-05,2.7640271582640707e-05,-2.3192544176708907e-05,-0.00013922955258749425,4.9753125495044515e-05
-6.910150841576979e-05,3.969512181356549e-05,-1.608682214282453e-05,-8.16614629002288e-05,5.0694954552454874e-05
-6.13834272371605e-05,5.812707604491152e-05,-3.303264975329512e-06,-1.4258974260883406e-05,4.4941123633179814e-05
-4.441204509930685e-05,6.885101902298629e-05,1.4804665624978952e-05,3.7925357901258394e-05,4.257135515217669e-05
-3.520250538713299e-05,6.990722613409162e-05,3.541041587595828e-05,7.778053259244189e-05,5.1433158660074696e-05
-3.25207547575701e-05,7.025095692370087e-05,5.357920963433571e-05,0.00010544068936724216,6.66206979076378e-05
-3.17112026095856e-05,7.296061812667176e-05,5.8225090469932184e-05,0.00010791188105940819,7.792733231326565e-05
-3.338368333061226e-05,7.26424332242459e-05,4.878257823293097e-05,8.17257896414958e-05,8.215933485189453e-05
-3.633230517152697e-05,6.658476195298135e-05,3.593528163037263e-05,3.93493173760362e-05,8.084226283244789e-05
-3.8930855225771666e-05,6.048078284948133e-05,1.9207589502912015e-05,-1.107818115997361e-05,7.426677620969713e-05
-4.337928839959204e-05,6.774505891371518e-05,-2.3190907540993067e-06,-5.955396773060784e-05,6.0599610151257366e-05
-4.949143112753518e-05,8.011984027689323e-05,-1.6599218724877574e-05,-8.068569150054827e-05,3.653507519629784e-05
-5.1520335546229035e-05,8.82983222254552e-05,-2.051048431894742e-05,-7.302715675905347e-05,5.138418600836303e-06
-5.1439590606605634e-05,8.701527985977009e-05,-1.9059554688283242e-05,-5.960104681435041e-05,-2.6127889213967137e-05
-5.379651702241972e-05,7.764990732539445e-05,-1.1147822078783065e-05,-5.06437718286179e-05,-4.552480822894722e-05
-4.7002129576867446e-05,6.393856165232137e-05,1.0593215620247065e-06,-4.0892769902711734e-05,-3.279534212197177e-05
-3.052524698432535e-05,5.7023684348678216e-05,8.90879709913861e-06,-2.9100758183631115e-05,2.0896619389532134e-05
-2.5947003450710326e-05,4.9263908294960856e-05,9.506434253125917e-06,-7.198204912128858e-06,8.011783211259171e-05
-3.227602792321704e-05,3.99491582356859e-05,9.735359526530374e-06,3.90051536669489e-05,9.795080404728651e-05
-3.375539381522685e-05,3.678179928101599e-05,1.7509144527139142e-05,0.00010054264566861093,7.73137217038311e-05
-3.715725688380189e-05,4.2044772271765396e-05,3.487556750769727e-05,0.00015231147699523717,5.37385385541711e-05
-4.806586730410345e-05,5.3183644922683015e-05,5.3557196224574e-05,0.00017531323828734457,4.923136657453142e-05
-5.369145219447091e-05,5.761157444794662e-05,6.483341712737456e-05,0.00015478329441975802,6.942595064174384e-05
-5.169635551283136e-05,5.0141668907599524e-05,6.275289342738688e-05,0.00010923347872449085,8.48029158078134e-05
-3.950796599383466e-05,3.765291694435291e-05,5.247029912425205e-05,7.658575486857444e-05,6.94021800882183e-05
-1.6484336811117828e-05,2.673063863767311e-05,4.2528936319286004e-05,6.130505789769813e-05,5.200605664867908e-05
-7.729195772299136e-07,1.983061338250991e-05,2.9988137612235732e-05,4.4874224840896204e-05,5.4890952014829963e-05
3.419330596443615e-06,5.728009000449674e-06,1.3305038010003045e-05,1.0647968338162173e-05,7.644111610716209e-05
9.379446964885574e-06,-1.632916428206954e-05,-5.103168859932339e-06,-3.4075132134603336e-05,9.535811841487885e-05
2.1965910491417162e-05,-3.468466456979513e-05,-1.7877659047371708e-05,-7.523372187279165e-05,0.00010510779975447804
3.313616616651416e-05,-5.107835750095546e-05,-2.352466071897652e-05,-0.00010297977132722735,0.0001181438856292516
4.3927579099545255e-05,-8.589251956436783e-05,-2.374261566728819e-05,-0.00011731507402146235,0.0001334814733127132
5.853309266967699e-05,-0.0001226862659677863,-2.1278669009916484e-05,-0.00012340853572823107,0.00013397412840276957
7.15405767550692e-05,-0.00011382457887521014,-1.9285764210508205e-05,-0.0001199263715534471,0.0001156573198386468
6.813677464378998e-05,-4.577777872327715e-05,-1.9287281247670762e-05,-0.0001097529602702707,9.572819544700906e-05
4.299028660170734e-05,4.214807995595038e-05,-2.01726707018679e-05,-9.396570385433733e-05,8.172037632903084e-05
9.004983439808711e-06,0.0001096373816835694,-2.2628972146776505e-05,-7.277933764271438e-05,6.808303442085162e-05
-1.8329283193452284e-05,0.00014670977543573827,-2.407907049928326e-05,-4.843570422963239e-05,4.835156869376078e-05
-3.270083834649995e-05,0.0001542682875879109,-1.7717826267471537e-05,-2.352271076233592e-05,2.7242955184192397e-05
-3.6764497053809464e-05,0.00013749877689406276,-5.4062847993918695e-06,-7.448804808518616e-07,1.3878903700970113e-05
-3.685666524688713e-05,0.00010114433098351583,3.894930159731302e-06,1.4766111235076096e-05,1.5081410310813226e-05
-3.934583946829662e-05,5.787699046777561e-05,9.703125215310138e-06,2.605495865282137e-05,2.1807753000757657e-05
-4.328412251197733e-05,2.1581425244221464e-05,1.4506221305055078e-05,3.944859417970292e-05,2.089646295644343e-05
-4.635851291823201e-05,6.059929091861704e-07,1.3524213500204496e-05,5.082180359750055e-05,7.846070730010979e-06
-4.2958756239386275e-05,-1.4000882401887793e-05,9.878032869892195e-06,5.863746991963126e-05,-1.3500314253178658e-06
-3.0949384381528944e-05,-2.1324842236936092e-05,1.0876556189032272e-05,6.89178123138845e-05,1.4248664228944108e-05
-2.626436616992578e-05,-1.5714576875325292e-05,1.6439105820609257e-05,6.672049494227394e-05,4.839585380977951e-05
-3.4533841244410723e-05,-5.219822469371138e-06,2.08249894058099e-05,3.599687261157669e-05,7.729886419838294e-05
-4.217687455820851e-05,9.055327154783299e-07,2.372066956013441e-05,-1.1417532732593827e-05,9.172839781967923e-05
