-1.1943649042223115e-05,-4.2222363845212385e-05,2.6368552425992675e-05,1.4833008208370302e-06,4.60623086837586e-05
-2.0554070943035185e-05,-1.416483246430289e-05,2.2918278773431666e-05,-3.5536297673388617e-06,4.248118420946412e-05
-2.3627368136658333e-05,3.435171311139129e-05,1.887156759039499e-05,-5.834209787280997e-06,3.966100121033378e-05
-1.4751297385373618e-05,8.359345520148054e-05,1.5718225768068805e-05,-3.783295596804237e-06,3.6488836485659704e-05
-7.569940407847753e-06,0.0001157740771304816,1.481959225202445e-05,-4.656852070183959e-06,3.7858135328860953e-05
-1.1208934665773995e-05,0.00012361526023596525,1.0704120541049633e-05,-1.2289606274862308e-05,4.109924702788703e-05
-2.3176613467512652e-05,0.00011367895785951987,3.4497959404689027e-06,-2.000930362555664e-05,4.304588946979493e-05
-4.0320795960724354e-05,9.728772420203313e-05,-2.7710077574738534e-06,-2.324838533240836e-05,4.210205588606186e-05
-5.43650530744344e-05,7.073750748531893e-05,-1.0328797088732244e-06,-2.4940996809164062e-05,4.2718846088973805e-05
-5.372123632696457e-05,3.6311557778390124e-05,1.8627553117767093e-06,-2.858967854990624e-05,4.479558629100211e-05
-4.462908691493794e-05,5.220186721999198e-06,5.266246262181085e-06,-2.7369589588488452e-05,4.850171535508707e-05
-2.9703116524615325e-05,-8.933012395573314e-06,7.440236458933214e-06,-2.1823598217451945e-05,5.131647048983723e-05
-1.3235018741397653e-05,-5.98509177507367e-06,5.757430244557327e-06,-1.5088668078533374e-05,5.294563015922904e-05
-2.662206952663837e-06,-3.051060730285826e-06,2.8414183361746836e-06,-1.1918325071746949e-05,5.239172969595529e-05
4.361812244724206e-08,-1.295886977459304e-05,3.0210103432182223e-06,-1.1849147995235398e-05,5.422185859060846e-05
2.6172149318881566e-06,-2.684035280253738e-05,6.433366252167616e-06,-1.4882436516927555e-05,5.992891965433955e-05
1.0568357538431883e-05,-2.502918323443737e-05,8.860434718371835e-06,-1.838388379837852e-05,6.487012433353812e-05
1.8648896002559923e-05,-3.5360869787837146e-06,8.72926557349274e-06,-1.896441972348839e-05,6.70058507239446e-05
2.2592806999455206e-05,2.7358975785318762e-05,6.127302640379639e-06,-1.7058044250006787e-05,6.749104068148881e-05
2.115614915965125e-05,5.4374966566683725e-05,4.1125749703496695e-06,-1.5767445802339353e-05,6.920129817444831e-05
1.2855793102062307e-05,7.459530752385035e-05,4.858408374275314e-06,-1.4115531485003885e-05,6.978867895668373e-05
4.4363699203131546e-07,8.786746911937371e-05,6.311116067081457e-06,-1.3017144738114439e-05,6.87408319208771e-05
-1.301688371313503e-05,8.508583414368331e-05,6.029044016031548e-06,-1.3579090591520071e-05,6.539416790474206e-05
-2.666806358320173e-05,6.095157004892826e-05,7.953575732244644e-06,-1.3684159966942389e-05,6.275904888752848e-05
-4.299957072362304e-05,2.5149565772153437e-05,1.0632866178639233e-05,-1.3566906091000419e-05,6.078822480048984e-05
-5.3067513363203034e-05,-1.5816872291907202e-06,8.715239346201997e-06,-8.132707080221735e-06,6.0966951423324645e-05
-5.4277781600831077e-05,-5.818814770464087e-06,5.9367407629906666e-06,-3.633433834693278e-06,5.963972580502741e-05
-5.7951878261519596e-05,1.0415501492389012e-06,3.8300277083180845e-06,-4.3090394683531485e-06,5.52186684217304e-05
-5.7643381296657026e-05,-5.478487423715706e-07,1.9811885465514933e-07,-2.7596963718679035e-06,5.318242983776145e-05
-5.69465737498831e-05,-4.100772002857411e-06,2.10246284382265e-07,-3.399391289349296e-06,5.6249242334160954e-05
-6.027195558999665e-05,6.993974693614291e-06,2.214634832853335e-06,-1.005597096082056e-05,5.7408738939557225e-05
-6.427616608561948e-05,1.2065070222888608e-05,5.995136689307401e-06,-1.1751273632398807e-05,5.536873504752293e-05
-6.924444460310042e-05,-6.60408613839536e-06,9.653121196606662e-06,-8.323407200805377e-06,5.339515337254852e-05
-7.000060577411205e-05,-1.8709870346356183e-05,7.739936336292885e-06,-9.335267350252252e-06,5.4606232879450545e-05
-6.542011396959424e-05,-1.5350307194239576e-06,3.783046395255951e-06,-1.5330570022342727e-05,5.809435242554173e-05
-5.9311369113856927e-05,2.9774533686577342e-05,4.106115284230327e-06,-2.0807307009818032e-05,5.828779103467241e-05
-4.8651654651621357e-05,6.333778583211824e-05,5.144363512954442e-06,-2.043556742137298e-05,5.553303344640881e-05
-3.5668981581693515e-05,8.505630103172734e-05,4.7525686568405945e-06,-1.5921365047688596e-05,5.4758766054874286e-05
-2.4827182642184198e-05,8.090715709840879e-05,6.318422947515501e-06,-1.480337687098654e-05,5.506848174263723e-05
-1.995458842429798e-05,5.305157901602797e-05,9.594857147021685e-06,-1.6747302652220242e-05,5.5511332902824506e-05
-1.654260813666042e-05,2.3801356292096898e-05,1.1956474736507516e-05,-1.6002673874027096e-05,5.9220630646450445e-05
-6.6572574723977596e-06,5.133356808073586e-06,1.1890401765413117e-05,-1.2547913684102241e-05,6.42751474515535e-05
6.475288955698488e-06,-9.089221748581622e-06,1.206240358442301e-05,-1.0251975254504941e-05,6.412436050595716e-05
1.5989049643394537e-05,-1.0910416676779278e-05,1.1882815670105629e-05,-7.898911462689284e-06,5.477782906382345e-05
1.9455050278338604e-05,2.0669227524194866e-05,1.0976094927173108e-05,-5.171542852622224e-06,3.715480852406472e-05
1.687802250671666e-05,7.560900849057361e-05,9.38357425184222e-06,-5.399851033871528e-06,1.6323276213370264e-05
4.648094545700587e-06,0.00010455345181981102,6.442650374083314e-06,-7.565701253042789e-06,-3.00314945889113e-06
-6.64838307784521e-06,8.07626056484878e-05,3.853609541693004e-06,-1.0226549420622177e-05,-1.4831380212854128e-05
-6.6354405134916306e-06,2.4906572434701957e-05,4.428602096595569e-06,-1.1228994480916299e-05,-1.3932835827290546e-05
-5.080763912701514e-06,-2.603291068226099e-05,4.502573119680164e-06,-1.0328346434107516e-05,-7.842014383641072e-06
-1.7085112631320953e-05,-7.072024891385809e-05,1.57140675582923e-06,-1.8816670490195975e-05,-5.857994892721763e-06
-3.511302566039376e-05,-0.00010910814307862893,-1.5294926924980246e-06,-3.5246990591986105e-05,-8.33779267850332e-06
-3.8485373806906864e-05,-9.560773469274864e-05,-1.2470369483708055e-06,-3.68962500942871e-05,-8.490375876135658e-06
-2.810388832585886e-05,-3.554586510290392e-05,-2.0461000076466007e-06,-2.0116889572818764e-05,-8.210902251448715e-07
-2.6414900275995024e-05,8.124309715640265e-06,-2.6108598376595182e-06,6.4943656070681754e-06,1.4238214134820737e-05
-3.28226997226011e-05,1.642743700358551e-05,-3.5103660138702253e-06,2.008811497944407e-05,2.559403219493106e-05
-3.5497232602210715e-05,1.2370229342195671e-05,-4.935756351187592e-06,1.334594617219409e-05,3.035579720744863e-05
-3.7604138924507424e-05,1.5753974366816692e-05,-6.274649422266521e-07,1.943120878422633e-06,3.33111674990505e-05
-3.800011472776532e-05,2.0040677554789e-05,8.485258717882971e-07,-9.339413736597635e-06,3.260689481976442e-05
-3.7402682210085914e-05,2.1142548575880937e-05,-3.040937826881418e-06,-1.4383080269908533e-05,2.947994289570488e-05
-4.3973239371553063e-05,3.3350799640174955e-05,-6.344916528178146e-06,-1.60619783855509e-05,2.7336893253959715e-05
-6.114070129115134e-05,6.532470433739945e-05,-4.5072188186168205e-06,-1.8340168026043102e-05,2.614173172332812e-05
-7.379560702247545e-05,9.558297460898757e-05,3.3793412512750365e-08,-2.4547267457819544e-05,2.79126143141184e-05
-7.122838724171743e-05,0.00010690613999031484,1.4995379160609446e-06,-2.7839814720209688e-05,3.100952017121017e-05
-6.006363400956616e-05,9.70758919720538e-05,5.7138713316362555e-08,-2.8527560061775148e-05,3.4454820706741884e-05
-4.655947850551456e-05,8.002481627045199e-05,9.947279977495782e-07,-2.6368054022896104e-05,3.9343980461126193e-05
-3.1583051168126985e-05,6.81839810567908e-05,3.428925083426293e-06,-2.164109901059419e-05,4.588627416524105e-05
-1.4614053725381382e-05,6.329509778879583e-05,1.8373135617366643e-06,-1.8073249520966783e-05,4.874065416515805e-05
-2.973492883029394e-06,6.061335443519056e-05,-2.5678690462882514e-07,-1.5354893548646942e-05,4.80113631056156e-05
-6.994191608100664e-06,5.5905780754983425e-05,-5.280239747662563e-07,-1.133770274464041e-05,5.043456258135848e-05
-2.3974938812898472e-05,5.170770236873068e-05,-4.003294634458143e-06,-3.129146989522269e-06,5.5022082960931584e-05
-4.0606439142720774e-05,4.6732639020774513e-05,-1.3934108210378326e-05,4.70800796392723e-06,5.681454422301613e-05
-4.813103805645369e-05,4.2573254177113995e-05,-2.4117080101859756e-05,1.0274414307787083e-05,5.761110514868051e-05
-4.348620859673247e-05,4.183620694675483e-05,-2.763006887107622e-05,1.2396905731293373e-05,6.14253876847215e-05
-3.271474997745827e-05,4.4243493903195485e-05,-2.1680489226127975e-05,1.1960981282754801e-05,6.685063272016123e-05
-2.957928336400073e-05,4.321878441260196e-05,-1.1350449312885758e-05,3.416690788071719e-06,7.23368430044502e-05
-3.271115929237567e-05,3.987042873632163e-05,-1.0547759075052454e-06,-1.7908329027704895e-05,7.660946721443906e-05
-3.370988997630775e-05,3.721340908668935e-05,9.215147656504996e-06,-4.238268593326211e-05,8.286040247185156e-05
-3.229154026485048e-05,3.750079849851318e-05,2.0484356355154887e-05,-4.519229332800023e-05,8.491420157952234e-05
-2.5043251298484392e-05,3.995919178123586e-05,3.066556382691488e-05,-2.952583054138813e-05,8.124057785607874e-05
-1.5933594113448635e-05,5.2731258620042354e-05,3.731615288415924e-05,-1.5208062905003317e-05,7.904421363491565e-05
-1.3590138223662507e-05,7.904238736955449e-05,3.84530212613754e-05,-9.181165296467952e-06,7.934113818919286e-05
-1.777742181729991e-05,8.98112339200452e-05,3.446254777372815e-05,-1.1176193766004872e-05,8.471347246086225e-05
-1.940875154105015e-05,8.053838973864913e-05,3.125076909782365e-05,-1.8781018297886476e-05,9.146274533122778e-05
-1.6300586139550433e-05,6.459416908910498e-05,2.8196835046401247e-05,-2.4257700715679675e-05,9.432936349185184e-05
-1.3012229828746058e-05,3.667630153358914e-05,2.4190012481994927e-05,-2.1637670215568505e-05,9.201055945595726e-05
-1.3013495845370926e-05,4.0496274777979124e-06,2.1728443243773654e-05,-1.92030674952548e-05,8.68901188368909e-05
-1.2745869753416628e-05,-1.8064498362946324e-05,2.3177661205409095e-05,-2.0209032300044782e-05,8.505384175805375e-05
-7.104520591383334e-06,-1.7252428733627312e-05,2.491415580152534e-05,-1.9781055016210303e-05,8.667472866363823e-05
-7.2184589043899905e-06,-8.495457223034464e-06,2.7022169888368808e-05,-1.6424875866505317e-05,8.691953553352505e-05
-1.1803398592746817e-05,-5.22014670423232e-06,2.5382723833899945e-05,-9.837332072493155e-06,8.574007370043546e-05
-1.3210324141255114e-05,-8.081709893303923e-06,2.1549016310018487e-05,-3.89395927413716e-06,8.823733514873311e-05
-1.4282566553447396e-05,-6.758374183846172e-06,1.9491482817102224e-05,-1.491936927777715e-06,9.237178164767101e-05
-1.7728150851326063e-05,-3.3570355384426875e-08,1.7963937352760695e-05,-1.817035126805422e-06,9.372385102324188e-05
-1.9057975805480964e-05,1.0639741049089935e-05,1.3866080735169817e-05,-1.9240585515944986e-06,8.998429984785616e-05
-1.7717700757202692e-05,1.864851037680637e-05,7.41387202651822e-06,-3.5113856711177505e-07,8.38438281789422e-05
-1.624691503820941e-05,1.4724600987392478e-05,3.708971007654327e-06,1.720272138072687e-07,7.977146742632613e-05
-1.4339399967866484e-05,5.2018654059793334e-06,3.5763819141720887e-06,-8.837405971462431e-07,8.063001587288454e-05
-1.3663739082403481e-05,3.520836571624386e-06,3.0726189379493007e-06,-1.1240123285460868e-06,8.556900138501078e-05
-1.4329559235193301e-05,1.3611260328616481e-05,-9.43247925988544e-07,-5.143489261172363e-07,9.046342893270776e-05
-1.5700527001172304e-05,2.7477430194267072e-05,-2.80535323327058e-06,1.2646260074689053e-06,9.240405779564753e-05
-1.8861812350223772e-05,4.3364234443288296e-05,2.8278375907575537e-07,4.869893928116653e-06,8.99734950507991e-05
-2.577254235802684e-05,5.428505755844526e-05,5.324654921423644e-06,6.044738711352693e-06,8.553225052310154e-05
-3.468135400908068e-05,5.771852738689631e-05,7.101877145032631e-06,6.525000571855344e-06,8.390332368435338e-05
-4.5371081796474755e-05,5.165417678654194e-05,5.937266905675642e-06,8.34241473057773e-06,8.37431289255619e-05
-5.4440624808194116e-05,3.8392980059143156e-05,3.4542756566224853e-06,5.773064458480803e-06,8.016113133635372e-05
-6.153416325105354e-05,1.739248909871094e-05,4.410674421251315e-07,-1.0271446804210882e-08,7.826690125511959e-05
-7.131959137041122e-05,-9.304364539275412e-06,-2.871927563319332e-06,-2.1781052055303007e-06,8.128732588374987e-05
-8.094935037661344e-05,-3.91027242585551e-05,-8.538645488442853e-07,-4.501897819864098e-06,8.670752868056297e-05
-8.846144191920757e-05,-5.8358658861834556e-05,1.7643695855440455e-06,-8.74362467584433e-06,9.384507575305179e-05
-9.078932635020465e-05,-5.654520646203309e-05,3.1286958801501896e-06,-6.853569175291341e-06,9.643113298807293e-05
-8.964486914919689e-05,-3.448387360549532e-05,8.103387699520681e-06,8.539847726751759e-07,9.308194421464577e-05
-8.385985711356625e-05,3.245301286369795e-06,9.780112122825813e-06,1.4291698562374222e-06,8.893637277651578e-05
-7.170122262323275e-05,4.236488530295901e-05,7.49131277189008e-06,-6.20425680608605e-07,8.892594632925466e-05
-5.4972209909465164e-05,7.163062400650233e-05,5.94050789004541e-06,-5.06067465266824e-07,9.327243606094271e-05
-2.8785299946321175e-05,0.00010117056808667257,4.240568159730174e-06,-7.76881904585025e-07,9.45275096455589e-05
-2.0382897218951257e-06,0.0001200063488795422,2.8098361326556187e-06,-2.8357198971207254e-06,9.344353020424023e-05
1.4699534403916914e-05,9.465051698498428e-05,2.5829958758549765e-06,-7.034629561530892e-06,8.878517110133544e-05
1.4798963093198836e-05,3.65435189451091e-05,4.074902790307533e-06,-1.2362357665551826e-05,8.155347313731909e-05
5.257101747702109e-06,-5.484600933414185e-06,8.91445051820483e-06,-1.5223619811877143e-05,7.706382893957198e-05
-3.479073029666324e-06,-2.05817796086194e-05,1.0121360901393928e-05,-8.937670827435795e-06,7.625619036844e-05
-1.3407567166723311e-05,-2.578296152933035e-05,6.915303401910933e-06,3.704901928358595e-06,7.548708526883274e-05
-2.6334575522923842e-05,-2.197508183598984e-05,5.0474841373215895e-06,1.0970308721880428e-05,6.998102617217228e-05
-3.0795148632023484e-05,-7.029088919807691e-06,5.022021468903404e-06,6.997333912295289e-06,6.584860966540873e-05
-1.3342253623704892e-05,4.69765609523165e-06,5.5176965361170005e-06,-1.841787479861523e-06,6.928384391358122e-05
1.7048589143087156e-05,1.979639137061895e-06,6.634571946051437e-06,-1.1099366020062007e-05,7.625191210536286e-05
3.813604052993469e-05,1.8746903151622973e-05,5.289527052809717e-06,-1.765841261658352e-05,7.709606143180281e-05
4.0311064367415383e-05,8.173633250407875e-05,-2.066235538222827e-06,-1.7920696336659603e-05,7.247528264997527e-05
3.295609349152073e-05,0.00013882668281439692,-1.0555369044595864e-05,-1.2499363037932198e-05,6.90951055730693e-05
2.3646245608688332e-05,0.00013903887884225696,-1.4328131328511517e-05,-7.556392574770143e-06,6.738465890521184e-05
1.8023778466158547e-05,0.00012444764433894306,-1.3445705917547457e-05,-7.860612640797626e-06,6.620865315198898e-05
2.0049104932695627e-05,0.00012510769010987133,-1.3746970580541529e-05,-8.843492651067208e-06,6.468275387305766e-05
2.5002469556056894e-05,0.00011374322639312595,-1.5378394891740754e-05,-6.1453461057681125e-06,6.305880378931761e-05
2.737780232564546e-05,7.81974449637346e-05,-1.1525498848641291e-05,-8.60250111145433e-06,6.468644278356805e-05
1.641976268729195e-05,3.3330008591292426e-05,-5.700840119970962e-06,-1.819731005525682e-05,6.800088158342987e-05
-2.175476765842177e-06,-2.9301156700967113e-06,1.5109731066331733e-06,-2.5096009267144836e-05,6.884232425363734e-05
-9.562234481563792e-06,-2.3139838958741166e-05,5.2755667638848536e-06,-2.3320098989643157e-05,7.045997335808352e-05
-1.847364183049649e-05,-3.593354995246045e-05,3.674434992717579e-06,-1.6373160178773105e-05,7.399510650429875e-05
-3.1887520890450105e-05,-3.9431015466107056e-05,5.330698058969574e-06,-6.183597179187927e-06,7.59840477257967e-05
-4.034128141938709e-05,-2.032441807386931e-05,7.524168267991627e-06,3.1913673410599586e-06,7.424503564834595e-05
-4.221037306706421e-05,1.958911343535874e-05,8.623263966001105e-06,4.794521373696625e-06,6.745044811395928e-05
-3.906708661816083e-05,6.067174763302319e-05,6.6925763348990586e-06,-6.812634637753945e-06,6.402288272511214e-05
-3.722704786923714e-05,8.369857823709026e-05,6.167236278997734e-06,-2.037921512965113e-05,6.569491961272433e-05
-3.530979302013293e-05,8.788760897004977e-05,1.2177369171695318e-05,-2.4149219825631008e-05,6.639514322159812e-05
-2.8196058337925933e-05,7.258315599756315e-05,1.7170512364828028e-05,-2.5566709155100398e-05,6.618064071517438e-05
-2.050053808488883e-05,4.0639984945300967e-05,1.426332619303139e-05,-3.176015889039263e-05,6.440061406465247e-05
-2.3147516913013533e-05,8.688520210853312e-06,1.0621052751957905e-05,-3.8218880945350975e-05,6.48855057079345e-05
-3.079351154156029e-05,-3.7098468510521343e-06,1.3689616025658324e-05,-3.52706374542322e-05,6.847824261058122e-05
-3.3141317544505e-05,5.53030031369417e-06,1.795837488316465e-05,-2.8350857974146493e-05,7.243358413688838e-05
-2.9485398044926114e-05,1.9290679119876586e-05,1.737814091029577e-05,-2.3080412574927323e-05,7.05862621543929e-05
-2.4455242964904755e-05,2.93466782750329e-05,1.1612207345024217e-05,-1.9567438357626088e-05,6.493294495157897e-05
-2.3305467038881034e-05,3.2752155675552785e-05,3.762032747545163e-06,-1.4855005247227382e-05,6.130321708042175e-05
-2.614840559544973e-05,2.743680124694947e-05,-3.683930344777764e-06,-1.0580723028397188e-05,5.800286089652218e-05
-2.9259204893605784e-05,2.1466561520355754e-05,-8.571955731895287e-06,-9.429985766473692e-06,5.207027425058186e-05
-3.0982617317931727e-05,2.2092583094490692e-05,-8.474582500639372e-06,-1.0674162695067935e-05,4.6977762394817546e-05
-3.4683460398809984e-05,2.4345847123186104e-05,-2.6949030598188983e-06,-1.166127640317427e-05,4.860498302150518e-05
-3.9106918848119676e-05,2.707430030568503e-05,4.189210358163109e-06,-1.1503406312840525e-05,5.15857245773077e-05
-3.9448565075872466e-05,2.721164855756797e-05,5.692838840332115e-06,-1.1709624232025817e-05,5.015189162804745e-05
-3.465320696705021e-05,2.11871592910029e-05,4.019766038254602e-06,-1.1347356121405028e-05,4.9962862249230966e-05
-2.6334817448514514e-05,1.9630806491477415e-05,4.3032177927671e-06,-8.161532605299726e-06,5.565745959756896e-05
-2.003487679758109e-05,2.4317729184986092e-05,3.985814146290068e-06,-2.3606269223819254e-06,6.289387965807691e-05
-2.148817657143809e-05,2.654573654581327e-05,6.556490461662179e-06,3.2650871162331896e-06,6.330270116450265e-05
-2.8459524401114322e-05,2.8214855774422176e-05,1.0918197403952945e-05,6.361386567732552e-06,5.7729444961296394e-05
-3.44818108715117e-05,2.908734677475877e-05,9.553208656143397e-06,3.0691783194924938e-06,5.381191294873133e-05
-4.1770850657485425e-05,2.521460373827722e-05,7.396971341222525e-06,-2.35983929997019e-06,5.129102646606043e-05
-4.878871550317854e-05,2.141981167369522e-05,6.216106157808099e-06,-4.217400146444561e-06,4.638007885660045e-05
-5.419159060693346e-05,2.0947180018993095e-05,4.000643002655124e-06,-1.1538274975464446e-06,4.275491664884612e-05
-5.3754407417727634e-05,2.2676325897919014e-05,2.781528564810287e-06,3.839012606476899e-06,4.520864968071692e-05
-4.627307134796865e-05,2.3428488930221647e-05,4.027846898679854e-06,-3.352367457409855e-06,4.783265831065364e-05
-3.873082096106373e-05,2.0508072338998318e-05,6.135863259260077e-06,-2.775878419924993e-05,4.793962580151856e-05
-3.625360841397196e-05,1.9367529603186995e-05,6.051640411897097e-06,-4.848894968745299e-05,4.717646515928209e-05
-3.926781573682092e-05,2.078209763567429e-05,5.926114226895152e-06,-4.3314135837135836e-05,5.147284173290245e-05
-4.889782576356083e-05,1.5563122360617854e-05,6.3717743614688516e-06,-1.7089547327486798e-05,6.049853254808113e-05
-6.918596773175523e-05,9.47117314353818e-06,7.283739705599146e-06,8.624258043710142e-06,6.898841820657253e-05
-9.024947939906269e-05,9.648149898566771e-06,5.5991808949329425e-06,2.2101699869381264e-05,7.026488310657442e-05
-9.778790263226256e-05,1.1003666259057354e-05,2.4966939236037433e-06,2.095547824865207e-05,6.424409366445616e-05
-8.581612928537652e-05,2.7633730041998206e-06,2.425109641990275e-06,1.1316438758512959e-05,5.8403467846801504e-05
-6.205712998053059e-05,-1.5245874237734824e-05,5.540377060242463e-06,2.2365263703250093e-06,5.5918040743563324e-05
-3.95673923776485e-05,-3.1047642551129684e-05,9.490147022006568e-06,-1.5690995951445075e-06,5.4708554671378806e-05
-2.8747605028911494e-05,-3.6998990253778175e-05,1.3401327123574447e-05,1.535813396458252e-07,5.5036351113813e-05
-2.6884517865255475e-05,-3.3214877475984395e-05,1.62744072440546e-05,3.986726824223297e-06,5.70969823456835e-05
-2.5358560378663242e-05,-1.84878063009819e-05,1.791090107872151e-05,7.522465239162557e-06,5.766791582573205e-05
-2.7353222321835347e-05,8.2378519437043e-06,1.7949767425307073e-05,1.0270592611050233e-05,5.6142966059269384e-05
-3.506104985717684e-05,4.058012200403027e-05,1.6531083019799553e-05,9.824509106692858e-06,5.234152922639623e-05
-4.208393511362374e-05,6.511150422738865e-05,1.6787806089268997e-05,5.488479473569896e-06,4.674757656175643e-05
-4.5459684770321473e-05,6.68079374008812e-05,1.4540733900503255e-05,-3.0247954327933257e-06,4.089786671102047e-05
-4.950376387569122e-05,6.0760175983887166e-05,9.21286209631944e-06,-1.3442965610011015e-05,3.865048711304553e-05
-6.077180660213344e-05,6.987842789385468e-05,5.3944809224049095e-06,-2.2021904442226514e-05,3.856331022689119e-05
-6.917720020283014e-05,8.007541327970102e-05,1.6053678564276197e-06,-2.5075354642467573e-05,3.864373138640076e-05
-6.568599928868935e-05,7.289728819159791e-05,-6.6763427639671136e-06,-3.2399228075519204e-05,4.1155144572257996e-05
-5.525203232537024e-05,5.8714154874905944e-05,-1.545826489746105e-05,-4.402354534249753e-05,4.3962139898212627e-05
-4.218576577841304e-05,3.765572182601318e-05,-1.881485150079243e-05,-4.9054458941100165e-05,4.390616959426552e-05
-2.153438254026696e-05,2.1776797893835464e-06,-1.9131675799144432e-05,-5.016948125557974e-05,4.581784742185846e-05
1.4341161659103818e-05,-5.734071237384342e-06,-1.747187525324989e-05,-4.9575020966585726e-05,5.4331034334609285e-05
4.950085349264555e-05,4.777823414769955e-05,-1.2764649000018835e-05,-5.382977542467415e-05,7.394818385364488e-05
6.547492375830188e-05,0.000121634679089766,-9.72452835412696e-06,-5.162207526154816e-05,9.002334263641387e-05
5.6806042266543955e-05,0.00016036529268603772,-7.291126166819595e-06,-4.005449591204524e-05,8.834616164676845e-05
3.353898136992939e-05,0.0001618992246221751,-5.712744950869819e-06,-3.0057855838094838e-05,7.799144077580422e-05
1.2258726201253012e-05,0.000146520760608837,-3.251623411415494e-06,-2.174471774196718e-05,6.695635238429531e-05
-3.4531881283328403e-06,0.00012013320520054549,1.6715652009224868e-06,-1.1245796486036852e-05,5.7213961554225534e-05
-1.2463188795663882e-05,9.007866174215451e-05,7.672733772778884e-06,-1.6691958535375306e-06,5.1079718105029315e-05
-7.970744263730012e-06,6.822274735895917e-05,1.3310505892150104e-05,6.809947990404908e-06,5.001118915970437e-05
4.6377281250897795e-06,5.288417742121965e-05,1.9701199562405236e-05,1.5685051039326936e-05,5.186249109101482e-05
1.4724285392730962e-05,2.524971387174446e-05,2.4936884074122645e-05,2.3256236090674065e-05,5.476142177940346e-05
2.1249710698612034e-05,-2.9880548026994802e-05,2.5187986466335133e-05,2.9581799026345834e-05,5.8079207519767806e-05
2.684315768419765e-05,-0.00010010354890255257,2.261287772853393e-05,3.54252006218303e-05,6.003101225360297e-05
3.0549133953172714e-05,-0.00013986897829454392,2.2670525140711106e-05,4.1773153498070315e-05,5.80023079237435e-05
2.8335480237728916e-05,-0.00012461098958738148,2.5743647711351514e-05,4.340987652540207e-05,5.410716403275728e-05
2.1829144316143356e-05,-8.802805677987635e-05,2.3311304175877012e-05,3.752709744730964e-05,5.2559509640559554e-05
1.3830611351295374e-05,-6.991966074565426e-05,1.617019370314665e-05,2.325670538994018e-05,5.4498304962180555e-05
-1.3726281622439274e-06,-7.037173782009631e-05,9.977517038350925e-06,3.854666829283815e-06,5.703587885363959e-05
-2.555975879658945e-05,-6.973094423301518e-05,4.093437837582314e-06,-1.715798680379521e-05,5.896425136597827e-05
-4.5163058530306444e-05,-5.936919114901684e-05,-1.7289399920628057e-06,-4.138844451517798e-05,6.057025893824175e-05
-4.7960347728803754e-05,-3.94050803151913e-05,-1.4376754506884026e-06,-6.037276398274116e-05,6.044377732905559e-05
-3.676274718600325e-05,-1.0328786629543174e-05,3.1451120321435155e-06,-5.9425488871056587e-05,6.190440763020888e-05
-2.3970027541508898e-05,1.69836675922852e-05,6.036781087459531e-06,-4.537212589639239e-05,6.47672131890431e-05
-1.902908115880564e-05,4.41663469246123e-05,1.0352883691666648e-05,-2.6141409762203693e-05,6.25158500042744e-05
-2.751759711827617e-05,6.75941482768394e-05,1.1139535672555212e-05,-1.3984265933686402e-05,5.898700692341663e-05
-4.143404294154607e-05,7.98321925685741e-05,5.8296504903410096e-06,-1.1235457350267097e-05,5.866767241968773e-05
-5.254059942672029e-05,7.757228013360873e-05,4.573441401589662e-06,-8.479825737595093e-06,5.728187898057513e-05
-6.0196107369847596e-05,6.248946010600775e-05,8.46939019538695e-06,-8.48189210955752e-06,5.4780244681751356e-05
-5.588810017798096e-05,5.4855161579325795e-05,1.4551131243933924e-05,-1.047594105330063e-05,5.696065636584535e-05
-3.440856744418852e-05,5.7533914514351636e-05,1.4897297660354525e-05,-1.1381198419257998e-05,5.990978388581425e-05
-1.3391551874519791e-05,6.166217644931749e-05,1.261750003322959e-05,-1.2430588867573533e-05,5.8642763178795576e-05
-1.1124126103823073e-05,7.284375169547275e-05,1.0107292837346904e-05,-1.3019011021242477e-05,5.3423442295752466e-05
-1.9226356016588397e-05,9.010421490529552e-05,8.183215868484695e-06,-1.2060442713845987e-05,4.891381831839681e-05
-2.891193435061723e-05,9.441771544516087e-05,7.249072950799018e-06,-1.1996709872619249e-05,5.065018922323361e-05
-3.588640538509935e-05,7.80127156758681e-05,3.379987902007997e-06,-1.3571208910434507e-05,5.37428459210787e-05
-3.7128771509742364e-05,3.563156133168377e-05,-4.7543589971610345e-06,-1.4225588529370725e-05,5.457152292365208e-05
-3.579340045689605e-05,-8.228008482547011e-06,-1.2562816664285492e-05,-1.2430461538315285e-05,5.5415854149032384e-05
-3.652297527878545e-05,-1.961665111593902e-05,-1.251721096195979e-05,-1.0423483217891771e-05,5.658590453094803e-05
-3.882475721184164e-05,-1.514232963018003e-06,-5.3029552873340435e-06,-6.363926331687253e-06,5.628672806778923e-05
-4.0567272662883624e-05,1.7364518498652615e-05,3.82663984055398e-06,-3.25676910506445e-06,5.687069278792478e-05
-4.089599315193482e-05,2.2692660422762856e-05,9.702550414658617e-06,-5.803155090688961e-06,5.929647522862069e-05
-4.06460058002267e-05,2.5363937311340123e-05,1.2332326150499284e-05,-1.3425365978037007e-05,6.154482252895832e-05
-4.172452827333473e-05,3.137249586870894e-05,1.345257169305114e-05,-2.004098132601939e-05,6.19682832621038e-05
-3.9882092096377164e-05,3.391583959455602e-05,1.8816866941051558e-05,-2.2454092686530203e-05,6.159352051327005e-05
-3.760716936085373e-05,3.018541247001849e-05,2.4762221073615365e-05,-2.291417695232667e-05,6.172708526719362e-05
-4.3718191591324285e-05,2.5941651983885095e-05,2.3804273951100186e-05,-2.402789868938271e-05,5.997767220833339e-05
-5.2849656640319154e-05,2.0737372324219905e-05,1.829878965509124e-05,-2.236543696199078e-05,5.6622273405082524e-05
-5.0489416025811806e-05,1.6089850760181434e-05,1.6445690562250093e-05,-1.6725942259654403e-05,5.668076119036414e-05
-4.118752258364111e-05,1.5371573681477457e-05,1.4826987353444565e-05,-1.53493310790509e-05,6.112792470958084e-05
-3.669572834041901e-05,1.831315239542164e-05,1.0361362910771277e-05,-1.70760558830807e-05,6.324975402094424e-05
-3.2773998100310564e-05,2.0311745174694806e-05,3.7890408748353366e-06,-1.6589221559115686e-05,5.926511585130356e-05
-2.5676512450445443e-05,2.089657573378645e-05,-6.749979547748808e-06,-1.3284768101584632e-05,5.6645174481673166e-05
-1.8822216588887386e-05,2.6314108254155144e-05,-1.3816975297231693e-05,-9.52339541981928e-06,5.342485019355081e-05
-1.845479528128635e-05,3.1716899684397504e-05,-1.346828412351897e-05,-9.960828720068093e-06,4.899008126812987e-05
-2.5676139557617716e-05,3.478758662822656e-05,-7.5421489782456774e-06,-1.3086169019516092e-05,4.685174280893989e-05
-3.2313539122696966e-05,3.7543308280874044e-05,-3.5972511795989703e-06,-1.4310970982478466e-05,4.3326370359864086e-05
-3.073114203289151e-05,3.775701770791784e-05,-4.250534857419552e-06,-1.2855956811108626e-05,4.398958117235452e-05
-2.1603073037113063e-05,4.878338586422615e-05,-1.6925528143474367e-06,-1.1948168321396224e-05,4.9453996325610206e-05
-1.53073688125005e-05,6.325677532004192e-05,7.463787369488273e-06,-1.1796502803917974e-05,5.6348635553149506e-05
-1.4893239494995214e-05,7.036780880298465e-05,1.3056400348432362e-05,-1.0331784324080218e-05,5.844002589583397e-05
-2.055319055216387e-05,6.51695008855313e-05,5.357465397537453e-06,-1.2312120816204697e-05,5.8337969676358625e-05
-2.789115569612477e-05,5.3329800721257925e-05,-6.324309651972726e-06,-1.5701405573054217e-05,6.124078208813444e-05
-3.0678900657221675e-05,4.283075759303756e-05,-1.3640111319546122e-05,-1.5955331036821008e-05,6.308803131105378e-05
-2.8806834961869754e-05,3.83003571187146e-05,-1.1315871233819053e-05,-1.617103407625109e-05,6.118108285591006e-05
-2.815904008457437e-05,4.9892150855157524e-05,-2.7944386147282785e-06,-1.880276067822706e-05,5.864283230039291e-05
-3.71407440979965e-05,7.259620178956538e-05,5.09576693730196e-06,-2.0666349882958457e-05,5.9270230849506333e-05
-5.2969164244132116e-05,8.693218842381611e-05,1.0553313586569857e-05,-2.050104012596421e-05,6.0620801377808675e-05
-6.495908019132912e-05,7.552798342658207e-05,1.3716979083255865e-05,-2.173562825191766e-05,5.94968005316332e-05
-6.768102321075276e-05,4.9905273044714704e-05,1.3334350114746485e-05,-2.5196579372277483e-05,5.752039578510448e-05
-6.336357182590291e-05,3.560522600309923e-05,1.2976323887414765e-05,-2.7082383894594386e-05,5.679453897755593e-05
-5.564380262512714e-05,4.3011394154746085e-05,1.5571942640235648e-05,-2.5601944798836485e-05,5.6423679779982194e-05
-4.8919024266069755e-05,6.239204958546907e-05,1.7442185708205216e-05,-2.2723781512468122e-05,5.9838574088644236e-05
-4.611927943187766e-05,7.074932364048436e-05,1.7830318029155023e-05,-1.5120290299819317e-05,6.567034870386124e-05
-4.969322617398575e-05,4.0503524360246956e-05,1.490739578002831e-05,-3.0113353659544373e-06,6.765295984223485e-05
-5.0239024858456105e-05,-1.5885854736552574e-05,7.586809715576237e-06,9.388460966874845e-06,6.748389569111168e-05
-3.7373371014837176e-05,-5.9040925407316536e-05,-9.47202693168947e-07,2.0860668882960454e-05,6.910866068210453e-05
-2.5945633751689456e-05,-5.693305502063595e-05,-1.988069243452628e-06,2.7326088456902653e-05,6.950725219212472e-05
-3.092738188570365e-05,-4.266398718755227e-06,2.0247416614438407e-06,2.3388192857964896e-05,6.573877908522263e-05
-4.156231807428412e-05,4.2670162656577304e-05,3.1845086141402135e-06,1.3995162589708343e-05,6.267428398132324e-05
-4.102064485778101e-05,4.4935219193575904e-05,2.324037723155925e-06,3.0897861051926157e-06,6.719236262142658e-05
-2.673596281965729e-05,2.5877943699015304e-05,3.4423308079567505e-06,-9.305134881287813e-06,7.469687261618674e-05
-1.228470318892505e-05,1.0387994734628592e-05,1.800843620003434e-06,-1.6984573449008167e-05,7.854219438740984e-05
-9.027759915625211e-06,-5.269826488074614e-06,-2.06765449206614e-07,-1.9605422494350933e-05,7.529080903623253e-05
-1.4396850929188076e-05,-2.7230447813053615e-05,-1.9876092665072065e-06,-2.0637087800423615e-05,6.908271461725235e-05
-2.0898183720419183e-05,-3.1963689252734184e-05,-5.00304395245621e-06,-2.5739078409969807e-05,6.506714998977259e-05
-2.395520277787e-05,-1.4398691746464465e-05,-2.7903470254386775e-06,-2.90906446025474e-05,6.286777352215722e-05
-2.311028219992295e-05,1.2740259990096092e-05,3.339511522426619e-06,-2.1915588149568066e-05,6.0527923778863624e-05
-2.1426707462524064e-05,2.9660281143151224e-05,8.497098860971164e-06,-8.778763003647327e-06,5.8271019952371716e-05
-1.770174094417598e-05,3.870060754707083e-05,1.0564881449681707e-05,-6.603164592888788e-07,5.6398337619611993e-05
-9.961654541257303e-06,4.867256939178333e-05,1.094176695914939e-05,2.1689429559046403e-06,5.43834175914526e-05
5.469846655614674e-07,5.091231651022099e-05,9.386404599354137e-06,4.575411821861053e-06,5.312055873218924e-05
8.183454156096559e-06,3.70840571122244e-05,6.36576623946894e-06,5.910766958550084e-06,5.3355957788880914e-05
9.617734576750081e-06,2.139271964551881e-05,4.652845746022649e-06,8.064493158599362e-06,5.5545646318932995e-05
6.719340944982832e-06,2.309303636138793e-05,6.2718822846363764e-06,9.104827768169343e-06,5.695800791727379e-05
3.777322262976668e-06,3.8259298889897764e-05,8.749037078814581e-06,8.279876965389121e-06,5.4500105761690065e-05
4.81281722386484e-06,4.872309000347741e-05,8.73653516464401e-06,3.635387656686362e-06,4.943506064591929e-05
3.5586203921411652e-06,3.884769103024155e-05,8.431460628344212e-06,-3.146944663967588e-06,4.809585880138911e-05
-7.454735168721527e-06,8.785334102867637e-06,9.756007784744725e-06,-8.13178667158354e-06,5.0677277613431215e-05
-2.1970501620671712e-05,-3.2994743378367275e-05,7.69927919463953e-06,-1.0696216122596525e-05,5.30187608092092e-05
-3.236461998312734e-05,-5.170970325707458e-05,3.0940777833166067e-06,-1.3135679182596505e-05,5.4668365919496864e-05
-4.106016058358364e-05,-2.5765009922906756e-05,2.5993945200752933e-06,-1.1350884051353205e-05,5.6805391068337485e-05
-4.373146657599136e-05,2.1788770027342252e-05,4.8316533138859086e-06,-7.392250608972972e-06,5.570904249907471e-05
-3.9055645174812526e-05,5.56995983060915e-05,5.07989489051397e-06,-7.141494279494509e-06,5.044091449235566e-05
-3.0727234843652695e-05,6.416984979296103e-05,3.1297388431994477e-06,-8.217636604967993e-06,4.841273766942322e-05
-2.2842812541057356e-05,5.996449908707291e-05,1.4893807929183822e-06,-9.977638910640962e-06,5.4352098231902346e-05
-2.743905679380987e-05,6.129297253210098e-05,2.0518468772934284e-06,-7.108365480235079e-06,6.201402720762417e-05
-4.5007032895227894e-05,5.938725371379405e-05,5.218806563789258e-06,-3.769976274270448e-06,6.340328400256112e-05
-6.0373273299774155e-05,5.022204641136341e-05,7.412321338051697e-06,-1.121984860219527e-05,5.9525464166654274e-05
-6.637042679358274e-05,4.022876237286255e-05,5.798528036393691e-06,-2.4260547434096225e-05,5.709460674552247e-05
-6.363959255395457e-05,3.4042011975543573e-05,2.684340870473534e-06,-3.139784894301556e-05,5.813093957840465e-05
-5.123414666741155e-05,2.880271858884953e-05,8.755575890972978e-07,-2.944138577731792e-05,5.889406384085305e-05
-3.372980791027658e-05,2.4435965315205976e-05,1.10739563297102e-06,-2.330487586732488e-05,5.7141496654367074e-05
-2.1241883587208577e-05,1.627039091545157e-05,3.4237632462463807e-06,-2.064373438770417e-05,5.595847324002534e-05
-1.7342501450912096e-05,-3.2956691029539797e-06,3.6169510622130474e-06,-1.9766303012147546e-05,5.6116568885045126e-05
-1.8239396013086662e-05,-1.9606679416028783e-05,3.131821131319157e-06,-1.5430441635544412e-05,5.55015831196215e-05
-2.306722308276221e-05,-1.1665493730106391e-05,5.814560608996544e-06,-7.229481980175478e-06,5.3489438869291916e-05
-2.5191000531776808e-05,2.101316385960672e-05,8.528648322680965e-06,2.9790257940476295e-06,5.156247425475158e-05
-1.742112908686977e-05,5.323971709003672e-05,8.636047823529225e-06,1.0060400200018194e-05,4.93593979626894e-05
-7.368020305875689e-06,6.23884261585772e-05,7.900527634774335e-06,1.0909639968303964e-05,4.587450894177891e-05
-2.563808266131673e-06,5.194693585508503e-05,8.131510185194202e-06,7.862268830649555e-06,4.235819505993277e-05
-5.270706424198579e-06,3.9858598029240966e-05,1.0543792996031698e-05,5.847206466569332e-06,4.073498348589055e-05
-1.3961413060314953e-05,4.303969399188645e-05,1.4598794223275036e-05,9.65741855907254e-06,4.1694896935950965e-05
-2.3662309104111046e-05,6.933885742910206e-05,1.4317497516458388e-05,1.2952285032952204e-05,4.223902942612767e-05
-2.919908001786098e-05,9.843411680776626e-05,8.7993712440948e-06,6.886423307150835e-06,3.9722901419736445e-05
-2.9009979698457755e-05,0.00010053771256934851,5.776955731562339e-06,-5.192919616092695e-06,3.863703750539571e-05
-2.448777922836598e-05,7.756810373393819e-05,9.655108442530036e-06,-1.5077925127116032e-05,4.278864071238786e-05
-1.8140166503144428e-05,6.185492384247482e-05,1.1571029062906746e-05,-1.7660549929132685e-05,4.897002872894518e-05
-1.1799525054811966e-05,5.9927177062490955e-05,4.4665407585853245e-06,-1.7711454347590916e-05,5.297289681038819e-05
-4.579072538035689e-06,4.633484786609188e-05,-5.187487204239005e-06,-2.0951052647433244e-05,5.070925544714555e-05
4.466727204999188e-06,1.508480818301905e-05,-1.1046543477277737e-05,-2.4630115149193443e-05,4.760111551149748e-05
8.021361281862482e-06,-9.821023922995664e-06,-1.141429765993962e-05,-2.9696977435378358e-05,4.960059595759958e-05
7.463966539944522e-06,-1.6747115296311677e-05,-9.934015906765126e-06,-3.0369090382009745e-05,5.324428639141843e-05
2.010480602621101e-05,-2.28346780204447e-05,-1.1564055967028253e-05,-2.3652310119359754e-05,5.2385894377948716e-05
3.939252928830683e-05,-3.200028368155472e-05,-1.5041953702166211e-05,-2.2119884306448512e-05,5.071736450190656e-05
4.323222310631536e-05,-2.404309452685993e-05,-1.7119895346695557e-05,-2.8443673727451824e-05,5.1532668294385076e-05
2.737404611252714e-05,2.4723397018533433e-06,-1.7228074284503236e-05,-3.517524601193145e-05,4.952460585627705e-05
1.426999006071128e-06,2.9174218070693314e-05,-1.7822632798925042e-05,-3.656924673123285e-05,4.302160596125759e-05
-2.7911135475733317e-05,3.948861194658093e-05,-1.4814359019510448e-05,-3.1142470106715336e-05,3.726881186594255e-05
-4.89424382976722e-05,2.9263012038427405e-05,-6.6082106968679e-06,-2.3036869606585242e-05,4.013974466943182e-05
-5.42730231245514e-05,6.538025445479434e-06,2.5842059585556854e-06,-1.569157393532805e-05,4.705937681137584e-05
-5.111533755552955e-05,-7.754465514153708e-06,7.718978849879932e-06,-1.1807705959654413e-05,5.0469614507164806e-05
-4.271985744708218e-05,-4.4670855459116865e-06,1.0165174899157137e-05,-9.499995940132067e-06,5.253095514490269e-05
-2.998670970555395e-05,2.3505632270826027e-05,1.0785459380713291e-05,-5.390306341723772e-06,5.5231168516911566e-05
-1.5528516087215394e-05,6.354961806209758e-05,9.068478902918287e-06,-3.207379450032022e-06,5.728605538024567e-05
-5.842585323989624e-06,7.320501026697457e-05,5.987994882161729e-06,-6.1633336372324266e-06,5.617513306788169e-05
-2.4882231173251057e-06,3.2510819437447935e-05,1.862976773736591e-06,-1.3587050489149988e-05,5.309917833073996e-05
-1.675018779678794e-06,-2.699939841477317e-06,-3.3732003430486657e-06,-2.1938853024039418e-05,5.1623148465296254e-05
-2.1560090317507274e-06,2.2292782887234353e-05,-9.368458449898753e-06,-2.59499647654593e-05,5.4339216148946434e-05
-3.8096907246654155e-06,7.383173942798749e-05,-1.0844543794519268e-05,-2.0838786440435797e-05,5.77688952034805e-05
-5.260214038571576e-06,8.976447134045884e-05,-6.618043244088767e-06,-1.111038181988988e-05,5.9053571021649987e-05
-4.488897957344307e-06,6.229031714610755e-05,-1.0178839602303924e-06,-9.935452908393927e-06,5.726643212256022e-05
-7.388529411400668e-06,3.25315268128179e-05,-1.239499880512085e-07,-2.2690797777613625e-05,5.299110125633888e-05
-2.092811519105453e-05,3.0358891308424063e-05,-3.397324917386868e-06,-3.42953899234999e-05,5.052827327745035e-05
-3.684128387249075e-05,5.132349542691372e-05,-6.264870080485707e-06,-3.55640149791725e-05,4.931179864797741e-05
-4.176876609562896e-05,6.436868716264144e-05,-7.656411980860867e-06,-3.9643229683861136e-05,4.75120687042363e-05
-3.537781958584674e-05,5.8787594753084704e-05,-1.7713715351419523e-05,-4.6307312004501e-05,4.9739966925699264e-05
-2.610109731904231e-05,4.9319911340717226e-05,-2.7218895411351696e-05,-3.913811087841168e-05,5.783018787042238e-05
-2.1888972696615383e-05,4.5015138312010095e-05,-1.8754735719994642e-05,-1.631326085771434e-05,6.389629561454058e-05
-2.032690099440515e-05,3.4277240047231317e-05,-1.4139130826151813e-06,1.1039828677894548e-05,6.603454676223919e-05
-1.7219193978235126e-05,2.0400095309014432e-05,1.1979938790318556e-05,2.7837313609779812e-05,6.676567136310041e-05
-2.0528461391222663e-05,2.094614683301188e-05,2.3668724679737352e-05,3.63497129001189e-05,6.548584497068077e-05
-3.224005558877252e-05,3.2409170671598986e-05,3.211064176866785e-05,4.21802542405203e-05,6.009143908158876e-05
-4.005342998425476e-05,4.09174790547695e-05,3.745377398445271e-05,4.7647285100538284e-05,5.806780973216519e-05
-3.807382381637581e-05,4.056614852743223e-05,4.524733958533034e-05,5.129595228936523e-05,6.272316386457533e-05
-3.151444980176166e-05,3.567864769138396e-05,4.820318645215593e-05,4.9008587666321546e-05,6.783432036172599e-05
-2.8987649784539826e-05,3.339234899613075e-05,5.0600672693690285e-05,4.9312944611301646e-05,7.438124885084108e-05
-2.9960739993839525e-05,3.0369084925041534e-05,5.530541966436431e-05,5.246394721325487e-05,7.83096911618486e-05
-3.571492197806947e-05,2.191747807955835e-05,5.825375410495326e-05,5.272564885672182e-05,7.572161121061072e-05
-4.444404839887284e-05,5.563892500504153e-06,5.657182919094339e-05,4.816218643100001e-05,6.601796485483646e-05
-4.657760291593149e-05,-4.0176046240958385e-06,5.1717866881517693e-05,4.53011343779508e-05,5.439391316031106e-05
-4.13539310102351e-05,5.464347395900404e-06,4.6647663111798465e-05,3.854785245493986e-05,4.991772220819257e-05
-3.2703006581868976e-05,2.7732166927307844e-05,4.034336961922236e-05,2.7920192223973572e-05,5.2040759328519925e-05
-2.56944967986783e-05,4.905008972855285e-05,3.4096763556590304e-05,1.9005783542525023e-05,5.5848788178991526e-05
-2.2429310774896294e-05,5.946803139522672e-05,3.194981036358513e-05,1.2830214473069645e-05,5.8238572819391266e-05
-2.349708302062936e-05,5.418664659373462e-05,3.170251875417307e-05,6.080095772631466e-06,5.9623456763802096e-05
-2.8232907425262965e-05,3.7982423236826435e-05,2.5943001674022526e-05,7.039269576125662e-07,5.923482240177691e-05
-3.121467671007849e-05,2.5829753212747164e-05,1.6964200767688453e-05,-2.2120470930531155e-06,5.913105633226223e-05
-2.5384297259734012e-05,2.0578654584824108e-05,8.995965799840633e-06,-5.866456376679707e-06,6.061486783437431e-05
-1.3476662388711702e-05,1.0934372767223977e-05,3.7541760775638977e-06,-9.652871995058376e-06,6.301144458120689e-05
-1.6187400433409493e-06,-6.463569206971442e-06,1.193488969875034e-06,-1.7370772184222005e-05,6.519497401313856e-05
6.948107056814479e-06,-1.850131775427144e-05,-9.14323891265667e-07,-2.920893530244939e-05,6.527941150125116e-05
7.273226401594002e-06,-1.4222294339560904e-05,-4.585145234159427e-06,-3.8108952139737085e-05,6.64730032440275e-05
-7.541729246440809e-06,2.096302978316089e-06,-1.1091182386735454e-05,-3.622733129304834e-05,6.643985398113728e-05
-3.391729842405766e-05,1.5949926819303073e-05,-1.602779775566887e-05,-3.4846299968194216e-05,6.0213897086214274e-05
-5.822105231345631e-05,2.217929795733653e-05,-1.7444797776988707e-05,-3.7138739571673796e-05,5.373724707169458e-05
-7.484420348191634e-05,2.0128292817389593e-05,-1.8650825950317085e-05,-3.7954639992676675e-05,5.278982644085772e-05
-8.17153268144466e-05,1.7319011021754704e-05,-2.163581484637689e-05,-3.956506770919077e-05,5.462523040478118e-05
-8.744235674384981e-05,2.210314414696768e-05,-2.730719279497862e-05,-4.552438986138441e-05,5.9799709561048076e-05
-9.712312021292746e-05,2.880415559047833e-05,-2.7705467800842598e-05,-5.4274169087875634e-05,6.682038656435907e-05
-9.823487926041707e-05,3.0244815206970088e-05,-2.2745794922229834e-05,-6.168484105728567e-05,6.817318353569135e-05
-8.987656474346295e-05,3.1816856790101156e-05,-1.7477526853326708e-05,-6.819605914643034e-05,6.571991252712905e-05
-7.706358883297071e-05,4.143526894040406e-05,-1.5746718418085948e-05,-6.874647078802809e-05,6.172985740704462e-05
-6.556166044902056e-05,5.701224654330872e-05,-1.4578324226022232e-05,-6.040183870936744e-05,6.005373870721087e-05
-5.992211663397029e-05,6.59366196487099e-05,-1.3207451956986915e-05,-5.02422044519335e-05,5.8199308114126325e-05
-5.930237239226699e-05,6.343982386169955e-05,-1.3173601473681629e-05,-4.201484989607707e-05,5.455246355268173e-05
-6.089746602810919e-05,5.16549262101762e-05,-1.2496037925302517e-05,-3.334225038997829e-05,5.222995241638273e-05
-5.920686453464441e-05,3.961105539929122e-05,-9.712759492686018e-06,-1.870440974016674e-05,5.3075953474035487e-05
-4.742817327496596e-05,2.6532159608905204e-05,-5.885827704332769e-06,-8.333115147252101e-06,5.750341006205417e-05
-2.501458948245272e-05,7.811463547113817e-06,-3.504487040117965e-06,-1.5569397874060087e-05,6.165075319586322e-05
-2.470241497576353e-06,-8.988015906652436e-06,1.1857595794140252e-08,-4.009744225186296e-05,6.958147423574701e-05
1.262534351553768e-05,-1.565042657603044e-05,6.0669576669170056e-06,-6.241288792807609e-05,8.105600136332214e-05
2.3458476789528504e-05,-1.3907975699112285e-05,1.2857850379077718e-05,-6.594284786842763e-05,8.949403854785487e-05
3.205463872291148e-05,-4.640260158339515e-06,1.9217222870793194e-05,-5.2803185099037364e-05,8.593218080932274e-05
3.3504784369142726e-05,1.2130820323363878e-05,2.4159784516086802e-05,-3.2813612051540986e-05,7.491515134461224e-05
2.7521897209226154e-05,2.9630886274389923e-05,2.5143692255369388e-05,-1.1549106602615211e-05,6.533985288115218e-05
2.1590987671515904e-05,3.831803405773826e-05,2.417155701550655e-05,9.738494554767385e-06,6.024075992172584e-05
2.1384141291491687e-05,3.180833300575614e-05,1.7604255845071748e-05,2.8881659090984613e-05,6.093823321862146e-05
1.747404894558713e-05,2.2682030248688534e-05,1.8821438061422668e-06,4.680244092014618e-05,6.759951065760106e-05
2.65286939793441e-06,2.206882527389098e-05,-1.4782849575567525e-05,6.12985240877606e-05,7.443018694175407e-05
-1.5828922187210992e-05,3.115539948339574e-05,-1.7842276065493934e-05,6.491140811704099e-05,7.339543662965298e-05
-3.052211468457244e-05,4.7586425353074446e-05,-6.077102170820581e-06,5.794334356323816e-05,6.265183037612587e-05
-3.431225195527077e-05,6.302662222879007e-05,7.70617407397367e-06,4.6028406359255314e-05,5.351876461645588e-05
-3.241390368202701e-05,6.3562452851329e-05,1.5873138181632385e-05,2.825362389557995e-05,5.297276220517233e-05
-2.9918535801698454e-05,5.409589357441291e-05,2.0804758605663665e-05,1.377776607114356e-05,5.170941221877001e-05
-2.1288235075189732e-05,5.169588257558644e-05,2.5796507543418556e-05,1.958826715053874e-06,4.581790926749818e-05
-1.0296510481566656e-05,4.831249680137262e-05,2.911219598900061e-05,-1.4275260582508054e-05,3.852731970255263e-05
-1.58991292664723e-06,1.94410440599313e-05,2.855120510503184e-05,-2.859985215764027e-05,3.2359574106521904e-05
-9.932712146110134e-07,-2.8425945856724866e-05,2.9070615710224956e-05,-3.217585617676377e-05,2.4717708583921194e-05
-8.213773071474861e-06,-5.186873386264779e-05,3.144718357361853e-05,-3.453944009379484e-05,1.9691666238941252e-05
-1.2701513696811162e-05,-3.559093602234498e-05,3.338871101732366e-05,-4.201951378490776e-05,2.012719414778985e-05
-1.0898638720391318e-05,-6.773146196792368e-06,3.409091004868969e-05,-4.900504427496344e-05,2.350812246731948e-05
-1.2592987332027406e-05,1.567773324495647e-05,3.084310083067976e-05,-5.148725176695734e-05,2.9708498914260417e-05
-2.18334243982099e-05,3.303654011688195e-05,2.2338190319715068e-05,-4.926729525323026e-05,3.829660636256449e-05
-3.565321821952239e-05,5.1172948587918654e-05,1.5386191080324352e-05,-4.699045530287549e-05,4.749545405502431e-05
-4.6777444367762655e-05,6.243699317565188e-05,1.2243752280483022e-05,-4.2476411181269214e-05,5.399930159910582e-05
-4.967685526935384e-05,6.459768337663263e-05,1.2046287338307593e-05,-3.1261068215826526e-05,5.901109761907719e-05
-4.5918801333755255e-05,6.456074333982542e-05,1.3824990674038418e-05,-1.540251287224237e-05,6.7598455643747e-05
-4.01848265028093e-05,5.955245069344528e-05,1.695807441137731e-05,3.8720591533092374e-07,7.818189624231309e-05
-3.901617674273439e-05,3.281179670011625e-05,1.8100659872288816e-05,1.2564887583721429e-05,8.41325891087763e-05
-3.68731161870528e-05,-2.5365111469000112e-06,1.5121761862246785e-05,1.939488538482692e-05,8.212909597204998e-05
-2.4328091967618093e-05,-6.131481313786935e-06,1.2197373507660814e-05,2.1879473933950067e-05,7.646398444194347e-05
-6.3696957113279495e-06,1.8956137864734046e-05,1.0679703336791135e-05,2.1825650037499145e-05,6.921074964338914e-05
3.2878110687306616e-06,3.503847256070003e-05,1.1720851944119204e-05,1.9928211258957162e-05,6.20631399215199e-05
8.700525540916715e-06,3.32083654939197e-05,1.2495707778725773e-05,1.5237091247399803e-05,5.879845775780268e-05
1.8292465028935112e-05,2.8720982300001197e-05,9.234270692104474e-06,7.045159236440668e-06,6.490090163424611e-05
2.7820689865620807e-05,2.6921417884295806e-05,-6.763885380678403e-07,-6.142869551695185e-06,7.924007513793185e-05
2.6711990358307958e-05,3.0369947126018815e-05,-1.741877531458158e-05,-2.3067590518621728e-05,9.83393911155872e-05
1.560002056066878e-05,4.1176921513397247e-05,-3.412424121052027e-05,-3.3848431485239416e-05,0.0001120325832744129
1.579288095854281e-06,5.199930819799192e-05,-3.651660881587304e-05,-2.895997567975428e-05,0.00010909237607847899
-1.823403363232501e-05,5.526309905690141e-05,-2.6518757294979878e-05,-1.6023404896259308e-05,9.665968536864966e-05
-3.6696608731290326e-05,5.60562293685507e-05,-1.718671956041362e-05,-6.578487045771908e-06,8.759054617257789e-05
-4.665438609663397e-05,5.789938222733326e-05,-1.4030387319508009e-05,-5.29969611307024e-07,8.889281889423728e-05
-4.536955748335458e-05,5.6377521104877815e-05,-1.449842966394499e-05,1.1411490277168923e-06,9.997144661610946e-05
-3.7866841012146324e-05,4.559440276352689e-05,-1.2445038919395301e-05,8.40227087905987e-08,0.00011294748401269317
-3.8685830077156425e-05,2.4211121854023077e-05,-5.888185569347115e-06,-4.134845312364632e-06,0.00011198330321349204
-4.945931868860498e-05,4.411751433508471e-06,-2.462633801769698e-06,-2.2403637558454648e-05,9.814403165364638e-05
-6.98422227287665e-05,-2.7502774173626676e-06,-3.3576823170733405e-06,-4.776426067110151e-05,8.492286724504083e-05
-8.70721269166097e-05,-1.5705325495218858e-05,-5.286982741381507e-06,-6.5994230681099e-05,7.872702553868294e-05
-8.892753976397216e-05,-4.5851851609768346e-05,-5.13922259415267e-06,-7.288412598427385e-05,7.250244379974902e-05
-7.504578388761729e-05,-7.661798736080527e-05,-3.173088089170051e-06,-7.05011043464765e-05,6.39260615571402e-05
-5.437542131403461e-05,-7.840915350243449e-05,-1.8851018239729456e-06,-6.72700916766189e-05,5.455949212773703e-05
-3.635849861893803e-05,-4.802208059118129e-05,-1.4458458963417797e-06,-6.710681918775663e-05,4.611328768078238e-05
-2.4306136765517294e-05,-2.860308313756832e-06,-2.475120481904014e-06,-6.558014138136059e-05,3.9339764043688774e-05
-2.447255792503711e-05,5.0609054596861824e-05,-4.129345597903011e-06,-6.018104977556504e-05,3.4085252991644666e-05
-3.42115163221024e-05,0.00010320563887944445,-5.518232683243696e-06,-5.5828124459367245e-05,3.269825901952572e-05
-4.2929699702654034e-05,0.00012217611947562546,-3.691227220770088e-06,-5.634372791973874e-05,3.673797255032696e-05
-3.9099926652852446e-05,9.56716830842197e-05,3.024242687388323e-07,-6.18101330474019e-05,4.325238842284307e-05
-1.8014670786214992e-05,6.113694689702243e-05,4.605447827543685e-07,-7.050288695609197e-05,4.6287630539154634e-05
9.210292773786932e-06,4.458757030079141e-05,-3.2903099054237828e-06,-7.793546683387831e-05,4.6771954657742754e-05
1.9057790268561803e-05,3.013955029018689e-05,-5.021227480028756e-06,-7.36667207092978e-05,4.6557059249607846e-05
9.31455178942997e-06,-1.4627264590671984e-06,-6.879165994178038e-06,-5.6578606745461e-05,4.637787787942216e-05
2.4623604986118153e-06,-1.9435983631410636e-05,-1.1281722436251584e-05,-3.281270619481802e-05,4.4143773266114295e-05
4.467941835173406e-06,3.3841463391581783e-06,-1.3800531633023638e-05,7.177222869358957e-07,4.060518404003233e-05
4.975814135832479e-06,4.395610812935047e-05,-9.816315468924586e-06,3.4211432648589835e-05,3.6104069295106456e-05
2.093994453389314e-06,8.499834075337276e-05,-4.702475052908994e-06,5.780197534477338e-05,3.500486127450131e-05
-3.3440460356359836e-06,0.00011981685383943841,9.223534220836882e-07,7.858085155021399e-05,3.794996518990956e-05
-1.0318922250007745e-05,0.00013449860853143036,1.1217152859899215e-05,0.00010461077908985317,4.0840117435436696e-05
-1.5303970940294676e-05,0.00012864712334703654,2.5271610866184346e-05,0.00013241481792647392,4.105353946215473e-05
-2.3127033273340203e-05,0.00011671570246107876,4.5542168663814664e-05,0.00015743736003059894,3.8478505302919075e-05
-3.4857774153351784e-05,9.888031490845606e-05,6.490835221484303e-05,0.0001706183102214709,3.514307172736153e-05
-3.952182305511087e-05,7.00176678947173e-05,7.269784691743553e-05,0.0001612061314517632,3.3974123653024435e-05
-3.614993329392746e-05,4.2885392758762464e-05,7.038823969196528e-05,0.00013745753676630557,3.488491347525269e-05
-2.3711714675300755e-05,2.674513052625116e-05,6.019442662363872e-05,0.00010810769163072109,3.843288868665695e-05
-1.1323287253617309e-05,1.4328883480629884e-05,4.460155469132587e-05,8.174357208190486e-05,4.275250103091821e-05
-1.287980740016792e-05,-8.647981303511187e-06,3.085819480475038e-05,6.127143569756299e-05,4.316837294027209e-05
-2.472923915775027e-05,-3.315259164082818e-05,2.310456875420641e-05,4.5242526539368555e-05,3.98983211198356e-05
-3.08839553326834e-05,-3.4755859815049917e-05,2.3498525479226373e-05,3.1851559469942003e-05,3.691566962515935e-05
-3.0088673156569712e-05,-1.080879974324489e-05,2.4091039449558593e-05,1.9922308638342656e-05,3.478218786767684e-05
-3.232629387639463e-05,1.0106641639140435e-05,1.7251260942430235e-05,1.039462676999392e-05,3.0590075766667724e-05
-4.027324393973686e-05,1.379976856696885e-05,6.909803232701961e-06,1.5948471627780236e-06,2.68771436822135e-05
-4.9529015086591244e-05,7.676557288505137e-06,-1.1245980431340286e-06,-1.1456288120825775e-05,2.298940125911031e-05
-5.082497955299914e-05,6.80623497828492e-06,-4.648286903830012e-06,-2.7895826860913076e-05,1.6279242117889225e-05
-4.2611194658093154e-05,1.4795476090512238e-05,-7.5324956014810596e-06,-4.172868648311123e-05,8.518490176356863e-06
-3.796268720179796e-05,2.0988250980735756e-05,-1.2077686733391602e-05,-5.30332799826283e-05,2.892221573347342e-06
-4.4560787500813603e-05,2.1309619114617817e-05,-1.891176543722395e-05,-6.619751366088167e-05,-2.2334937455070758e-07
-4.791790706804022e-05,2.209668127761688e-05,-2.2204594642971642e-05,-7.963238749653101e-05,8.654544103592343e-07
-4.8404879635199904e-05,2.5455754439462908e-05,-1.762936335580889e-05,-8.423751569353044e-05,9.020462130138185e-06
-5.757277540396899e-05,2.50254033744568e-05,-1.080049969459651e-05,-7.908042607596144e-05,2.3208744096336886e-05
-7.181267574196681e-05,2.0337636669864878e-05,-4.610637915902771e-06,-7.150629971874878e-05,4.012731005786918e-05
-7.979302608873695e-05,1.32097011373844e-05,3.79876132683421e-06,-6.196297908900306e-05,5.756742393714376e-05
-7.222632848424837e-05,6.619671239604941e-06,1.0778876458061859e-05,-4.48903301730752e-05,7.551778253400698e-05
-5.026854341849685e-05,3.953389750677161e-06,8.734336915949825e-06,-2.5584251488908194e-05,9.41314865485765e-05
-2.578559360699728e-05,5.037289611209417e-06,3.7430445445352234e-06,-1.5165325748967007e-05,0.000105419778265059
-1.011933545669308e-05,5.3133248911763076e-06,5.3619019126927014e-06,-2.1653204385074787e-05,0.00010544739780016243
-2.7599046461546095e-06,4.044361048727296e-06,6.838653916929616e-06,-3.350633051013574e-05,0.00010199386451859027
1.0361904060118832e-05,6.1101750361558516e-06,-1.14575323095778e-06,-3.797898898483254e-05,0.00010532250598771498
2.318612314411439e-05,1.678833541518543e-05,-1.0524462595640216e-05,-3.314339119242504e-05,0.00010853192361537367
2.4509137801942416e-05,2.83564022538485e-05,-1.0862483577511739e-05,-3.168141847709194e-05,0.00010519147326704115
1.2009938473056536e-05,2.9429671485559084e-05,-9.737026630318724e-06,-3.8772115658503026e-05,9.776813385542482e-05
-3.5773032323049847e-06,2.0955107174813747e-05,-1.2100624189770315e-05,-4.540447844192386e-05,8.70222138473764e-05
-1.5554824130958878e-05,1.1771934623538982e-05,-1.59483497554902e-05,-5.41949957550969e-05,8.309051190735772e-05
-2.677582233445719e-05,4.202273430564674e-06,-2.2269377950578928e-05,-6.248133286135271e-05,8.829159924061969e-05
-3.403245864319615e-05,5.273383067105897e-06,-2.995873728650622e-05,-6.561155896633863e-05,9.631698048906401e-05
-4.381722828838974e-05,1.226002859766595e-05,-3.2633608498144895e-05,-5.739001790061593e-05,0.00010176168143516406
-5.23941453138832e-05,1.9021954358322546e-05,-2.6645258913049474e-05,-3.64772931789048e-05,0.00010616829968057573
-5.051580228609964e-05,2.7033058358938433e-05,-1.7339847545372322e-05,-1.87022360478295e-05,0.00011212918616365641
-4.287126284907572e-05,3.917568756151013e-05,-6.581655270565534e-06,-1.4325688425742555e-05,0.00011927300511160865
-3.552344423951581e-05,5.404770126915537e-05,6.505518285848666e-06,-1.1615689800237305e-05,0.00012428223271854222
-3.0261897336458787e-05,6.614121957682073e-05,1.5233750673360191e-05,-9.648297236708459e-06,0.00012623924703802913
-3.1240942917065695e-05,7.282282604137436e-05,1.3529343959817197e-05,-1.885686106106732e-05,0.00012830767082050443
-3.5505403502611443e-05,7.40502800908871e-05,1.0079005733132362e-05,-3.4568351111374795e-05,0.00013299411511979997
-3.579312397050671e-05,7.581879617646337e-05,1.33012699734536e-05,-4.227911995258182e-05,0.00014076386287342757
-2.8520842533907853e-05,8.022871770663187e-05,1.8257907868246548e-05,-4.0625363908475265e-05,0.0001512611925136298
-1.876941132650245e-05,7.871860725572333e-05,1.9027329472010024e-05,-3.352225758135319e-05,0.00016129011055454612
-9.431307262275368e-06,6.430930807255208e-05,1.8733833712758496e-05,-1.711914228508249e-05,0.00016088318079710007
-3.842117166641401e-06,3.21767438435927e-05,1.9253593563917093e-05,-3.27564151803017e-07,0.00014952942728996277
-1.0598933840810787e-05,-2.0758276150445454e-05,1.595224421180319e-05,7.229983111756155e-06,0.00013591005699709058
-1.9078030163655058e-05,-6.048853902029805e-05,4.723231540992856e-06,9.869419955066405e-06,0.00012484278704505414
-1.689555574557744e-05,-4.6106673835311085e-05,-7.926443686301354e-06,6.8557174017769285e-06,0.00011503374116728082
-1.2010559657937847e-05,-5.672364750353154e-06,-1.2531651918834541e-05,4.093868028576253e-06,0.0001040156275848858
-1.6122645320137963e-05,9.253845746570732e-06,-8.885131137503777e-06,4.021766926598502e-06,9.104394121095538e-05
-2.266304727527313e-05,8.62028082337929e-06,-1.3345742218007217e-06,3.4140034586016554e-06,8.518379763700068e-05
-2.276917985000182e-05,1.3356298950384371e-05,6.062445208954159e-06,3.925124019588111e-06,9.002217120723799e-05
-2.260913788632024e-05,1.0075616955873556e-05,1.0412881238153204e-05,5.0338462642685045e-06,9.59654207690619e-05
-2.1953288523945957e-05,2.1200303024215827e-07,1.1438893125159666e-05,8.7362222984666e-06,0.00010066096001537517
-2.0622976080630906e-05,-1.0669039056665497e-06,1.322009484283626e-05,1.2005881217191927e-05,9.771640907274559e-05
-2.1619443941744976e-05,9.945783858711366e-06,1.523797709523933e-05,7.514655408158433e-06,8.388418063987046e-05
-2.2697829990647733e-05,3.5380500776227564e-05,1.511590562586207e-05,-8.699843419890385e-06,6.68677021167241e-05
-2.516404310881626e-05,5.841712481924333e-05,1.2749745110340882e-05,-1.9594734112615697e-05,5.175836122361943e-05
-3.439951251493767e-05,6.409890920622274e-05,9.134085303230677e-06,-1.0423425010230858e-05,4.34191279055085e-05
-3.961768015869893e-05,5.476048681885004e-05,1.210550544783473e-05,1.192141371575417e-05,3.999745240435004e-05
-3.062030373257585e-05,4.412246562424116e-05,2.0503775886027142e-05,3.0289791538962163e-05,3.6354726034915075e-05
-1.96623477677349e-05,4.283312591724098e-05,2.647026121849194e-05,4.018983236164786e-05,3.2111995096784085e-05
-2.1925305190961808e-05,4.89519297843799e-05,2.727753781073261e-05,4.4795830035582185e-05,2.97805145237362e-05
-3.1932890124153346e-05,5.132533988216892e-05,2.623140244395472e-05,4.329953299020417e-05,2.533144288463518e-05
-4.216174784232862e-05,4.58007343695499e-05,2.447669430694077e-05,2.9862965675420128e-05,1.2682226952165365e-05
-5.431398676591925e-05,3.399137858650647e-05,2.092799149977509e-05,1.0848153578990605e-05,-4.576277660817141e-06
-6.521808245452121e-05,1.8839740732801147e-05,1.6532891095266677e-05,2.665536840140703e-06,-1.667478500166908e-05
-6.732681504217908e-05,1.2241002877999563e-05,9.802778549783397e-06,7.550305326731177e-06,-1.9953784430981614e-05
-6.270388985285535e-05,2.0108414901187643e-05,2.1415846731542842e-06,1.959003748197574e-05,-2.1890527932555415e-05
-6.180820491863415e-05,3.572665445972234e-05,-2.5671074581623543e-06,3.2063460821518674e-05,-3.342962372698821e-05
-6.553808634635061e-05,4.4668664486380294e-05,-2.9730454116361216e-06,4.050689312862232e-05,-5.56853374291677e-05
-6.899904110468924e-05,4.2497449612710625e-05,-4.327906935941428e-06,4.3531592382350937e-05,-7.717217522440478e-05
-7.381619798252359e-05,3.557099626050331e-05,-8.338820407516323e-06,4.253669976606034e-05,-8.834063191898167e-05
-7.355344132520258e-05,3.2574153010500595e-05,-8.536758286936674e-06,4.074307071277872e-05,-8.945751324063167e-05
-5.435316052171402e-05,3.284126432845369e-05,-5.812014478578931e-06,3.4850956581067294e-05,-9.16441495064646e-05
-2.3216203771880828e-05,3.670031583169475e-05,6.258787834667601e-07,2.3740745746181346e-05,-9.912616951623932e-05
1.0561958333710209e-05,4.548444849206135e-05,1.1469606761238538e-05,1.2617260836123023e-05,-0.00010307029151590541
3.515902426443063e-05,5.368550409912132e-05,1.5658482880098745e-05,-3.70340922017931e-06,-9.088061051443219e-05
4.135108247282915e-05,6.079106606193818e-05,2.1055129764135927e-05,-1.1574188647500705e-05,-5.7660981838125736e-05
2.7933845558436587e-05,6.750252941856161e-05,2.5517418180243112e-05,-8.643957698950544e-06,-1.5369145330623724e-05
6.017096438881708e-07,5.809499270981178e-05,2.297820356034208e-05,-1.4082327652431559e-05,2.9816266760462895e-05
-2.2312544388114475e-05,2.0452580429264344e-05,1.7838707208284177e-05,-3.12548982037697e-05,6.922377360751852e-05
-2.282767673023045e-05,-9.976298315450549e-06,1.125106427934952e-05,-4.6804474550299346e-05,9.044330363394693e-05
-6.6524912654131185e-06,-6.270660833251895e-06,5.942199095443357e-06,-5.5128672102000564e-05,9.90757835097611e-05
8.338183761225082e-06,7.584077593492111e-06,-1.9016731584997615e-06,-6.751323235221207e-05,0.0001080297734006308
1.0984835171257146e-05,1.2255338333488908e-05,-1.011829954222776e-05,-8.778725168667734e-05,0.00012281344970688224
-3.889173513016431e-06,1.0047546311398037e-05,-1.8655118765309453e-05,-0.00010909108095802367,0.0001440868800273165
-2.494709951861296e-05,1.1977244867011905e-05,-2.714683250815142e-05,-0.00012755137868225574,0.000171478241099976
-3.4928234526887536e-05,1.495533524575876e-05,-3.4008997317869216e-05,-0.00013827261864207685,0.00019898520258720964
-2.9415630706353113e-05,1.888433689600788e-05,-3.6575973354047164e-05,-0.00013807234063278884,0.00022138995700515807
-1.742182757880073e-05,2.771821164060384e-05,-3.382525756023824e-05,-0.00013075163587927818,0.00023330152907874435
-9.986340955947526e-06,3.769499380723573e-05,-2.8978070986340754e-05,-0.000122076875413768,0.00023271421378012747
-1.1246723261137959e-05,3.815455420408398e-05,-2.7609243261395022e-05,-0.00011840169463539496,0.00021963167819194496
-1.7690001186565496e-05,3.6247623938834295e-05,-2.864861198759172e-05,-0.00011881854879902676,0.00019540397624950856
-2.6142970455111936e-05,4.954081305186264e-05,-2.8549258786370046e-05,-0.00011406344128772616,0.0001659969420870766
-3.7518639146583155e-05,7.247126632137224e-05,-2.5661402105470188e-05,-9.523582411929965e-05,0.00013944281090516597
-4.8520210839342326e-05,8.46227994770743e-05,-1.6919535482884385e-05,-6.527076766360551e-05,0.00011749250552384183
-4.9421585572417825e-05,7.989165169419721e-05,-6.468890205724165e-06,-3.4384545870125294e-05,9.984528878703713e-05
-4.887578324996866e-05,6.848423072369769e-05,3.506831262711785e-06,-8.898755368136335e-06,8.715532021597028e-05
-5.799780774395913e-05,4.867392999585718e-05,1.363083538308274e-05,1.0767946150735952e-05,7.637767703272402e-05
-6.116525764809921e-05,1.63837248692289e-05,2.2097750843386166e-05,2.103271799569484e-05,6.418620614567772e-05
-4.7928460844559595e-05,-6.545433734572725e-06,2.9051239835098386e-05,2.336123179702554e-05,5.438259177026339e-05
-2.405524719506502e-05,-3.7379925288405502e-06,3.433416350162588e-05,2.9545655706897378e-05,4.6271343308035284e-05
-4.700726549344836e-06,1.03309548649122e-06,3.621462019509636e-05,4.518107743933797e-05,3.733443736564368e-05
-4.831475507671712e-06,-2.329809831280727e-06,3.352994463057257e-05,5.78775470785331e-05,3.40852711815387e-05
-1.0910245691775344e-05,-1.3563872016675305e-05,2.5304809241788462e-05,5.3727522754343227e-05,3.174187440890819e-05
-1.3210444194555748e-05,-3.0501381843350828e-05,1.4576561625290196e-05,3.781904524657875e-05,2.3057915313984267e-05
-1.592790249560494e-05,-3.38187201123219e-05,3.531360562192276e-06,1.8824770450009964e-05,1.3457890418067109e-05
-2.2115749743534252e-05,-1.8602040654513985e-05,-8.347278708242811e-06,-1.1669942523440113e-06,1.162182707048487e-05
-3.0407010854105465e-05,2.755086825345643e-06,-2.0108178432565182e-05,-1.2850902749050874e-05,1.4993135664553847e-05
-2.58177678915672e-05,3.77583819499705e-06,-2.336155012017116e-05,-1.4667058167106006e-05,1.621323281142395e-05
-9.87459316093009e-06,-1.4234247828426305e-05,-1.608294951438438e-05,-1.4212814676284324e-05,8.52129960549064e-06
-5.225906534178648e-06,-8.128551598929334e-06,-4.578091193252476e-06,-1.9266166418674402e-05,-4.377684945211513e-06
-2.168451464967802e-05,1.9794333638856187e-05,4.339275164966239e-06,-2.817177119140979e-05,-1.257775420526741e-05
-3.898013892467134e-05,4.2758776544360444e-05,6.156501513032708e-06,-3.490264862193726e-05,-1.339739446848398e-05
-3.717263098224066e-05,4.864162838202901e-05,6.340061645460082e-06,-3.774103970499709e-05,-1.3992114872962702e-05
-2.1427129468065687e-05,4.340201121522114e-05,9.61627210926963e-06,-3.060711969737895e-05,-1.9690538465511054e-05
-7.916435606603045e-06,3.188413757015951e-05,1.640261325519532e-05,-1.2987287846044637e-05,-3.0079250791459344e-05
-5.140505436429521e-06,2.7302949092700146e-05,2.470461549819447e-05,8.05284253146965e-06,-4.209614053252153e-05
-7.835937140043825e-06,3.690575613291003e-05,2.9957795049995184e-05,2.593538010842167e-05,-5.073738066130318e-05
-8.375654033443425e-06,4.829767203773372e-05,3.163459768984467e-05,4.179000825388357e-05,-5.7416618801653385e-05
-7.443534286721842e-06,6.383311847457662e-05,3.113522689091042e-05,5.362211959436536e-05,-6.354358629323542e-05
-1.0923065929091536e-05,8.616707054898143e-05,2.9345654183998704e-05,6.0008675063727424e-05,-6.40434809611179e-05
-2.0471648895181715e-05,9.937094000633806e-05,3.005542021128349e-05,6.52728122076951e-05,-5.227067231317051e-05
-3.6976172850700095e-05,9.187138493871316e-05,3.340285911690444e-05,7.13161425665021e-05,-2.9502039978979155e-05
-5.443269765237346e-05,6.696753553114831e-05,3.391691279830411e-05,7.584351260447875e-05,-1.3817224271406303e-06
-5.586033148574643e-05,3.351830309838988e-05,3.293280678917654e-05,7.516829646192491e-05,2.513816798455082e-05
-4.075816832482815e-05,1.2692795280599967e-05,3.351048144395463e-05,7.118299254216254e-05,4.526179327513091e-05
-3.2513395126443356e-05,1.2839062947023194e-05,3.338149326737039e-05,7.458253821823746e-05,5.552824950427748e-05
-4.2275416490156204e-05,2.6415915272082202e-05,3.4356362448306754e-05,8.601922309026122e-05,5.74560253880918e-05
-5.456279905047268e-05,3.507166184135713e-05,3.533764538588002e-05,9.749391028890386e-05,5.6785866036079824e-05
-4.9949179810937494e-05,2.3517010049545206e-05,2.93683769996278e-05,0.00010103477688971907,5.668824815074913e-05
-3.419419226702303e-05,1.240291112480918e-05,1.9754468667088076e-05,9.476607374381274e-05,5.171924567548558e-05
-2.0166502508800477e-05,2.145899816241581e-05,1.6548634448554367e-05,8.991797221824527e-05,3.8693608075845987e-05
-1.3081735232844949e-05,2.378344288445078e-05,1.609784521861002e-05,8.607002382632345e-05,2.806006341415923e-05
-1.6803493053885177e-05,7.463697329512797e-06,9.99132953438675e-06,7.290931534953415e-05,2.6023750251624733e-05
-2.6361847631051205e-05,-3.309728344902396e-05,2.585558604550897e-06,4.3520860344870016e-05,2.944602420029696e-05
-3.969293538830243e-05,-9.724453411763534e-05,1.2376547147141537e-06,6.973332347115502e-07,3.425923205213621e-05
-5.6172822951339185e-05,-0.0001525885600131005,5.229014732321957e-06,-3.900932279066183e-05,3.845747050945647e-05
-7.829920650692657e-05,-0.00015842430002521724,8.109300324576907e-06,-6.644267705269158e-05,4.3282714614178985e-05
-0.0001039230264723301,-0.00011022553371731192,3.6027336136612576e-06,-8.635702397441491e-05,5.1383285608608276e-05
-0.00011874964548042044,-2.2782754967920482e-05,-4.213046395307174e-06,-9.52906339080073e-05,6.26702603767626e-05
-0.00011312003334751353,8.335476013598964e-05,-9.465121365792584e-06,-8.907949086278677e-05,7.286376785486937e-05
-9.472735109739006e-05,0.00017359522462356836,-1.426775907020783e-05,-7.681890565436333e-05,7.779250154271722e-05
-7.704617746639997e-05,0.0002283172361785546,-1.939073445100803e-05,-6.866738840471953e-05,7.70378828747198e-05
-6.533892155857757e-05,0.00024917031987570226,-2.1044714230811223e-05,-6.72989190206863e-05,7.491476571885869e-05
-5.642910400638357e-05,0.00025252168416045606,-1.8930528312921524e-05,-7.419883331749588e-05,7.528160494985059e-05
-4.6272241888800636e-05,0.0002377778582740575,-1.7803531591198407e-05,-8.399067883146927e-05,7.630241452716291e-05
-3.414556340430863e-05,0.00018569988606031984,-2.1204721633694135e-05,-8.798985800240189e-05,7.62435156502761e-05
-2.173767461499665e-05,9.764627611730248e-05,-2.9347138479351997e-05,-8.729130786377937e-05,7.465935777872801e-05
-1.946391193996533e-06,2.0012195818708278e-05,-3.8669455534545705e-05,-8.990371134132147e-05,7.113469473551959e-05
3.6629960959544405e-05,-1.59258306666743e-05,-4.360910315881483e-05,-9.69845277722925e-05,6.77619464113377e-05
8.303800859721377e-05,-3.5951572499470785e-05,-4.5014210627414286e-05,-0.00010444106010254472,6.676842895103619e-05
0.00011472853657323867,-8.022235851967707e-05,-4.5917862735223025e-05,-0.00010784655023599043,6.628054688917473e-05
0.00012012785737169906,-0.00012470163346733898,-4.4807613448938355e-05,-9.817992395255715e-05,6.166203820612282e-05
9.936298010870814e-05,-0.0001065537435351871,-3.8979989767540246e-05,-8.892938058124855e-05,4.9483005568617955e-05
6.225437391549349e-05,-3.613652370404452e-05,-2.581081207608804e-05,-9.02214233065024e-05,3.0830673495074734e-05
1.4462437320617028e-05,2.2505819288198836e-05,-6.739325272064889e-06,-8.148307097144425e-05,1.4901367649144959e-05
-1.799132405722048e-05,3.996047962573357e-05,1.1893987903022207e-05,-5.310367123456672e-05,9.26639222598169e-06
-2.152588240278419e-05,4.048624759889208e-05,3.035425288544502e-05,-1.0255469533149153e-05,1.4394028767128475e-05
-1.62586584337987e-05,4.6958037273725495e-05,5.168130883248523e-05,3.5480596125125885e-05,3.202580046490766e-05
-1.9599965526140295e-05,6.358770042425022e-05,6.675499025732279e-05,6.972999108256772e-05,5.2752773626707494e-05
-4.267364420229569e-05,8.032843470573425e-05,7.352414831984788e-05,9.134247375186533e-05,7.218190148705617e-05
-5.8937563153449446e-05,7.70451661082916e-05,7.322823512367904e-05,0.00010275257955072448,9.161709749605507e-05
-5.606328704743646e-05,5.9945326938759536e-05,6.527658115373924e-05,0.00010852956620510668,0.00010462049976922572
-4.261155118001625e-05,3.8019912608433515e-05,5.3997995564714074e-05,0.00011189133510924876,0.00010669662151485682
-2.5083842047024518e-05,3.646532786660828e-05,4.369119415059686e-05,0.00011044480925193056,9.551048424327746e-05
-1.1779319720517378e-05,6.486558413598686e-05,3.464122710283846e-05,0.00010653256322257221,8.11273930594325e-05
-1.1439012268965598e-05,9.438380948267877e-05,2.2376949345925823e-05,0.0001016101086861454,7.252769137267023e-05
-2.020794272539206e-05,0.00010357164865126833,7.232270036183763e-06,9.677220805315301e-05,7.195862417574972e-05
-2.6732426704256795e-05,0.00010317574196960777,-4.785987130162539e-06,9.374719229526818e-05,7.515881588915363e-05
-2.9617343898280524e-05,9.88985993899405e-05,-6.102234692662023e-06,9.629514534026384e-05,7.35789435566403e-05
-3.238093631807715e-05,7.632166671101004e-05,3.566263785614865e-06,0.00010272040526615456,6.420136924134567e-05
-3.541536716511473e-05,3.5866538382833824e-05,1.752013668010477e-05,0.00010080142237711698,5.5224929383257404e-05
-3.636013570940122e-05,-4.5939782467030454e-06,2.700302138691768e-05,7.984638068592176e-05,5.0825121434172615e-05
-3.83241094823461e-05,-3.986225419794209e-05,2.7167698135599494e-05,4.253332008374855e-05,4.582208566716872e-05
-3.826639294857159e-05,-6.578517059097067e-05,2.2409441953641362e-05,6.4766140894789714e-06,3.443836612859741e-05
-3.9522019505966455e-05,-5.4747808462707326e-05,2.101333302562125e-05,-2.0013734683743678e-05,1.0986706001858693e-05
-4.699517376138829e-05,-2.0123698050156236e-05,2.0181583749945275e-05,-4.438553878571838e-05,-1.8063776224153116e-05
-5.021841934649274e-05,-1.7228079741471447e-05,1.5030743270472158e-05,-7.139207446016371e-05,-3.900060255546123e-05
-4.213631109450944e-05,-6.916852726135403e-05,1.0472788744664285e-05,-9.275085176341236e-05,-4.2205399950034916e-05
-4.042532964376733e-05,-0.0001388082600897178,9.1639021775336e-06,-9.860158752417192e-05,-3.0588409572374076e-05
-5.937014793744311e-05,-0.00017556993407197297,4.950050424668007e-06,-9.619151387596503e-05,-1.0982963431160897e-05
-9.188888361677527e-05,-0.00016620960377622396,2.619016186145018e-06,-0.00010428025416331366,2.0647543351515196e-05
-0.00011048855958506465,-0.000126808590721339,5.654580036207335e-06,-0.00011502515553729609,6.215587927727029e-05
-9.194931044476107e-05,-9.124754433287308e-05,1.3348868606044562e-06,-0.00011138684931211174,9.564258652972057e-05
-5.715449515264481e-05,-7.759238360449672e-05,-9.625364327803254e-06,-0.00011034118506358936,0.0001258674601558596
-3.5130869946442544e-05,-6.458588904934004e-05,-1.5893325326032937e-05,-0.00011147061013616621,0.0001556330971652642
-2.4669436243129894e-05,-3.8458478229586035e-05,-1.3927481631981209e-05,-0.0001006980164675042,0.00016136470367200673
-2.7117619538330473e-05,-1.604951989975234e-06,-1.1700315553753171e-05,-8.81624364410527e-05,0.0001449487026548013
-2.973602749989368e-05,4.4935379264643416e-05,-1.5057401469675824e-05,-8.36459148558788e-05,0.00013485917588695884
-2.626886089274194e-05,0.00010180185199715197,-2.4078524802462198e-05,-8.935762161854655e-05,0.00014837036724202335
-2.0380106434458867e-05,0.00015271204756572843,-3.3482294384157285e-05,-9.582329221302643e-05,0.00017677164578344673
-1.1225763955735601e-05,0.00019332712690811604,-3.742444096133113e-05,-9.653611778048798e-05,0.00020116940140724182
4.715591899184801e-07,0.00021519251458812505,-3.611886131693609e-05,-9.380932169733569e-05,0.00020961789414286613
8.3045406427118e-06,0.00021132566325832158,-3.0756255000596866e-05,-9.07458015717566e-05,0.00020325157674960792
6.06069625064265e-06,0.0001800680038286373,-2.301041968166828e-05,-8.706188964424655e-05,0.0001904308592202142
-1.984105210794951e-06,0.0001348585938103497,-1.5326470020227134e-05,-8.069937030086294e-05,0.0001786771899787709
-1.1112370884802658e-05,9.280862286686897e-05,-8.701013939571567e-06,-7.000365440035239e-05,0.00016549049178138375
-1.7358886907459237e-05,5.438334119389765e-05,-3.099858759014751e-06,-5.520508420886472e-05,0.0001438706967746839
-2.1482941519934684e-05,1.5488667486351915e-05,-5.155202984497009e-07,-4.062621155753732e-05,0.00011290875409031287
-2.5229672246496193e-05,-2.2180582163855433e-05,8.851583288560505e-07,-2.7402988052926958e-05,7.592066685901955e-05
-3.0425846489379182e-05,-4.440790507942438e-05,6.817087523813825e-06,-1.1282440937065985e-05,3.8081794627942145e-05
-2.6429512217873707e-05,-4.096096017747186e-05,1.704576970951166e-05,5.537521246878896e-06,3.3788801374612376e-06
-5.523680101759965e-06,-1.3042186765233055e-05,2.5401808670721948e-05,1.2501533092290629e-05,-2.0010091247968376e-05
2.1840533008798957e-05,2.368425157328602e-05,2.7467096515465528e-05,9.34460786083946e-06,-2.52724075835431e-05
3.4647033317014575e-05,6.191435386426747e-05,2.467286140017677e-05,5.568118467635941e-06,-1.6477477402077056e-05
2.359311474720016e-05,9.53313137870282e-05,2.0990672055631876e-05,4.353255462774541e-06,-4.127235570194898e-06
6.332567750177986e-07,0.00011392261512810364,1.72182571986923e-05,1.6600286016910104e-06,1.0522370757826138e-05
-1.6140564184752293e-05,9.399806003784761e-05,1.0887597454711795e-05,1.014683675748529e-06,3.1953593861544505e-05
-2.5438366719754413e-05,4.254050145391375e-05,6.260792360990308e-06,-3.37325900545693e-06,5.8037036069436e-05
-2.448490704409778e-05,5.29409408045467e-06,3.0223302474041702e-06,-1.89819693332538e-05,8.27984040370211e-05
-2.1893391021876596e-05,1.3238476640253793e-05,-1.802880547074892e-06,-2.700863842619583e-05,0.00010243917495245114
-1.8986545910593122e-05,3.886237755068578e-05,-1.5179775800788775e-06,-2.224084710178431e-05,0.00012076553684892133
-1.2251816770003643e-05,4.610212999978103e-05,2.6009315661212895e-06,-2.1488327547558583e-05,0.00013681597192771733
-8.219669325626455e-06,3.619925701059401e-05,1.3566072993853595e-06,-2.6714738851296715e-05,0.00014610227663069963
-4.6002905946807005e-06,2.954577939817682e-05,-1.134876310970867e-05,-3.109126555500552e-05,0.00015073729446157813
3.727931243702187e-06,3.7587400584015995e-05,-2.2128786440589465e-05,-2.8769716664100997e-05,0.00015135736612137407
1.7223732356796972e-05,5.052899359725416e-05,-2.3231003069668077e-05,-2.1143659978406504e-05,0.0001448302937205881
2.3799180780770257e-05,5.6329397921217605e-05,-1.9774335669353604e-05,-1.0629622920532711e-05,0.0001281068689422682
2.467019839968998e-05,6.120839680079371e-05,-1.5508274373132735e-05,2.9110703962942353e-06,0.00010725560423452407
2.138510171789676e-05,6.928970105946064e-05,-1.1212492609047331e-05,1.7238913642358966e-05,8.445190178463235e-05
1.1063202691730112e-05,7.039221236482263e-05,-6.571460744453361e-06,2.7575593776418827e-05,6.013251913827844e-05
-8.745067134441342e-06,6.0812701121903956e-05,-5.771491373707249e-07,3.514856143738143e-05,3.496221324894577e-05
-2.7330746888765134e-05,4.459394403966144e-05,9.727402357384562e-06,4.865420487476513e-05,8.161766345438082e-06
-3.40181213687174e-05,3.0047527616261505e-05,2.2493626602226868e-05,6.560431211255491e-05,-2.014664096350316e-05
-3.450789881753735e-05,2.038291859207675e-05,3.303273842902854e-05,7.578724762424827e-05,-4.276442632544786e-05
-3.746203947230242e-05,8.462152436550241e-06,3.5504264815244824e-05,7.802939944667742e-05,-5.030665124650113e-05
-4.33295572292991e-05,-1.349024569208268e-05,2.9969511160743423e-05,8.307972166221589e-05,-4.4313193939160556e-05
-4.702158912550658e-05,-2.914980359491892e-05,2.185131234000437e-05,9.482216410106048e-05,-2.8011772883473895e-05
-5.065475488663651e-05,-1.2557271475088783e-05,1.7161164578283206e-05,0.0001038738337229006,-4.592743607645389e-06
-6.043672328814864e-05,3.543727143551223e-05,1.7352980648865923e-05,0.00010602299880702049,2.1145277059986256e-05
-7.429219840560108e-05,9.005946049001068e-05,2.1104386178194545e-05,0.00010354956611990929,4.1787789086811244e-05
-7.796317368047312e-05,0.00013403233606368303,2.168728860851843e-05,9.710165613796562e-05,5.489839895744808e-05
-6.513754487968981e-05,0.00014808950072620064,1.8418533727526665e-05,7.870779518270865e-05,6.221515650395304e-05
-4.1090912418439984e-05,0.00011680581519613042,1.5922165403026156e-05,3.8798221794422716e-05,6.414186645997688e-05
-1.293611876462819e-05,5.49894648429472e-05,1.3834288438374642e-05,-4.818002253159648e-06,6.496966670965776e-05
1.0474611372046638e-05,8.654234989080578e-06,1.12118095785263e-05,-3.04777695419034e-05,6.400622078217566e-05
2.5472534616710618e-05,-8.403595529671293e-06,1.1534094483067747e-05,-5.114555824548006e-05,5.436360152089037e-05
2.1877458493690938e-05,-3.17990779876709e-05,1.0553289030212909e-05,-7.79330512159504e-05,4.31297485192772e-05
-7.214312063297257e-06,-8.384067768929526e-05,6.5315389292663895e-06,-0.0001029024351737462,3.341811680002138e-05
-3.5926994314650074e-05,-0.00014110268966760486,8.186224818018673e-07,-0.00011806080874521285,2.2652511688647792e-05
-4.711112705990672e-05,-0.0001597278460394591,-7.798065780662e-06,-0.00011724480282282457,1.59815408551367e-05
-4.592281038640067e-05,-0.00014303352509159595,-1.8472530427970923e-05,-0.00011738687317119911,1.654823063290678e-05
-3.8537396903848276e-05,-0.00010610937897581607,-2.6008916393038817e-05,-0.00013287420733831823,2.0371409846120514e-05
-3.240084697608836e-05,-5.209495429880917e-05,-2.574368227215018e-05,-0.00014208880020305514,2.391822090430651e-05
-2.808966200973373e-05,8.491627340845298e-06,-2.0154024241492152e-05,-0.0001213847499457188,2.2231688490137458e-05
-2.2868000087328255e-05,6.810980994487181e-05,-1.143027657235507e-05,-8.251000690506771e-05,2.0647250494221225e-05
-2.4657587346155196e-05,0.00011080180411227047,-7.525300134147983e-06,-5.553135270019993e-05,2.8408570869942196e-05
-3.359260517754592e-05,0.00012399768456816673,-1.179377159132855e-05,-5.012134715798311e-05,3.964376446674578e-05
-4.873830039286986e-05,0.00011615216499194503,-1.8335742424824275e-05,-4.464731682674028e-05,4.35769215982873e-05
-6.881658919155598e-05,0.0001004339792416431,-1.6044501535361633e-05,-1.963637441804167e-05,4.299015199649148e-05
-8.527355385012925e-05,7.215127698145807e-05,-4.545194769889349e-06,2.4446808311040513e-05,4.885179805569351e-05
-8.739524491829798e-05,2.448137274768669e-05,1.2125812645535916e-05,7.477716280845925e-05,5.9206369769526646e-05
-7.223442662507296e-05,-4.08676678489428e-05,3.0286020773928612e-05,0.0001159727034973912,6.516875873785466e-05
-5.5305550631601363e-05,-0.00010234192450297996,4.8719030019128695e-05,0.00014365317474585027,6.465097249019891e-05
-5.027900624554604e-05,-0.0001263176673091948,6.703467079205438e-05,0.00016201299149543047,6.322484841803089e-05
-5.228864756645635e-05,-0.00010756416304502636,8.061793050728738e-05,0.0001711397635517642,5.8569450629875064e-05
-5.1002385589526966e-05,-6.918714643688872e-05,8.76827398315072e-05,0.0001639014226384461,4.717083720606752e-05
-4.442968202056363e-05,-1.551737659610808e-05,8.870590681908652e-05,0.0001406819064868614,3.0993414839031175e-05
-2.8711681807180867e-05,6.229197606444359e-05,8.312377030961215e-05,0.00011456319771241397,1.448120929126162e-05
-1.3150506674719509e-05,0.00014050705067347735,7.584584091091529e-05,9.861362195806578e-05,3.3444871405663434e-06
-5.980354217172135e-06,0.0001740417501423508,6.688133726129308e-05,8.123756560962647e-05,7.484038178517949e-06
6.091159434618021e-07,0.00015039755089674145,4.8973262892104685e-05,5.019257150706835e-05,3.303376433905214e-05
1.663803959672805e-05,0.00010549312719376758,2.7528316422831267e-05,1.4938655112928245e-05,6.646342080784962e-05
4.240680573275313e-05,7.50350664020516e-05,1.2069765944033861e-05,-1.7575430319993757e-05,8.633106335764751e-05
5.706537558580749e-05,5.979434718028642e-05,2.281751449118019e-06,-3.47653913195245e-05,8.691979746799916e-05
4.7393335989909247e-05,4.0763639844954014e-05,-5.272965154290432e-06,-3.618119808379561e-05,7.910557906143367e-05
2.5725443265400827e-05,1.7144129742519e-05,-8.992579751065932e-06,-3.2994681532727554e-05,7.20977404853329e-05
9.134130777965765e-06,1.5927864296827465e-05,-8.727313797862735e-06,-2.3329193936660886e-05,6.442236190196127e-05
-3.3922856346180197e-06,3.891837695846334e-05,-7.512117463193135e-06,-9.10582639335189e-06,5.450336175272241e-05
-1.6939202396315522e-05,6.796574598411098e-05,-1.084823816199787e-05,1.013134237837221e-06,4.6378605475183576e-05
-2.422781108180061e-05,9.101582691073418e-05,-1.5591218470945023e-05,-3.4905892789538484e-06,4.3759435357060283e-05
-2.3730028260615654e-05,8.481212717015296e-05,-1.9862580302287824e-05,-1.2881369912065566e-05,4.5128417696105316e-05
-1.8253280359203927e-05,5.7908062444766983e-05,-2.0406920157256536e-05,-2.063834654109087e-05,4.334981713327579e-05
-1.760677514539566e-05,4.91102910018526e-05,-1.646986129344441e-05,-2.3773869543219917e-05,3.5317854781169444e-05
-2.2590820663026534e-05,5.859621523995884e-05,-1.3026247870584484e-05,-2.7165091523784213e-05,2.3982378479558975e-05
-2.9890397854615003e-05,5.7533179642632604e-05,-1.2909455108456314e-05,-3.5809443943435326e-05,1.0683843356673606e-05
-3.303716584923677e-05,3.7522040656767786e-05,-1.2697522834059782e-05,-4.908932532998733e-05,-1.4331480997498147e-06
-2.8128335543442518e-05,8.83243319549365e-06,-9.656514521338977e-06,-7.025904778856784e-05,-3.6812452890444547e-06
-2.2762786102248356e-05,-3.0866474844515324e-05,-7.975518201419618e-06,-9.428068733541295e-05,8.997097211249638e-06
-2.573175515863113e-05,-7.710023055551574e-05,-1.2233519555593375e-05,-0.00011220318265259266,3.1569765269523486e-05
-3.8631740608252585e-05,-9.286066779168323e-05,-1.8955783161800355e-05,-0.00012035029794787988,6.149210094008595e-05
-5.3788557124789804e-05,-5.9779158618766814e-05,-2.309653973497916e-05,-0.00012076916027581319,9.929489169735461e-05
-6.208915146999061e-05,-6.47872684567119e-06,-2.568888339737896e-05,-0.00011412951425882056,0.00013357572606764734
-6.326813308987767e-05,3.1048803066369146e-05,-2.6899066142505035e-05,-9.974274144042283e-05,0.00014929656754247844
-6.241633673198521e-05,5.108395271236077e-05,-2.734117333602626e-05,-7.257336255861446e-05,0.00014578211994376034
-5.990199133520946e-05,6.627277616644278e-05,-2.974625567730982e-05,-4.053995508002117e-05,0.00013282506552059203
-5.5206513934535906e-05,8.231103129219264e-05,-3.102410846622661e-05,-1.1176630323461723e-05,0.00012210629938635975
-4.4914741010870785e-05,9.671191219240427e-05,-2.354299431317486e-05,5.7134006965497974e-06,0.00012261004303582013
-3.7364879972301424e-05,0.0001060680442606099,-1.639797119423747e-05,1.0440177902637515e-05,0.00012806072481907904
-3.811333954217844e-05,0.00011107155296485871,-1.274670739803696e-05,1.3180150745029096e-05,0.00012558246089611202
-3.873246896546334e-05,0.00011461004032753408,-6.40390726402984e-06,1.5078058822837193e-05,0.00011480567627586424
-3.871482840622775e-05,0.0001122693283832632,5.394010713644093e-06,9.045876140589826e-06,0.00010852568811969832
-4.39568939327728e-05,0.00010285784082952887,1.4366421055456158e-05,4.910253892376204e-07,0.00010827488586073741
-4.587687726598233e-05,9.37613076530397e-05,1.4382821063918527e-05,2.354133357584942e-06,0.00010516690963413566
-3.711828321684152e-05,7.655056106159464e-05,1.2252813576196786e-05,-1.8203846821052139e-06,9.926129860104993e-05
-2.2213906049728394e-05,3.797907993430272e-05,4.184693352726754e-06,-2.4100381779135205e-05,9.313627379015088e-05
-1.0724844287324231e-05,-1.9851602701237425e-05,-1.4901095710229129e-05,-5.198325379751623e-05,8.411324233748019e-05
-1.4463596016867086e-05,-5.607984712696634e-05,-3.478008147794753e-05,-7.913128501968458e-05,6.278452929109335e-05
-3.721599205164239e-05,-4.962694220012054e-05,-4.511336737778038e-05,-0.00010413619020255283,3.4400669392198324e-05
-5.5645905376877636e-05,-2.687106461962685e-05,-4.695919415098615e-05,-0.0001287117338506505,1.6339297872036695e-05
-5.9295547544024885e-05,-1.791097383829765e-05,-4.446310049388558e-05,-0.00014591150102205575,1.589209568919614e-05
-5.482674896484241e-05,-3.509579619276337e-05,-4.018137769890018e-05,-0.00014075011131353676,2.5966543034883216e-05
-4.8561800213065e-05,-5.910799154662527e-05,-3.3778807846829295e-05,-0.00011290316615486518,3.3806329156504944e-05
-4.124149927520193e-05,-5.240392420091666e-05,-2.352229603275191e-05,-6.944845517864451e-05,2.99849398288643e-05
-2.9788949177600443e-05,-1.0295038009644486e-05,-8.524400072928984e-06,-1.3735749234911054e-05,1.3844405657437164e-05
-1.5704354154877365e-05,1.873340988822747e-05,1.0956729965982959e-05,4.8025605792645365e-05,-3.3539758987899404e-06
-3.5806565392704215e-06,1.3320169500730117e-06,2.953773037006613e-05,0.0001084393443306908,-1.305759451497579e-05
-1.1825225101347314e-06,-2.6770345357363112e-05,4.5116648834664375e-05,0.000163823293405585,-1.5079766853887122e-05
-1.2324097951932345e-05,-8.08526328910375e-06,6.110467074904591e-05,0.00020866999693680555,-1.400152723363135e-05
-3.2409046980319545e-05,4.7623518184991553e-05,7.539740181528032e-05,0.00023456579947378486,-1.4981819731474388e-05
-4.047916809213348e-05,7.918301707832143e-05,8.260484901256859e-05,0.00022721471032127738,-1.7234557162737474e-05
-2.7612213671091013e-05,6.352672789944336e-05,7.857020682422444e-05,0.00018376966181676835,-1.2219474228913896e-05
-6.250544174690731e-06,3.3655007428023964e-05,6.642629887210205e-05,0.00012586230877786875,3.7781962873850716e-06
2.429686901450623e-06,2.1151887267478742e-05,5.6034034059848636e-05,7.883582293288782e-05,2.9534974601119757e-05
-6.5323597482347395e-06,2.66389106400311e-05,4.9486581701785326e-05,4.4767959479941055e-05,6.483033939730376e-05
-1.8937080312753096e-05,3.6542762245517224e-05,4.1311559471068904e-05,1.4127782378636766e-05,0.00010739848221419379
-2.460313044139184e-05,4.254829400451854e-05,3.067723082494922e-05,-2.6979478207067586e-07,0.00015485816402360797
-2.4760247470112517e-05,4.846026422455907e-05,2.3445487386197783e-05,5.680752565240255e-06,0.00020289496751502156
-2.3184216843219474e-05,4.953454845235683e-05,1.9887049347744323e-05,1.0845462384168059e-05,0.00023216311819851398
-2.053329808404669e-05,3.868856219924055e-05,1.7385911633027717e-05,1.243197766598314e-05,0.00023186151520349085
-1.81650320882909e-05,2.1978356016916223e-05,1.3498988664650824e-05,1.214283020090079e-05,0.0002078723191516474
-2.3408530978485942e-05,-4.077950052305823e-06,9.575805961503647e-06,1.7444417608203366e-06,0.00017113180365413427
-3.7582583900075406e-05,-3.3936972613446414e-05,5.144715487404028e-06,-2.6237630663672462e-05,0.00013212311023380607
-5.542485087062232e-05,-4.770242594531737e-05,-1.5737181229269481e-06,-6.341114931274205e-05,9.56075091380626e-05
-7.505661778850481e-05,-4.009238909929991e-05,8.578601295994304e-07,-9.272187890019268e-05,6.270760059123859e-05
-9.808595495996997e-05,-2.6293902919860557e-05,1.0825023309735116e-05,-0.00011220793385291472,2.064125146716833e-05
-0.00011615072435233742,-1.2878875168098602e-05,1.5280689694918692e-05,-0.0001285723556065932,-2.7962243621004745e-05
-0.00012158550089225173,4.612655629898654e-06,7.372414074779954e-06,-0.00014841029769741,-5.876000795979053e-05
-0.00011393625027267262,3.37738347298e-05,-6.35990318187396e-06,-0.00016945316747296602,-5.135775791131891e-05
-9.726173448143527e-05,6.606295937672257e-05,-1.9320914361742325e-05,-0.00018520723097026348,-9.374835826747585e-06
-7.156257925089449e-05,8.833140600472689e-05,-2.7573862098506652e-05,-0.00018678703054320067,4.8778059863252565e-05
-3.5638258850667626e-05,0.00010319973080186173,-2.6935786081594415e-05,-0.00016531742585357279,0.00010225598089164123
3.33085267811839e-06,0.00011273445124970749,-2.1672005459549837e-05,-0.00013035492156632245,0.0001381218753522262
2.917276469815988e-05,0.00011699081369442865,-1.9002813132829033e-05,-0.000100375858892221,0.0001538581564091146
3.1729432521387935e-05,0.00011261668987572193,-2.322459295100998e-05,-7.536053453804925e-05,0.00015056217671371996
2.8607319109141827e-05,0.00010040465713245794,-2.8205124181113206e-05,-4.121081292396411e-05,0.00013565058179665357
3.674033723655157e-05,8.798726776149124e-05,-2.703333302633837e-05,-6.028940902069735e-07,0.00011475574865471572
4.4237953261472285e-05,8.932792843552306e-05,-1.842777055571787e-05,3.0122393582132645e-05,8.922799315769225e-05
3.408713382668793e-05,0.00010639505489962175,-5.850564775755629e-06,3.934134292649105e-05,5.9716425312217325e-05
8.292901839013211e-06,0.00012848553888034075,2.93028438136389e-06,2.5325090973637998e-05,3.2376487069996074e-05
-2.1149471649550833e-05,0.00014264606579672545,4.6184663915482815e-06,-8.893304652701772e-07,1.7177835616166703e-05
-4.4404336222214624e-05,0.00014253104745876044,7.80053869675612e-06,-2.4975943233584985e-05,1.4970982192608062e-05
-6.262242095544934e-05,0.00012796797091141343,1.3788202522846404e-05,-4.195584915578365e-05,1.7405076505383477e-05
-7.538445788668469e-05,0.00010256899986416101,1.8110375094693154e-05,-4.820381582248956e-05,2.0619549104594626e-05
-7.632417691638693e-05,6.257927452679724e-05,1.8762395484372973e-05,-4.2095649405382574e-05,2.9879734938731417e-05
-6.491411477327347e-05,9.580460755387321e-06,1.738399987516459e-05,-3.562918573152274e-05,4.7561909013893455e-05
-4.694876406574622e-05,-5.154106838745065e-05,1.728273491607979e-05,-2.9826764148310758e-05,7.181717228377238e-05
-2.596541708044242e-05,-0.00010134697367902845,1.9312095901113935e-05,-9.048277206602506e-06,9.634593152441084e-05
-4.887577233603224e-06,-0.0001329348306171596,2.3683116523898207e-05,2.306261558260303e-05,0.00010701376595534384
1.1738941793737467e-05,-0.0001510193251306191,3.1593259336659685e-05,4.7781002649571747e-05,0.00010539536742726341
1.9292559954919852e-05,-0.0001508703426225111,3.881612792611122e-05,5.727928873966448e-05,9.325837163487449e-05
2.5834959160420112e-05,-0.0001351597165921703,3.676659252960235e-05,5.1885224820580333e-05,7.733138772891834e-05
3.1646399293094873e-05,-9.586952364770696e-05,3.1916715670377016e-05,4.246752359904349e-05,6.38721467112191e-05
2.996307739522308e-05,-3.9796541386749595e-05,2.5917763196048327e-05,3.502284380374476e-05,4.9152306019095704e-05
2.119074088113848e-05,8.828410500427708e-06,1.868911385827232e-05,2.4809507522149943e-05,3.376313907210715e-05
1.3968590792501345e-05,2.7271620638202876e-05,1.1304448889859486e-05,1.1012089089490473e-05,2.357043013034854e-05
8.280140718852635e-06,1.650921331020072e-05,3.1822391974856146e-06,-2.338632839382626e-06,2.1267953343340196e-05
-1.8679662616705173e-07,-2.299907691849512e-06,-5.359072474675486e-06,-1.207052446261514e-05,2.179116017941851e-05
-7.492556960642105e-06,-3.70922384718142e-06,-9.660389878263231e-06,-1.925925062096212e-05,2.387172935414128e-05
-1.047952173394151e-05,1.4759612895431928e-05,-1.0976874364132527e-05,-2.4534832846256904e-05,2.8650243621086702e-05
-1.0211706467089243e-05,3.936046778107993e-05,-1.550282286189031e-05,-2.9810331398039125e-05,3.652210580185056e-05
-1.1227143659198191e-05,5.9554444305831566e-05,-1.6802354366518557e-05,-3.586141610867344e-05,4.0334103687200695e-05
-1.3948430932941847e-05,7.636615191586316e-05,-1.3438118912745267e-05,-4.022793655167334e-05,4.041973807034083e-05
-1.7460786693845876e-05,9.41056277952157e-05,-1.1702551091730129e-05,-3.969214594690129e-05,4.1485356632620096e-05
-2.3430320652551018e-05,0.00010693537478800863,-8.712720955372788e-06,-3.278093572589569e-05,4.251598147675395e-05
-3.585938611649908e-05,0.00011230145173612982,-1.3698462453248794e-06,-2.2172072931425646e-05,4.05251958000008e-05
-5.135180617799051e-05,0.00011352328874636441,7.406239888041455e-07,-1.3026176020503044e-05,3.2102274417411536e-05
-6.385372398653999e-05,0.00010659819236025214,1.7368098781389563e-07,-4.8100046114996076e-06,1.609203354746569e-05
-6.35767137282528e-05,8.797277405392379e-05,2.473558424753719e-06,1.1839452781714499e-05,2.5402114260941744e-06
-5.303123180055991e-05,5.8762925618793815e-05,8.21332650957629e-06,3.5455454053590074e-05,-8.86169686964422e-07
-4.057103069499135e-05,1.4437486242968589e-05,1.4777902833884582e-05,5.5663007515249774e-05,5.435444563772762e-06
-3.27675516018644e-05,-3.0056746254558675e-05,1.9985913240816444e-05,7.232765346998349e-05,1.8668797565624118e-05
-3.874478716170415e-05,-3.864526661345735e-05,1.978397267521359e-05,8.615140541223809e-05,3.348945756442845e-05
-4.4760665332432836e-05,-1.5919435099931434e-05,1.598373637534678e-05,8.780663483776152e-05,5.1067370804958045e-05
-4.347705180407502e-05,1.8113973055733368e-05,1.3285065506352112e-05,7.632305641891435e-05,6.820863927714527e-05
-4.093992174603045e-05,6.667007983196527e-05,1.1582311344682239e-05,6.071342431823723e-05,8.036052895477042e-05
-3.231348819099367e-05,0.00011174395331181586,1.3376959941524547e-05,4.839901521336287e-05,8.522599819116294e-05
-2.1537036445806734e-05,0.00013624892744701356,1.4632598322350532e-05,4.389325113152154e-05,8.342898945556954e-05
-1.7941443729796447e-05,0.00012058673746651039,1.6470721675432287e-05,4.031688149552792e-05,7.975481275934726e-05
-2.934017902589403e-05,5.4519357945537195e-05,1.696908839221578e-05,2.4447133910143748e-05,7.501571963075548e-05
-4.611954864230938e-05,-3.0271581636043265e-05,1.0585940799501259e-05,-6.0766828937630635e-06,7.04173362464644e-05
-5.253303243080154e-05,-6.658578786300495e-05,2.144743120879866e-06,-2.7453947041067295e-05,6.985221261857077e-05
-4.127489955862984e-05,-5.161741501069628e-05,-5.037129540141905e-06,-3.227002525818534e-05,7.043378718663007e-05
-2.0128656615270302e-05,-4.0761926356935874e-05,-1.1941777302126866e-05,-3.345849472680129e-05,6.39583813608624e-05
-4.737127255793894e-06,-3.349017060827464e-05,-1.1374691894161515e-05,-3.298568117315881e-05,5.3046460379846394e-05
-9.471007615502458e-06,-1.1089011877629673e-06,-4.907400125375716e-06,-2.9682150852750055e-05,4.353297481429763e-05
-2.420654345769435e-05,4.5494707592297345e-05,-1.1086108315794263e-06,-2.3821359718567692e-05,4.028292460134253e-05
-2.400234188826289e-05,8.467715088045225e-05,-2.1700650449929526e-06,-1.6170324670383707e-05,4.859879118157551e-05
-1.1508387615322135e-05,0.0001198133104480803,-2.757878519332735e-06,-1.6834752386785112e-05,6.871248479001224e-05
-9.514954399492126e-06,0.00014124391600489616,-2.054656761174556e-06,-4.0430684748571366e-05,9.099368617171422e-05
-1.9925433662137948e-05,0.000125797902001068,-4.307039944251301e-06,-7.68368918215856e-05,0.00010230101906927302
-2.1334975826903246e-05,6.210851279320195e-05,-6.854330422356725e-06,-9.893760579871014e-05,0.00010333549289498478
-8.452562724414747e-06,-2.2669672034680843e-05,-9.771744771569502e-06,-0.00010354360711062327,0.00010041247151093557
8.163946404238231e-06,-7.73816864239052e-05,-2.03454965230776e-05,-0.00011791462020482868,9.265073458664119e-05
1.5914305549813434e-05,-8.645534398965538e-05,-3.715468119480647e-05,-0.00013822641631122679,7.943791570141912e-05
1.9621034880401567e-05,-9.17231009225361e-05,-4.952804374624975e-05,-0.00014140336134005338,6.69225410092622e-05
2.1705394829041325e-05,-0.0001072204249794595,-4.958164572599344e-05,-0.0001287265185965225,5.7754336012294516e-05
1.9124770915368572e-05,-9.730376041261479e-05,-4.1664574382593855e-05,-0.00011222869215998799,4.650272967410274e-05
1.7936608855961822e-05,-3.672289312817156e-05,-3.8671569200232625e-05,-9.89648251561448e-05,3.56962664227467e-05
2.3551374397356994e-05,3.074664709856734e-05,-3.744666537386365e-05,-8.14678132883273e-05,3.70774396287743e-05
4.1026563849300146e-05,4.253886436345056e-05,-2.6782277927850373e-05,-5.2408788178581744e-05,4.839755274588242e-05
4.828621240449138e-05,8.96249184734188e-06,-7.100737093423959e-06,-1.1144586096634157e-05,5.4933942010393366e-05
2.6673949832911603e-05,6.937378657312365e-06,1.3683015822607558e-05,3.6356115742819384e-05,5.400289228418842e-05
-1.2010783621008159e-06,5.728013638872653e-05,3.6948189517715946e-05,8.327380783157423e-05,5.3940526413498446e-05
-2.2911797714186832e-05,9.807019523577765e-05,5.984510789858177e-05,0.00012667795817833394,5.452817276818678e-05
-3.2357522286474705e-05,8.854573388816789e-05,7.771988748572767e-05,0.00015836053353268653,4.8559104470768943e-05
-3.3620955946389586e-05,3.941386967198923e-05,8.926208829507232e-05,0.0001694353559287265,3.9009035390336066e-05
-3.727682997123338e-05,1.9110897483187728e-05,9.62333579082042e-05,0.00015940130106173456,4.073670424986631e-05
-4.261848880560137e-05,5.455002246890217e-05,9.406703611603007e-05,0.00013799150474369526,6.066823334549554e-05
-4.414965951582417e-05,0.00011105742305517197,8.103832078631967e-05,0.00010616891813697293,9.269820293411613e-05
-4.248299592291005e-05,0.0001429035619366914,6.419244164135307e-05,6.68704669806175e-05,0.00011498972162371501
-3.89509805245325e-05,0.00014356097381096333,5.0670190830715e-05,3.706740608322434e-05,0.00011554446973605081
-3.382603608770296e-05,0.00012399067054502666,4.364701089798473e-05,2.9586597520392388e-05,0.00010251457570120692
-2.7932248485740274e-05,9.337833762401715e-05,4.0522740164306015e-05,3.938580630347133e-05,8.889391756383702e-05
-2.023657361860387e-05,6.079623199184425e-05,3.780303450184874e-05,5.1448259910102934e-05,8.397492638323456e-05
-1.690373755991459e-05,2.716558265092317e-05,2.9576320230262354e-05,6.052006938261911e-05,8.773250738158822e-05
-2.4990556994453073e-05,-7.777456630719826e-06,1.7313284843112342e-05,7.013822323642671e-05,9.111673716688529e-05
-3.811418719124049e-05,-4.376233118819073e-05,5.807274646940641e-06,7.856209413148463e-05,8.357450133189559e-05
-3.517499135341495e-05,-7.912397268228233e-05,-1.4311896165963844e-06,7.764915062580258e-05,7.088259008014575e-05
-1.8840315533452667e-05,-0.00010565790580585599,-5.154002337803831e-06,6.414842209778726e-05,6.339148967526853e-05
-1.778106343408581e-05,-0.00010082269000122324,-8.71800057211658e-06,4.467278267838992e-05,5.463120760396123e-05
-4.1338589653605595e-05,-6.355939694913104e-05,-1.2354696991678793e-05,2.884290188376326e-05,3.342708441778086e-05
-6.817160465288907e-05,-1.136740502261091e-05,-1.0617119187372737e-05,1.5278388673323207e-05,4.613999863067875e-06
-8.62191227497533e-05,3.745865615201183e-05,-8.886571777111385e-06,1.3280746316013392e-06,-1.37983570311917e-05
-9.910469816531986e-05,7.451295095961541e-05,-8.59053761814721e-06,-1.6424062778241932e-05,-1.1863684449053835e-05
-9.710388985695317e-05,8.196153066819534e-05,-7.651093255844899e-06,-4.714094029623084e-05,7.968176760186907e-06
-8.008655277080834e-05,6.320077227428555e-05,-7.225352419482078e-06,-7.769211515551433e-05,2.795640830299817e-05
-6.34375392110087e-05,3.4840111766243353e-05,-9.320644494437147e-06,-9.353532368550077e-05,3.358169487910345e-05
-5.467704249895178e-05,8.13012957223691e-06,-1.6096091712825e-05,-0.00010170277528231964,2.1907466361881234e-05
-5.717236490454525e-05,-1.318337945122039e-05,-1.804640305635985e-05,-0.00010918793850578368,-7.381731279565429e-07
-6.762570410501212e-05,-3.0494884413201362e-05,-1.4015829947311431e-05,-0.00011628316133283079,-1.3885810403735377e-05
-7.632584311068058e-05,-3.3530781365698203e-05,-8.370649084099568e-06,-0.00010984081018250436,-2.1135418137419038e-05
-7.281044236151502e-05,-1.903216070786584e-05,2.8578153887792723e-07,-8.326957322424278e-05,-2.7643312932923436e-05
-6.48646819172427e-05,-6.702927294099936e-06,1.0862444469239563e-05,-4.444758451427333e-05,-2.823579234245699e-05
-5.2791801863349974e-05,-1.747991291267681e-06,1.879552291939035e-05,-2.225733851446421e-06,-2.2169537260197103e-05
-3.909086808562279e-05,1.526160076537053e-06,2.169219260395039e-05,4.385011561680585e-05,-1.2060733752150554e-05
-2.7440333724371158e-05,7.505002486141166e-06,2.1666433895006776e-05,7.838139572413638e-05,1.2617723768926226e-05
-1.845479528128635e-05,1.8979984815814532e-05,2.016375947277993e-05,8.760804485064e-05,5.3934098104946315e-05
-1.5842837456148118e-05,4.445185186341405e-05,1.6913507352001034e-05,8.257477747974917e-05,9.991635306505486e-05
-1.7684105841908604e-05,9.122589835897088e-05,9.975933608075138e-06,7.503559027099982e-05,0.0001339050504611805
-1.9896131561836228e-05,0.00014615051622968167,-4.841160361479524e-08,6.168521213112399e-05,0.00014748946705367416
-1.9949522538809106e-05,0.00017846601258497685,-1.0853131243493408e-05,3.638861744548194e-05,0.00015095023263711482
-1.947959935932886e-05,0.00017049055895768106,-2.1931553419562988e-05,3.4768736441037618e-06,0.00015810337208677083
-1.4336656022351235e-05,0.0001415485457982868,-3.180440398864448e-05,-3.7022033211542293e-05,0.00017249250959139317
-4.310586518840864e-06,0.00011413263564463705,-3.6749559512827545e-05,-8.71063384693116e-05,0.00017918369849212468
5.4496781558555085e-06,8.98830039659515e-05,-3.564669532352127e-05,-0.00014333364379126579,0.0001648470788495615
4.6279192247311585e-06,6.670011498499662e-05,-3.267640931881033e-05,-0.0002010415046242997,0.0001308880455326289
-6.1889695643913e-06,5.328002225724049e-05,-3.4322951250942424e-05,-0.0002547358744777739,9.264957043342292e-05
-2.0453626348171383e-05,4.2003819544333965e-05,-3.474378172541037e-05,-0.000288057723082602,5.274670911603607e-05
-2.9412185540422797e-05,3.1515854061581194e-05,-2.4712406229809858e-05,-0.0002931722847279161,1.3095879694446921e-05
-2.7435924494056962e-05,2.2226142391446047e-05,-1.6397894796682522e-05,-0.00027707606204785407,-1.787690052879043e-05
-1.9181004972779192e-05,9.62904050538782e-06,-1.4306406228570268e-05,-0.00023815647000446916,-3.0496466933982447e-05
-1.6994366887956858e-05,8.19502747617662e-06,-8.471010005450808e-06,-0.00016234602662734687,-2.0552986825350672e-05
-2.088325891236309e-05,3.309171734144911e-05,2.0424349713721313e-06,-7.945008837850764e-05,2.8780534648831235e-06
-1.8322809410165064e-05,5.672197585226968e-05,8.585267096350435e-06,-2.1730409571318887e-05,2.6884670660365373e-05
1.1377353814623348e-07,6.967579247429967e-05,1.1863066902151331e-05,1.353680909232935e-05,4.587083822116256e-05
2.0175684767309576e-05,0.000103024322015699,1.579178024257999e-05,3.582978024496697e-05,5.9676385717466474e-05
2.0113995560677722e-05,0.0001545723353046924,1.7408470739610493e-05,5.209680966800079e-05,7.250087946886197e-05
1.9314113160362467e-05,0.00017766508972272277,1.5182309653027914e-05,5.063520802650601e-05,8.592998347012326e-05
2.9961036489112303e-05,0.00013388188381213695,1.1332163012411911e-05,3.845834726234898e-05,9.89029576885514e-05
4.132496178499423e-05,5.562496153288521e-05,1.2493015674408525e-05,3.327501690364443e-05,0.00010897291213041171
3.9429825847037137e-05,3.3334229101456003e-06,1.6928675904637203e-05,4.0276099753100425e-05,0.00011340669152559713
1.6118307030410506e-05,-2.0344084987300448e-05,2.2291387722361833e-05,5.46476585441269e-05,0.00011298463505227119
-1.0714949894463643e-05,-4.91810314997565e-05,2.4408011086052284e-05,7.212027412606403e-05,0.00010704598389565945
-2.076231066894252e-05,-7.720401481492445e-05,2.1035446479800157e-05,9.193837468046695e-05,9.37427903409116e-05
-1.777868965291418e-05,-7.05619968357496e-05,1.4018202818988357e-05,0.00010405146895209327,8.174156391760334e-05
-1.8051528968499042e-05,-4.800857641384937e-05,3.6111598546995083e-06,9.660236537456512e-05,7.681937859160826e-05
-2.5099507183767855e-05,-4.279709901311435e-05,-8.594263817940373e-06,7.35046123736538e-05,7.36278816475533e-05
-4.190001345705241e-05,-4.412942143972032e-05,-1.987794712476898e-05,4.7426623495994136e-05,6.3151033828035e-05
-6.998737808316946e-05,-2.8223066692589782e-05,-2.546079304011073e-05,2.295252852491103e-05,4.308051211410202e-05
-9.582991333445534e-05,3.7976114981574938e-06,-2.348399539187085e-05,-1.2953861414644052e-06,1.4659617590950802e-05
-0.00010932018631137908,3.419321001274511e-05,-1.4776201169297565e-05,-2.392277201579418e-05,-2.5334991732961498e-05
-0.00011491939221741632,4.756132693728432e-05,-5.642995802190853e-06,-4.076942423125729e-05,-6.97115101502277e-05
-0.00011240989260841161,4.698962584370747e-05,-1.714199356683821e-06,-5.202071406529285e-05,-0.00010205746366409585
-9.674778993939981e-05,4.4780957978218794e-05,-3.1518961804977152e-06,-6.536615546792746e-05,-0.00011456821812316775
-7.194838690338656e-05,3.914254921255633e-05,-5.132078968017595e-06,-8.89149887370877e-05,-0.00011262784391874447
-4.709870700025931e-05,2.1357604055083357e-05,-5.421230980573455e-06,-0.00011087823077104986,-0.00010356030543334782
-3.1731557101011276e-05,-2.3482007236452773e-05,-4.420035679686407e-07,-0.0001121630339184776,-9.779865649761632e-05
-2.3281552785192616e-05,-7.401553739327937e-05,8.79628260008758e-06,-8.900563989300281e-05,-9.41499529290013e-05
-1.0922308320004959e-05,-7.990693120518699e-05,1.7095353541662917e-05,-5.98353763052728e-05,-6.425376341212541e-05
-5.395856533141341e-06,-3.682746319100261e-05,2.335753379156813e-05,-4.827555676456541e-05,-1.0310745892638806e-05
-1.542892277939245e-05,1.1868301044160035e-05,2.3757827875670046e-05,-5.2399129344848916e-05,2.68462099484168e-05
-3.285684942966327e-05,3.6300472856964916e-05,1.6918971596169285e-05,-5.661743489326909e-05,5.069241160526872e-05
-4.670579073717818e-05,3.999206455773674e-05,4.225639258947922e-06,-5.2889594371663406e-05,8.8268265244551e-05
-5.008000152884051e-05,4.0754381188889965e-05,-3.6340527458378347e-06,-3.920550079783425e-05,0.00014117722457740456
-4.3864220060640946e-05,3.680195004562847e-05,-5.352244443201926e-07,-1.743370739859529e-05,0.00020288994710426778
-3.0234201403800398e-05,1.7682894394965842e-05,4.792749223270221e-06,8.852892278810032e-06,0.00027524278266355395
-1.7175978427985683e-05,-1.2792689631169196e-05,8.450806490145624e-06,3.8468850107165053e-05,0.0003312698390800506
-5.63526828045724e-06,-4.005010850960389e-05,1.1749826626328286e-05,6.599361222470179e-05,0.00034305464942008257
7.772666776872938e-07,-3.193767770426348e-05,1.4930799807189032e-05,8.315216837218031e-05,0.00031943709473125637
-1.6244753169303294e-06,1.9656115910038352e-05,1.8542838006396778e-05,8.798973431112245e-05,0.0002811875892803073
-5.709545803256333e-06,6.956209108466282e-05,2.3044483896228485e-05,8.310728298965842e-05,0.00023867166601121426
-4.426902705745306e-06,7.57295565563254e-05,2.570688957348466e-05,7.017795724095777e-05,0.00019747338956221938
1.6872545529622585e-06,5.049135143053718e-05,2.3992744900169782e-05,4.526605334831402e-05,0.00016518522170372307
9.98718405753607e-06,4.2080962884938344e-05,2.0471228708629496e-05,8.366461770492606e-06,0.00014456627832259983
1.2675799553107936e-05,6.857686821604148e-05,1.7360291167278774e-05,-2.5769724743440747e-05,0.00013672781642526388
4.662781975639518e-06,0.00010476805618964136,1.4112687495071441e-05,-4.572384568746202e-05,0.00013386437785811722
-4.902273303741822e-06,0.00011657238064799458,7.082475804054411e-06,-5.5526255891891196e-05,0.00012656151375267655
-7.077661848597927e-06,7.193693454610184e-05,-2.277733074151911e-06,-5.694324499927461e-05,0.00010801912139868364
-7.868417924328241e-06,-3.3810054446803406e-05,-3.7761151361337397e-06,-4.56113375548739e-05,7.983141404110938e-05
-1.528569555375725e-05,-0.00013804686022922397,3.7879967749177013e-06,-1.840515324147418e-05,5.2242754463804886e-05
-1.8077287677442655e-05,-0.0001595275680301711,1.52692537085386e-05,1.551139030198101e-05,3.478576763882302e-05
-1.3364509868551977e-05,-8.361349318875e-05,2.458195376675576e-05,4.289463322493248e-05,2.5861547328531742e-05
-9.490833690506406e-06,9.729296834848356e-06,2.4132034013746306e-05,6.011226287228055e-05,1.9144044927088544e-05
-7.383875072264345e-06,2.8038139134878293e-05,1.1899704986717552e-05,6.012651283526793e-05,1.6541522199986503e-05
-1.1429535334173124e-05,-1.2818866707675625e-05,-5.83425207878463e-06,3.1350722565548494e-05,1.6673653590260074e-05
-1.7822263544076122e-05,-4.1374565626028925e-05,-2.3600512577104382e-05,-2.2514042939292267e-05,1.5692554370616563e-05
-1.8378812455921434e-05,-2.255379149573855e-05,-3.1483243219554424e-05,-5.330216299626045e-05,1.6946436517173424e-05
-1.7127349565271288e-05,1.9644379790406674e-05,-2.5477749659330584e-05,-5.104497540742159e-05,1.8026623365585692e-05
-1.4624978575739078e-05,4.903394074062817e-05,-1.547474312246777e-05,-3.479867154965177e-05,1.6343657989636995e-05
-1.4305230706668226e-06,6.981081241974607e-05,-2.0785043943760684e-06,-1.0405820830783341e-05,1.3610108908324037e-05
1.7105341612477787e-05,7.262804138008505e-05,1.1871425158460625e-05,7.860251571401022e-06,1.561011049489025e-05
2.9446389817167073e-05,5.874590351595543e-05,2.126761137333233e-05,2.7890060664503835e-05,2.4258453777292743e-05
2.9440794605761766e-05,5.228383815847337e-05,2.508408397261519e-05,4.828034434467554e-05,3.153810393996537e-05
9.89484124147566e-06,6.250089063541964e-05,3.257782736909576e-05,7.275899406522512e-05,2.9781767807435244e-05
-1.8475346223567612e-05,7.402129995170981e-05,4.691359936259687e-05,9.774070349521935e-05,2.1349653252400458e-05
-3.8323854823829606e-05,5.6491426221327856e-05,5.809710273751989e-05,0.00010909215779975057,1.5176914530456997e-05
-4.042029468109831e-05,1.5073806935106404e-05,6.039708750904538e-05,0.00010284409654559568,1.6169653463293798e-05
-3.3917796827154234e-05,-1.0535538422118407e-05,5.8292425819672644e-05,9.016600233735517e-05,1.9474509826977737e-05
-3.2931999157881364e-05,9.780600521480665e-06,5.2597471949411556e-05,7.890525012044236e-05,1.879537921922747e-05
-3.607605322031304e-05,5.369357313611545e-05,4.2086801840923727e-05,6.575824954779819e-05,1.2566372788569424e-05
-3.9993170503294095e-05,8.356352191185579e-05,3.070740422117524e-05,4.533895116765052e-05,4.438282303453889e-06
-4.71331222797744e-05,9.588510147295892e-05,2.0166802642052062e-05,2.0806677639484406e-05,2.2308784082269995e-06
-5.67743627470918e-05,0.00010046300303656608,1.1724203432095237e-05,4.787631496583344e-06,6.001590008963831e-06
-6.18238263996318e-05,9.475617844145745e-05,6.996943739068229e-06,-1.5132415001062327e-06,9.480751941737253e-06
-5.950179911451414e-05,8.125531894620508e-05,6.153878530312795e-06,-1.296026994168642e-06,6.4529226619924884e-06
-5.083434371044859e-05,6.708670844091102e-05,8.887700460036285e-06,9.6789824510779e-07,-1.6183265643121558e-06
-4.001189154223539e-05,5.370804137783125e-05,1.369874007650651e-05,2.1567927888099803e-06,-1.012040775094647e-05
-3.802394712693058e-05,3.941172326449305e-05,1.1104702025477309e-05,-3.068298610742204e-06,-1.739138133416418e-05
-4.574301419779658e-05,2.4433076760033146e-05,4.641373834601836e-06,-1.2980668543605134e-05,-2.5130490030278452e-05
-5.061981937615201e-05,9.233694981958251e-06,-3.707972098254686e-07,-2.0253683032933623e-05,-3.279071097495034e-05
-4.708100823336281e-05,-7.294294164239545e-07,-3.848296728392597e-06,-1.9845558199449442e-05,-3.3218606404261664e-05
-3.694714541779831e-05,4.056626039528055e-06,-3.87299360227189e-06,-1.7281932741752826e-05,-1.9211509425076656e-05
-2.5569215722498484e-05,1.965032788575627e-05,-6.122697413957212e-06,-1.927710763993673e-05,5.858322310814401e-06
-2.9475619157892652e-05,5.090233753435314e-05,-1.6338126442860812e-05,-3.131556877633557e-05,2.8175225452287123e-05
-3.777673191507347e-05,9.337587835034356e-05,-3.0852665076963603e-05,-5.856347706867382e-05,4.363134576124139e-05
-3.4782795410137624e-05,0.0001044045711751096,-4.228538819006644e-05,-8.663836342748255e-05,5.346468242350966e-05
-2.9523129342123866e-05,5.5570963013451546e-05,-4.4479413190856576e-05,-0.00010341119195800275,5.531997885555029e-05
-2.8347792977001518e-05,-7.310541604965692e-06,-3.9670212572673336e-05,-0.00011203546455362812,5.1832659664796665e-05
-3.323503551655449e-05,-2.336065335839521e-05,-3.719274900504388e-05,-0.0001165434587164782,3.887036655214615e-05
-3.774890137719922e-05,9.711047823657282e-06,-3.51199196302332e-05,-0.00011725146032404155,2.3620963474968448e-05
-4.108143548364751e-05,5.7138317060889676e-05,-2.4126155039994046e-05,-9.753987978911027e-05,2.7532538297236897e-05
-4.72705032734666e-05,9.221521759172902e-05,-9.66630432230886e-06,-5.9152542235096917e-05,6.033039608155377e-05
-5.732960926252417e-05,0.00010845775250345469,-1.353689640382072e-06,-1.8006838217843324e-05,0.00010586242569843307
-5.660746683133766e-05,9.714416228234768e-05,8.138193834383856e-07,1.4977073078625835e-05,0.0001418128958903253
-4.4904209062224254e-05,4.4768687075702474e-05,2.486024186509894e-06,3.823472434305586e-05,0.00016425469948444515
-3.494456541375257e-05,-4.52870772278402e-05,4.587596322380705e-06,5.220121602178551e-05,0.000175630790181458
-3.9716171158943325e-05,-0.00012168953253421932,7.615039066877216e-06,5.6053751904983073e-05,0.00017611809016671032
-6.164186197565868e-05,-0.00012560118921101093,1.2155490367149469e-05,5.353126834961586e-05,0.00016780906298663467
-8.438240183750167e-05,-6.110360118327662e-05,1.3133766515238676e-05,5.1476865337463096e-05,0.00015591281407978386
-9.00624436326325e-05,7.865286534070037e-06,7.899850061221514e-06,4.585134593071416e-05,0.0001385515060974285
-6.96664210408926e-05,3.837404801743105e-05,2.3967502329469426e-06,2.5160259610856883e-05,0.00011816765618277714
-3.840207864413969e-05,4.088697460247204e-05,2.615940957184648e-07,-5.790197519672802e-06,9.572115959599614e-05
-2.126572326233145e-05,4.359068407211453e-05,-2.1241251033643493e-06,-3.643664967967197e-05,6.412855145754293e-05
-2.1440087948576547e-05,6.48949935566634e-05,-5.8027908380609006e-06,-5.8113557315664366e-05,2.9702343454118818e-05
-2.1679807105101645e-05,8.908452582545578e-05,-1.150030038843397e-05,-7.648822793271393e-05,5.753749064751901e-06
-1.5017727491795085e-05,9.846107423072681e-05,-1.9174680346623063e-05,-9.955724090104923e-05,-7.998718501767144e-06
-1.290311229240615e-05,9.489322837907821e-05,-2.6449119104654528e-05,-0.00012252060696482658,-1.628044992685318e-05
-2.8643538826145232e-05,7.716511026956141e-05,-2.8849746740888804e-05,-0.0001345317141385749,-1.946636439242866e-05
-4.46587146143429e-05,6.1027181800454855e-05,-2.8888984161312692e-05,-0.00013126300473231822,-1.4803466910962015e-05
-4.559432272799313e-05,6.972557457629591e-05,-3.201165236532688e-05,-0.0001313951361225918,-4.878865638602292e-06
-4.1429142584092915e-05,9.291468450101092e-05,-3.5794309951597825e-05,-0.00014633928367402405,4.982558493793476e-06
-4.236262975609861e-05,9.607570973457769e-05,-3.16541081701871e-05,-0.00015478039858862758,2.0140774722676724e-05
-3.8946956919971853e-05,5.1351325964787975e-05,-2.1834046492585912e-05,-0.00013858517922926694,4.8451274778926745e-05
-3.3821652323240414e-05,-6.139780907687964e-06,-1.1445398740761448e-05,-9.404262527823448e-05,9.423742449143901e-05
-3.759214450838044e-05,-2.8618531359825283e-05,-2.768758577076369e-06,-3.2460509828524664e-05,0.00014774240844417363
-3.4677017538342625e-05,-2.2019592506694607e-05,1.1260460723860888e-06,1.7190015569212846e-05,0.00018033005471806973
-1.4153409210848622e-05,-1.5474683095817454e-05,3.3360936413373565e-06,2.607342139526736e-05,0.0001760098966769874
1.701694964140188e-05,-2.1328993170754984e-05,1.120617707783822e-05,1.653889921726659e-05,0.0001545948616694659
4.845064177061431e-05,-2.784494063234888e-05,2.6120296752196737e-05,1.7995174857787788e-05,0.00014043010014574975
7.23233024473302e-05,-3.010354885191191e-05,4.6722067054361105e-05,3.505762651911937e-05,0.00013269892951939255
8.652386895846575e-05,-2.7983431209577248e-05,6.689875590382144e-05,5.4229447414400056e-05,0.00012562570918817073
9.016787953441963e-05,-1.3667882740264758e-05,7.584254490211606e-05,6.495195702882484e-05,0.00011890289169969037
8.377443009521812e-05,2.0843996026087552e-05,7.175462815212086e-05,7.30511819710955e-05,0.0001145293572335504
6.453194509958848e-05,6.251694867387414e-05,5.8707024436444044e-05,7.180400280049071e-05,0.00010737105912994593
3.5174562071915716e-05,9.09703376237303e-05,3.9201575418701395e-05,4.793937478098087e-05,9.64942664722912e-05
6.688440407742746e-06,0.00010088703857036307,1.871016138466075e-05,3.927444595319685e-06,8.797647024039179e-05
-1.949447141669225e-05,0.000100409917649813,7.12162136551342e-06,-3.616102912928909e-05,7.976335473358631e-05
-4.531362355919555e-05,0.0001052750158123672,7.846120752219576e-06,-5.510475966730155e-05,6.85328632243909e-05
-6.480192678282037e-05,0.00011366498074494302,1.4814630048931576e-05,-5.37162741238717e-05,5.6290933571290225e-05
-7.027741958154365e-05,0.00010080422362079844,1.904616874526255e-05,-3.885300611727871e-05,4.6019224100746214e-05
-6.52166418149136e-05,5.927396341576241e-05,1.857575261965394e-05,-1.0114521501236595e-05,3.827939508482814e-05
-5.452533878269605e-05,1.724297362670768e-05,1.5462586816283874e-05,2.2441088731284253e-05,3.7577057810267434e-05
-4.3961077608400956e-05,-1.3627898624690715e-05,1.2600877198565286e-05,4.930180875817314e-05,4.498762791627087e-05
-3.153317084070295e-05,-3.891875167028047e-05,1.3143584510544315e-05,6.795270746806636e-05,5.8574089052854106e-05
-1.6929207049543038e-05,-4.1608731407905e-05,1.8366379663348198e-05,8.654008706798777e-05,6.767568993382156e-05
-1.0726297659857664e-05,-2.0746801965287887e-05,2.478121496096719e-05,0.00010568726429482922,6.0134363593533635e-05
