-0.00010557563655311242,1.868542494776193e-05,1.8297967471880838e-05,-1.3052617759967688e-05,6.230868893908337e-05
-0.00012828331091441214,-5.809167487313971e-05,1.0531469342822675e-05,-3.9383743569487706e-05,6.096249126130715e-05
-0.00010199192183790728,-0.00011522947897901759,-3.026151489393669e-06,-6.551815749844536e-05,5.306999082677066e-05
-2.9433018426061608e-05,-0.00010867695527849719,-1.0291904800396878e-05,-6.558054155902937e-05,4.663503204938024e-05
4.6345809096237645e-05,-5.150655488250777e-05,-7.66502671467606e-06,-4.639098551706411e-05,4.666089080274105e-05
8.890572644304484e-05,-9.13501571631059e-06,-4.331978743721265e-06,-3.1607305572833866e-05,5.4017782531445846e-05
9.6021183708217e-05,6.36480820048746e-07,-8.672760486660991e-06,-2.7490466891322285e-05,6.207251863088459e-05
9.788679017219692e-05,-4.444598744157702e-06,-1.3778641914541367e-05,-2.1655361706507392e-05,7.004923827480525e-05
9.601778583601117e-05,-6.298571406659903e-06,-1.3296722499944735e-05,-6.935725650691893e-06,7.363770419033244e-05
8.536881796317175e-05,-7.526004708324763e-08,-9.645900718169287e-06,9.111280633078422e-06,7.357669528573751e-05
6.554580613737926e-05,-5.497827714862069e-06,-9.308542757935356e-06,1.479725688113831e-05,7.192815974121913e-05
2.11364240385592e-05,-1.0741909136413597e-05,-1.1832563359348569e-05,1.0837817171704955e-05,6.769195169908926e-05
-5.104545925860293e-05,1.8482738596503623e-05,-1.1323055332468357e-05,4.0858230931917205e-06,5.9997866628691554e-05
-0.00013532112643588334,7.562102109659463e-05,-8.503058779751882e-06,1.3589764193966403e-06,4.931307921651751e-05
-0.0001939609064720571,0.00013501846115104854,-6.846144060546067e-06,2.732316715992056e-06,3.902033495251089e-05
-0.00018741805979516357,0.00018796180665958673,-3.883390036207857e-06,2.3256923213921255e-06,3.5004941310035065e-05
-0.00011710794933605939,0.00022095601889304817,2.5681770239316393e-06,-5.550454261538107e-06,4.112346505280584e-05
-2.9626928153447807e-05,0.00020125594164710492,7.3465566856611986e-06,-1.949479519680608e-05,5.133987360750325e-05
3.394112718524411e-05,0.0001326442725257948,2.9369748517638072e-06,-3.3096690458478406e-05,5.8878998970612884e-05
7.20307943993248e-05,6.430727080442011e-05,-5.541170139622409e-06,-3.793464202317409e-05,6.171451968839392e-05
0.00011225023627048358,2.0505956854321994e-05,-6.978121746215038e-06,-3.452621240285225e-05,6.207176193129271e-05
0.00015753720072098076,-1.4096603081270587e-05,-1.2306668395467568e-06,-2.7659374609356746e-05,5.905074795009568e-05
0.0001767753710737452,-3.9432805351680145e-05,2.258223730677855e-06,-1.8953463950310834e-05,5.3818977903574705e-05
0.00013478159962687641,-4.9135378503706306e-05,-2.448939085297752e-06,-8.78185255714925e-06,4.8236845032079145e-05
5.7755787565838546e-05,-4.390280446386896e-05,-1.1006814929714892e-05,-5.2722066357091535e-06,4.958549470757134e-05
1.194391370518133e-05,-2.4957556888693944e-05,-1.3521628716262057e-05,-9.895917173707858e-06,6.625116657232866e-05
8.788463674136437e-06,9.572754606779199e-06,-6.48651393930777e-06,-8.654426437715301e-07,8.817604248179123e-05
1.1388682651158888e-05,5.4268901294562966e-05,1.8480907328921603e-06,4.5383716496871784e-05,0.00010206827573711053
-7.2074481067829765e-06,7.673734216950834e-05,4.160278876952361e-06,9.590236732037738e-05,0.00010079595813294873
-3.097020089626312e-05,8.142616570694372e-05,4.388278739497764e-06,9.825002052821219e-05,9.197578037856147e-05
-2.5477507733739913e-05,9.268146095564589e-05,1.0270908205711748e-05,5.709674587706104e-05,8.565303141949698e-05
1.613565837033093e-05,0.00010168013977818191,1.4675845704914536e-05,-9.224356290360447e-06,8.01587593741715e-05
6.210755236679688e-05,0.00010411928087705746,1.1235591045988258e-05,-0.00010039616608992219,7.869291584938765e-05
9.055313421413302e-05,0.00010096836922457442,1.2799625437764917e-05,-0.00016059527115430683,7.611323962919414e-05
0.00010174473572988063,6.47300184937194e-05,2.1069579815957695e-05,-0.00012867261830251664,6.864709575893357e-05
9.47144435485825e-05,-2.227355435024947e-05,2.668567503860686e-05,-4.994887058273889e-05,6.054003824829124e-05
5.442670590127818e-05,-7.75773951318115e-05,2.6797657483257353e-05,9.06761852093041e-06,5.609198706224561e-05
-3.792254574364051e-05,-3.266467683715746e-05,2.1852752979611978e-05,2.5533834559610114e-05,5.706183583242819e-05
-0.00013082452642265707,5.365885590435937e-05,1.7491562175564468e-05,2.0168907212791964e-05,5.863750629941933e-05
-0.00015247304691001773,7.699981506448239e-05,1.4070774341234937e-05,6.9377183535834774e-06,5.725246592191979e-05
-0.00011592039663810283,1.78113768924959e-05,1.3555245459428988e-05,-1.0144919542653952e-05,5.711726043955423e-05
-8.404006803175434e-05,-5.231268733041361e-05,1.5499603250646032e-05,-2.7792504624812864e-05,6.074801422073506e-05
-8.386392437387258e-05,-6.174822920002043e-05,1.6460644474136643e-05,-4.712619193014689e-05,6.40281941741705e-05
-0.00010482127981958911,-9.108475751418155e-06,1.2595105545187835e-05,-6.14408781984821e-05,5.6721306464169174e-05
-0.00013016992306802422,4.787192301591858e-05,5.461335604195483e-06,-5.8840818383032456e-05,3.6935067328158766e-05
-0.00014330318663269281,6.526873767143115e-05,-1.991557923020082e-07,-3.6700763303088024e-05,2.3696529751759954e-05
-0.0001311769592575729,5.636424612021074e-05,-5.323929144651629e-06,-1.028857604978839e-05,3.005924736498855e-05
-9.916880662785843e-05,6.079365630284883e-05,-9.387948011863045e-06,2.1431729692267254e-05,4.830560283153318e-05
-6.768433377146721e-05,8.583619637647644e-05,-1.078826426237356e-05,5.6711462093517184e-05,6.361179111991078e-05
-4.358889054856263e-05,0.00011632597306743264,-8.804392564343289e-06,5.768213304691017e-05,7.029046537354589e-05
-2.6777406674227677e-05,0.0001073057355824858,-2.1548496533796424e-06,1.0082999324367847e-05,7.2768161771819e-05
-1.1107056707260199e-05,5.927051097387448e-05,8.31699071568437e-06,-3.6507346521830186e-05,8.01376299932599e-05
-3.832441052509239e-06,5.919069371884689e-05,1.8086409909301437e-05,-4.74831867904868e-05,9.278670040657744e-05
-2.3208778657135554e-05,0.00013198186934459955,2.5969091439037584e-05,-2.3819822672521695e-05,9.596995369065553e-05
-6.084027700126171e-05,0.00018430872296448797,2.9278375222929753e-05,5.824851541547105e-06,8.159296703524888e-05
-9.564958600094542e-05,0.0001111233068513684,2.749492159637157e-05,1.872971552074887e-05,6.269606819842011e-05
-0.0001110087032429874,-3.4493721614126116e-05,2.8062733690603636e-05,1.6150044757523574e-05,5.2370924095157534e-05
-9.78034659055993e-05,-0.00015247090777847916,3.139398177154362e-05,8.205573067243677e-06,5.1707895181607455e-05
-6.788709288230166e-05,-0.00021355845092330128,2.9249373255879618e-05,-7.364249086094787e-06,5.2477334975264966e-05
-4.684670057031326e-05,-0.00020066514844074845,2.5047274903045036e-05,-2.8029424356645904e-05,4.84882912132889e-05
-3.860735523630865e-05,-0.00014705018838867545,2.4383476556977257e-05,-4.1616491216700524e-05,4.15807735407725e-05
-2.5472359993727878e-05,-7.490602001780644e-05,2.7518892238731496e-05,-3.4798991691786796e-05,3.838882548734546e-05
-6.836750799266156e-06,1.1141777576995082e-05,3.103795097558759e-05,-8.693460586073343e-06,4.104950130567886e-05
8.808311577013228e-06,0.0001041686482494697,2.915320874308236e-05,1.7927952285390347e-05,4.384720523376018e-05
2.1939924408798106e-05,0.00016189042071346194,2.2918718968867324e-05,2.4256243705167435e-05,4.4296059058979154e-05
2.9778449970763177e-05,0.00015497418644372374,1.8538210497354157e-05,6.170774668134982e-06,4.83799449284561e-05
3.6396431823959574e-05,8.220381278079003e-05,1.862806675489992e-05,-1.7783502698875964e-05,5.9537058405112475e-05
4.5009132008999586e-05,-2.5559058485669084e-05,1.6324149328283966e-05,-3.518233643262647e-05,7.211447518784553e-05
4.992155663785525e-05,-0.00011015794734703377,8.051906661421526e-06,-4.001021443400532e-05,7.940849172882736e-05
4.565255585475825e-05,-0.00013773865066468716,-1.7688178104435792e-06,-3.634372478700243e-05,7.692998769925907e-05
2.5840248781605624e-05,-0.00011038806405849755,-7.824449312465731e-06,-2.6076877475134097e-05,6.539202877320349e-05
-1.6526912077097222e-05,-4.247367905918509e-05,-8.691897164680995e-06,-1.6029034668463282e-05,4.853686550632119e-05
-7.364478369709104e-05,4.749072468257509e-05,-9.917726856656373e-06,-1.1501219887577463e-05,3.464392648311332e-05
-0.00011722437920980155,0.00011487404117360711,-1.223544040840352e-05,-9.451322512177285e-06,2.8856917197117582e-05
-0.00012804652214981616,0.0001255115494132042,-1.137614617618965e-05,-3.1881606901151827e-06,3.125950388493948e-05
-0.00011012649338226765,9.512560791336e-05,-7.1085300987761e-06,1.1557519883353962e-06,4.090756192454137e-05
-8.516732486896217e-05,8.974790398497134e-05,-3.7627378901561315e-07,-5.790125214844011e-06,5.0693502998910844e-05
-7.048213592497632e-05,0.00013944919919595122,4.568006261251867e-06,-1.8511465896153823e-05,5.146882540429942e-05
-6.306710565695539e-05,0.00020098491222597659,5.958055680821417e-06,-2.661391772562638e-05,4.560255183605477e-05
-5.7668949011713266e-05,0.0001834146969486028,3.798096940954565e-06,-3.010777618328575e-05,4.675939635490067e-05
-6.591373676201329e-05,9.68187305261381e-05,-1.3809510619466892e-06,-2.7816286092274822e-05,5.6554497859906405e-05
-7.913737499620765e-05,5.477846207213588e-05,-2.226143351435894e-06,-1.9761193470912986e-05,5.698321547242813e-05
-7.025100785540417e-05,3.8886384572833776e-05,9.362779564980883e-07,-1.1696581168507691e-05,4.836929292650893e-05
-4.5700307964580134e-05,-2.131446308339946e-05,3.4204795156256296e-06,-8.372010597668123e-06,4.498315684031695e-05
-3.2515497878193855e-05,-7.427880336763337e-05,4.778280072059715e-06,-5.267666438157903e-06,4.382563929539174e-05
-3.105891664745286e-05,-8.98420694284141e-05,6.077818852645578e-06,4.612959855876397e-06,4.212110070511699e-05
-2.9149425245122984e-05,-7.7773816883564e-05,3.868534349749098e-06,1.1702622941811569e-05,4.2211780964862555e-05
-2.7996300559607334e-05,-5.224006235948764e-05,-4.5667816266359296e-06,1.3607234905066434e-05,4.5924665755592287e-05
-3.130122786387801e-05,-4.058221747982316e-05,-8.948481081461068e-06,1.4387782357516699e-05,4.5373846660368145e-05
-1.9345949112903327e-05,-3.0574636184610426e-05,-3.369561909494223e-06,1.301579595747171e-05,3.960863978136331e-05
2.7481966753839515e-05,1.3663090612681117e-05,3.646506229415536e-06,1.558794429001864e-05,3.648439087555744e-05
7.68891186453402e-05,5.465998037834652e-05,6.97426003171131e-06,2.0085171854589134e-05,3.805004962487146e-05
8.230894309235737e-05,5.8332778280600905e-05,8.424961379205342e-06,3.703240508912131e-06,4.399318640935235e-05
3.641216972027905e-05,5.435140337795019e-05,1.0651780030457303e-05,-2.4600121832918376e-05,5.181068627280183e-05
-2.6119989342987537e-05,6.634728197241202e-05,1.3041417332715355e-05,-2.548239535826724e-05,6.135269359219819e-05
-6.768013554392383e-05,7.586291030747816e-05,1.1518573955981992e-05,9.160264198726509e-06,6.903238681843504e-05
-7.405534415738657e-05,7.028278196230531e-05,5.320233412930975e-06,4.0325743611902e-05,7.331707456614822e-05
-5.1239268941571936e-05,7.103638927219436e-05,-2.2285037175606703e-06,3.632538209785707e-05,7.816329161869362e-05
-1.43868601298891e-05,6.49152061669156e-05,-9.119311471295077e-06,5.731868100156134e-07,8.098685793811455e-05
1.6979456631815992e-05,1.364658419333864e-05,-1.577550392539706e-05,-5.086127566755749e-05,7.698057015659288e-05
1.790772694221232e-05,-6.0706137446686625e-05,-1.730897929519415e-05,-9.246882837032899e-05,7.12990149622783e-05
-2.6134335712413304e-05,-9.497418068349361e-05,-9.382038115290925e-06,-9.117318404605612e-05,6.776439840905368e-05
-7.420524343615398e-05,-6.670029688393697e-05,3.984666818723781e-06,-5.158963904250413e-05,6.572880374733359e-05
-5.87680478929542e-05,1.8056649423670024e-05,1.4926537915016524e-05,-1.7082984413718805e-05,6.50776200927794e-05
1.4677833860332612e-05,8.802486263448372e-05,2.0471021343837492e-05,-8.53542769618798e-06,6.520086753880605e-05
7.602477126056328e-05,9.46339569054544e-05,2.1926092813373543e-05,-1.1879244993906468e-05,6.78837823215872e-05
8.830816659610718e-05,7.744064350845292e-05,2.2745914975530468e-05,-1.0926677532552276e-05,7.189990719780326e-05
7.080105569912121e-05,7.952607120387256e-05,2.3520236936747096e-05,-5.905258603888797e-06,7.147576980059966e-05
3.78486183763016e-05,5.162115121493116e-05,2.1184545403230004e-05,3.409283181099454e-06,6.315366772469133e-05
-1.5764964700792916e-05,-1.418625470250845e-05,1.6350804799003527e-05,7.940685463836417e-06,5.3196203225525096e-05
-8.022756810532883e-05,1.7941131318366388e-06,9.89172713161679e-06,6.0875731833220925e-06,5.015682472730987e-05
-8.721272752154619e-05,8.361259824596345e-05,2.134776650564163e-06,1.780923980732041e-06,5.0589504098752514e-05
-2.3531851184088737e-05,0.000128295854665339,-2.3759139367030002e-06,-6.8549284151231404e-06,5.2655064791906625e-05
1.4077690138947219e-05,0.0001327038771705702,-9.19330659598927e-07,-1.180560593638802e-05,5.476568912854418e-05
-1.1477207408461254e-05,0.00012892213999293745,4.0188306229538284e-06,-1.214207622979302e-05,5.923337448621169e-05
-5.6941978982649744e-05,0.00010801829193951562,8.435733434453141e-06,-1.420277294528205e-05,6.359172402881086e-05
-8.555299427825958e-05,2.1957426724839024e-05,1.4042476323083974e-05,-1.7477615983807482e-05,6.266845593927428e-05
-0.00010388514783699065,-0.00010072071017930284,1.876191163319163e-05,-1.4176365766616073e-05,6.2592800532002e-05
-0.00011680112220346928,-0.00015828062896616757,1.6078964108601213e-05,-8.022532711038366e-06,6.597122410312295e-05
-0.0001100898880395107,-0.00010608604497974738,8.262022674898617e-06,-4.8460324251209386e-06,7.189369353000075e-05
-8.228938531829044e-05,-8.596797670179512e-06,5.874388762094895e-07,-1.7958794842343195e-06,7.462166104232892e-05
-4.980046287528239e-05,6.284392293309793e-05,-5.033128218201455e-06,7.402507890219567e-06,7.371300307568163e-05
-3.55060474248603e-05,0.00011341890058247373,-9.711378879728727e-06,1.744869769026991e-05,6.774276698706672e-05
-4.09991989727132e-05,0.0001826396182877943,-1.2411499483278021e-05,1.5470835933228955e-05,5.764271190855652e-05
-4.7570989408995956e-05,0.0002682711638044566,-1.1006351087416988e-05,-1.5994282875908539e-06,5.3619110985891894e-05
-3.717715298989788e-05,0.0003142433415632695,-5.019189757149434e-06,-2.0328257960500196e-05,6.322391709545627e-05
-1.7083020793506876e-05,0.0002791921724565327,4.6859025104595275e-08,-1.3485466297424864e-05,7.631714834133163e-05
-7.851693226257339e-06,0.00017222926544491202,-6.908439331709815e-07,2.0893136024824344e-05,7.54443317418918e-05
-1.3690389096154831e-05,3.063030089833774e-05,-5.921341198700247e-06,4.5079596020514145e-05,5.837855132995173e-05
-2.113691152771935e-05,-8.693063136888668e-05,-1.0265195669489913e-05,3.2556676160311326e-05,4.087753040948883e-05
-2.365254840697162e-05,-0.00011802680819528177,-1.0206720617134124e-05,-9.635261449147947e-06,3.441224544076249e-05
-2.628691800055094e-05,-9.703355317469686e-05,-7.80459049565252e-06,-6.417796976165846e-05,3.2072479370981455e-05
-2.147654231521301e-05,-0.0001045166136464104,-3.08920357383613e-06,-0.00010269822087138891,2.6346184313297272e-05
1.1285319487797096e-05,-0.0001438678737031296,1.3544839703172329e-06,-0.0001026786194415763,2.4157527150237e-05
5.3004390792921185e-05,-0.00016438571037724614,2.89805575448554e-06,-6.752135959686711e-05,3.353751890244894e-05
6.43140883767046e-05,-0.0001332205138169229,1.1104762052127626e-06,-1.6667385352775455e-05,4.9531754484632984e-05
4.6684253902640194e-05,-0.00010304088209522888,-9.09522259462392e-06,1.2754052477248479e-05,6.833160296082497e-05
2.9090471798554063e-05,-8.576847903896123e-05,-2.5286466552643105e-05,1.3948028026788961e-05,8.35887185530737e-05
1.3286559806147125e-05,-1.7378170014126226e-05,-3.56794371327851e-05,9.83882728178287e-06,8.824329415801913e-05
-1.7127662431448698e-05,8.417365461355075e-05,-3.699480294017121e-05,4.398576038511237e-06,8.192248060368001e-05
-5.851320383953862e-05,0.000136362315970473,-3.171421121805906e-05,2.348049292777432e-06,7.566164276795462e-05
-0.00010761962766991928,0.00012525217607617378,-1.87918540177634e-05,-4.515460659604287e-06,7.432702841470018e-05
-0.0001425764785381034,9.909835353028029e-05,-2.454529067108524e-06,-1.4021391507412773e-05,7.159145752666518e-05
-0.00014095977530814707,7.24847341189161e-05,1.3487094292941038e-05,-1.640740993025247e-05,6.635081808781251e-05
-0.00011942204582737759,5.736501407227479e-05,2.230505197076127e-05,-1.2607687494892161e-05,6.150866101961583e-05
-9.866349137155339e-05,3.671282684081234e-05,2.223909177700989e-05,-1.0466559615451843e-05,5.7724679209059104e-05
-7.684637967031449e-05,8.81085725268349e-07,2.053393291134853e-05,-1.4623583410866559e-05,5.515381781151518e-05
-4.79616028314922e-05,-2.604234941827599e-05,2.0048584701726213e-05,-1.9841158064082265e-05,5.55274891667068e-05
-1.8076416381518357e-05,-2.4145772840711288e-05,2.1588113668258302e-05,-2.3386433895211667e-05,5.85019588470459e-05
4.288048330636229e-06,-1.0333781574445311e-05,2.3447028070222586e-05,-3.087381992372684e-05,5.522583887795918e-05
2.1745865524280816e-05,-1.7297169279117952e-06,2.083887557091657e-05,-4.38895367551595e-05,4.321360029280186e-05
5.124288145452738e-05,1.016738224279834e-05,9.264681466447655e-06,-4.7125944547588006e-05,3.4853645047405735e-05
0.00010644084250088781,3.3662876376183704e-05,-2.8834474505856633e-06,-2.654803029145114e-05,3.323189957882278e-05
0.0001693116792012006,6.449224019888788e-05,-6.337867034744704e-06,1.7374253729940392e-05,3.4935790608869866e-05
0.00018960067245643586,8.797122427495196e-05,-5.21602214575978e-06,5.7261331676272675e-05,3.762665073736571e-05
0.00014491773617919534,0.00011296875163679942,-5.722995865653502e-06,5.0409198593115434e-05,4.431820343597792e-05
7.482175715267658e-05,0.00015556233120150864,-6.136218416941119e-06,-6.975233191042207e-06,5.9317673731129616e-05
1.7960112018045038e-05,0.00020062775001861155,-6.0001289057254326e-06,-6.167199899209663e-05,8.103517029667273e-05
-2.986617801070679e-05,0.0002093333168886602,-4.142961643083254e-06,-6.709898298140615e-05,9.645408135838807e-05
-7.698038825765252e-05,0.00018935604020953178,-3.35145557528449e-07,-2.867463626898825e-05,9.930799569701776e-05
-0.00010834691784111783,0.00015713409811723977,4.567964879242936e-06,7.696711691096425e-06,9.653434244683012e-05
-0.0001119341904995963,7.91069251135923e-05,9.804053661355283e-06,1.9895405785064213e-05,9.245012188330293e-05
-9.290531306760386e-05,-9.488731302553788e-05,1.001025884761475e-05,3.662898961920291e-06,8.645154593978077e-05
-5.968319237581454e-05,-0.00024032901274040341,6.7393266363069415e-06,-1.5908140994724818e-05,8.157598495017737e-05
-2.2194180928636342e-05,-0.00023240367590915412,6.191709417180391e-06,-1.4757513781660236e-05,7.718525739619508e-05
8.791710570221767e-06,-0.0001320293522439897,9.600914381735492e-06,-1.0668811228242703e-05,7.18715091352351e-05
2.6248995709465817e-05,-7.150776218622923e-05,1.3579990081780124e-05,-1.6126679838635027e-05,6.895699334563687e-05
3.51085836882703e-05,-8.890546450857073e-05,1.5272458767867647e-05,-2.5287839889642783e-05,6.2730279751122e-05
4.0736693335929886e-05,-8.642578177386895e-05,1.2050095392623916e-05,-2.6097848603967577e-05,5.801288352813572e-05
4.0691422327654436e-05,-3.431271034060046e-05,8.849208825267851e-06,-1.7295053112320602e-05,5.3872554417466745e-05
3.013609784829896e-05,2.6918927687802352e-05,1.0538655260461383e-05,-2.7940441782448033e-07,5.0774659030139446e-05
-1.2135652127653884e-07,2.6681524104787968e-05,1.2942776265845168e-05,1.2432332368916832e-05,4.971102316631004e-05
-3.878306961269118e-05,-9.53015660343226e-06,1.1981442185060587e-05,1.1201584129594266e-05,4.54414876003284e-05
-6.459041469497606e-05,-4.285810064175166e-06,9.460104593017604e-06,4.011169949080795e-06,3.6971807276131585e-05
-7.771472883177921e-05,5.851657624589279e-05,8.300095032609534e-06,3.2590726277703652e-06,2.9534667191910557e-05
-8.690926915733144e-05,0.00011512008495628834,8.574967978347559e-06,7.207133421616163e-06,3.235715485061519e-05
-9.748183947522193e-05,0.00011543121217982844,1.2236701877554879e-05,1.0410095455881674e-05,4.368320878711529e-05
-0.00011236905993428081,9.179920743918046e-05,1.695541686785873e-05,1.2660384527407587e-05,5.413641702034511e-05
-0.00012809483450837433,8.9915374701377e-05,1.8423770598019473e-05,1.1796729268098716e-05,5.9974936448270455e-05
-0.00013263348955661058,9.977202716981992e-05,1.571969005453866e-05,7.204242137959227e-06,6.449748616432771e-05
-0.0001169503084383905,7.413837738567963e-05,1.1117092071799561e-05,-3.603526579354366e-07,6.940461753401905e-05
-8.115033415379003e-05,2.2370933947968297e-05,6.197768925630953e-06,-8.594004611950368e-06,7.261178689077497e-05
-2.4983295588754117e-05,-2.8806189220631495e-05,1.0943278994091088e-06,-1.609526589163579e-05,6.841199501650408e-05
4.27043269155547e-05,-6.529191887238994e-05,-3.5696207305591088e-06,-2.2811482267570682e-05,6.06704707024619e-05
9.336860966868699e-05,-3.944501804653555e-05,-6.312306595646078e-06,-2.5585124603821896e-05,5.5863300076453015e-05
9.879386925604194e-05,6.535374996019527e-05,-3.3658782285783673e-06,-2.652644252520986e-05,5.2470168157014996e-05
7.152020407374948e-05,0.00014916966028977185,1.55826711534246e-07,-2.92494660243392e-05,4.5499549742089584e-05
4.0249156882055104e-05,0.00015133529086597264,-1.448101670575852e-06,-3.233846291550435e-05,3.599892443162389e-05
-1.73912376340013e-05,8.035945938900113e-05,-1.881976686490816e-06,-3.180714338668622e-05,2.587477138149552e-05
-0.0001083197130355984,-1.3387594663072377e-05,1.9453459572105203e-06,-1.1207997886231169e-05,1.7688240404822864e-05
-0.00014044600538909435,-7.183639536378905e-05,7.942084266687743e-06,2.9121769330231473e-05,1.885438359749969e-05
-0.00010159752855543047,-6.499640585388988e-05,1.4749493857380003e-05,4.8982594307744876e-05,2.9013004677835852e-05
-5.89929950365331e-05,-2.120998215104919e-05,1.7149959603557363e-05,2.917279562097974e-05,4.2816493078134954e-05
-4.014919977635145e-05,3.958086836064467e-06,1.4507781088468619e-05,-2.8523143100755988e-06,6.164273509057239e-05
-5.311793938744813e-05,-8.40060329210246e-06,1.1280049875495024e-05,-2.1592886696453206e-05,8.033463382162154e-05
-7.365483907051384e-05,-3.8718117139069363e-05,1.2744590094371233e-05,-2.262615271320101e-05,9.641719225328416e-05
-0.00010365193884354085,-7.963778625708073e-05,2.2083366275182925e-05,-2.1704323444282636e-05,0.00010746534098871052
-0.00013426621444523335,-0.00011570490460144356,2.797542038024403e-05,-2.4770593881839886e-05,0.00010649798787198961
-0.00015315588098019361,-8.420689118793234e-05,2.448757913953159e-05,-2.238802881038282e-05,9.20832681003958e-05
-0.00014618148270528764,2.3214059183374047e-05,1.9430401152931154e-05,-7.997795364644844e-06,7.558388460893184e-05
-0.00011295990407234058,0.00012490546214394271,1.8575237845652737e-05,9.253092230210314e-07,6.914261030033231e-05
-6.900914013385773e-05,0.0001576020586071536,2.133453199348878e-05,-1.0435885087645147e-05,7.233631913550198e-05
-3.0224391593947075e-05,0.00012915411207359284,2.1572464902419597e-05,-2.7491943910717964e-05,7.725662726443261e-05
-8.47663341119187e-06,9.92873465293087e-05,1.7860180378193036e-05,-3.026999365829397e-05,7.3702321969904e-05
-7.454472779500065e-06,0.0001265100436285138,1.1917542906303424e-05,-1.4303982425190043e-05,5.921154661336914e-05
-2.3962191335158423e-05,0.00019004743080586195,7.860252480895724e-06,6.552016657224158e-06,4.1779221646720544e-05
-3.975274012191221e-05,0.0002202174364356324,9.625440725358203e-06,2.224680247309152e-05,3.177607504767366e-05
-4.434527363628149e-05,0.00018520464072935283,1.4190055480867159e-05,3.3790667657740414e-05,3.148221367155202e-05
-4.095723124919459e-05,0.0001227504835696891,1.3352181667869445e-05,4.023838846478611e-05,3.513984120218083e-05
-4.728029671241529e-05,6.618969200644642e-05,7.5049551924166735e-06,2.995629438373726e-05,3.686982745421119e-05
-6.722044781781733e-05,5.4347520972442e-07,4.662887477024924e-06,6.158692485769279e-06,3.7736870581284165e-05
-8.346590038854629e-05,-9.099776070797816e-05,3.900904175679898e-06,-2.5054008801816963e-05,4.099143552593887e-05
-6.615571328438818e-05,-0.0001517861383035779,3.0123317174002295e-06,-5.538688492379151e-05,5.3794334235135466e-05
-3.006494080182165e-05,-0.00013661710545420647,-2.553701961005572e-07,-7.26160142221488e-05,7.5361123890616e-05
-6.004100214340724e-06,-8.375737525057048e-05,-4.97971859658719e-06,-6.923756882315502e-05,8.804741082713008e-05
3.908038252120605e-06,-5.382601739256643e-05,-1.6638870192764443e-06,-5.256351869320497e-05,8.07035539764911e-05
-1.0999371625075582e-05,-4.695121242548339e-05,4.443691068445332e-06,-2.1614281649817713e-05,6.767181912437081e-05
-5.8805857406696305e-05,-3.7510832044063136e-05,2.9735670068475883e-06,3.18898273690138e-05,5.9433808928588405e-05
-8.506637095706537e-05,-1.7737123926053755e-05,-3.9313022170972545e-06,7.947919948492199e-05,5.5794615036575124e-05
-5.9166191931581125e-05,5.556328233069507e-06,-7.9940791692934e-06,9.091279935091734e-05,5.0450387789169326e-05
-9.962446711142547e-06,1.8440206986269914e-05,-8.840749615046661e-06,6.360601400956511e-05,4.5310189307201654e-05
3.022592318302486e-05,4.336371421231888e-05,-9.16232693271013e-06,-9.271392627852038e-06,4.8004189011408016e-05
5.286663872539066e-05,9.720351226860657e-05,-8.750566848902963e-06,-9.593657159712166e-05,5.274778959574178e-05
6.84488404658623e-05,0.0001502590166637674,-5.59793306820211e-06,-0.00011087833263445646,5.199091538088396e-05
9.334365313407034e-05,0.0001814470160752535,1.4797207086303388e-06,-6.004006354487501e-05,4.721618824987672e-05
0.00013070252316538244,0.00020455638878047466,7.886781531851739e-06,-1.0207591913058423e-05,4.624761641025543e-05
0.00015187762619461864,0.00023232011881191283,8.376141522603575e-06,6.635320914938347e-06,4.9426140321884304e-05
0.00012791315384674817,0.0002614118275232613,4.807427558262134e-06,7.182220542745199e-06,5.072182466392405e-05
7.451051351381466e-05,0.00028554254095070064,5.899648840568261e-06,2.092991053359583e-05,4.709386848844588e-05
1.4084929716773331e-05,0.00028609673609025776,9.605751074559521e-06,3.8658734411001205e-05,4.221278868499212e-05
-5.5962947953958064e-05,0.00023783445067238063,1.2072241588612087e-05,4.4464090024121106e-05,3.994984945165925e-05
-0.0001185501751024276,0.00011895267380168661,1.2635677194339223e-05,3.1958836189005524e-05,4.1734048863872886e-05
-0.00014852930326014757,-7.671210187254474e-05,1.3918196600570809e-05,-1.099444580177078e-05,4.920507126371376e-05
-0.00014155736425891519,-0.0002666703949216753,1.4298909263743553e-05,-8.589377830503508e-05,6.450746150221676e-05
-0.0001091121812351048,-0.0003409576020203531,1.0861184819077607e-05,-0.00013513141311705112,8.51210716064088e-05
-6.402569852070883e-05,-0.0003220945072825998,6.3933111960068345e-06,-0.00010668667528079823,0.00010388295777374879
-2.2912410713615827e-05,-0.0003105860960204154,3.6002809338242514e-06,-3.6802710383199155e-05,0.00011205238843103871
1.52362690641894e-05,-0.0002838337095454335,8.299695650748617e-07,1.0809078958118334e-05,0.00010526616097195074
5.824532127007842e-05,-0.000172457643202506,-3.4562553992145695e-06,2.317009239050094e-05,9.274770854972303e-05
0.00010408786329207942,-3.217383709852584e-05,-5.501025043486152e-06,2.2638760128756985e-05,8.390278526348993e-05
0.0001310138904955238,4.496941255638376e-05,-2.075785914712469e-06,2.0832925656577572e-05,7.567018474219367e-05
0.00012430080096237361,6.65512343402952e-05,-8.728040370442613e-07,-6.4232226577587426e-06,6.748546729795635e-05
0.00010136543278349563,0.00011100739357061684,-3.9347064557659905e-06,-5.968563709757291e-05,5.68618779652752e-05
9.081650205189362e-05,0.00018957079737447202,-3.2419316084997263e-06,-9.888857312034816e-05,4.298759449739009e-05
8.004612755030394e-05,0.0002366173721384257,-3.5080532256870356e-07,-0.00010995805496349931,2.532803591748234e-05
5.837882054038346e-05,0.0002338931371923536,3.91451476389193e-06,-0.00010302440205123276,1.077563501894474e-05
4.83419862575829e-05,0.00018975240527652204,8.078356586338487e-06,-6.740924436599016e-05,1.3801941349811386e-05
4.321561937103979e-05,0.00011784302478190511,6.640437732130522e-06,1.6239206388490857e-06,2.71810895355884e-05
1.9821814930764958e-05,2.8810278308810666e-05,6.761144391020935e-07,7.022800127742812e-05,3.632745938375592e-05
-2.2205391360330395e-05,-6.468406354542822e-05,-6.33597210253356e-06,7.982343959156424e-05,4.152206383878365e-05
-6.220932118594646e-05,-0.00011374604946468025,-1.394800165144261e-05,1.79594771907432e-05,6.170220149215311e-05
-9.747768490342423e-05,-0.00010719038255047053,-1.719138163025491e-05,-4.6822064177831635e-05,9.755004430189729e-05
-0.00014380727952811867,-6.663271051365882e-05,-1.317477654083632e-05,-6.374424265231937e-05,0.0001242642756551504
-0.00020048073201905936,-1.9054701624554582e-05,-5.7243628361902665e-06,-5.191293894313276e-05,0.00012621376663446426
-0.00023255472478922457,2.9283151889103465e-05,2.101154223055346e-06,-4.1827730456134304e-05,0.00010606924479361624
-0.00021594503778032959,6.353185017360374e-05,9.664005119702779e-06,-2.996733383042738e-05,7.908161933301017e-05
-0.00016773177776485682,5.94168268435169e-05,1.4681728316645604e-05,-1.4819148418609984e-05,6.036519698682241e-05
-0.00011185422772541642,2.869777563319076e-05,1.8320133676752448e-05,-6.598550044145668e-06,4.891027128905989e-05
-5.7951441704062745e-05,1.8770564565784298e-05,2.0795629097847268e-05,-1.2484049875638448e-05,3.627168189268559e-05
-6.701900019834284e-06,4.3338441173546016e-05,1.9988005078630522e-05,-2.4435856175841764e-05,2.732883694989141e-05
3.4628530556801707e-05,6.567152013303712e-05,1.3753139683103655e-05,-2.1326895875972696e-05,2.6724956114776433e-05
5.036493166699074e-05,6.626912363572046e-05,3.0707074074598495e-06,6.670357834082097e-06,3.183902663295157e-05
2.8469274184317328e-05,4.276395702618174e-05,-5.711648100259481e-06,3.759365063160658e-05,3.810600901488215e-05
-1.2690020412264857e-05,-1.560371856612619e-06,-5.990473709971411e-06,3.7931560655124485e-05,4.5851127651985735e-05
-3.478434882708825e-05,-4.32752312917728e-05,2.5856098773147096e-07,1.1291963346593548e-05,5.9236543165752664e-05
-2.9537224691011943e-05,-5.4927990277064964e-05,8.567641998524778e-06,-4.589977379509946e-06,7.768754585413262e-05
-3.115433355560526e-05,-4.548530341708101e-05,1.3610573660116643e-05,7.865116458560806e-06,9.095702989725396e-05
-3.889705112669617e-05,-3.2367541280109435e-05,1.4377799743670039e-05,4.205312143312767e-05,9.37963486649096e-05
-1.999331834667828e-05,2.358831807214301e-05,1.5711078958702274e-05,0.0001041900904965587,9.125861834036186e-05
-2.500881237210706e-06,0.00018280374933965504,1.8957516658701934e-05,0.00016942706133704633,8.261808397946879e-05
-2.321841020602733e-05,0.0004013580910395831,2.5071574782487005e-05,0.00017183927411679178,6.662055966444314e-05
-5.338172195479274e-05,0.0005181875894777477,2.9764074497506954e-05,0.00012028258061036468,5.25157738593407e-05
-4.283094676793553e-05,0.0004536583146546036,3.148123869323172e-05,6.084460619604215e-05,4.2376901546958834e-05
8.726303349249065e-06,0.0002634452248457819,2.8972701329621486e-05,-2.025063440669328e-05,3.7368554330896586e-05
6.57098789815791e-05,7.421540067298338e-05,2.7174275601282716e-05,-0.00011191360681550577,4.144712147535756e-05
0.00010486494284123182,-1.8347844161326066e-05,3.3438715036027133e-05,-0.00012861922732554376,5.385702388593927e-05
0.00011808703129645437,-7.90768681326881e-05,4.222408460918814e-05,-6.95278140483424e-05,6.71792367938906e-05
9.650739229982719e-05,-0.0001646794844418764,4.329623334342614e-05,-1.999524283746723e-05,6.629108247580007e-05
2.1908925191382878e-05,-0.0002739157644100487,3.477923382888548e-05,1.8153596670344996e-07,5.3508141718339175e-05
-5.832300303154625e-05,-0.0003437930135987699,2.377121381869074e-05,1.6266410966636613e-05,3.714836202561855e-05
-7.587795698782429e-05,-0.00034437153954058886,1.4127362192084547e-05,2.0291754481149837e-05,3.0370902095455676e-05
-5.108650657348335e-05,-0.0003076416323892772,5.850224169989815e-06,-1.384352071909234e-05,3.547839150996879e-05
-3.28388086927589e-05,-0.0002563610323704779,2.8602826773749257e-07,-5.6536231568316e-05,4.534672189038247e-05
-4.236211680108681e-05,-0.00019247332238592207,-4.4161856749269646e-06,-7.189581083366647e-05,5.531482383958064e-05
-6.017187479301356e-05,-9.158005559584126e-05,-9.002365914057009e-06,-5.624521872960031e-05,6.216979818418622e-05
-7.172088226070628e-05,4.880293636233546e-05,-1.0742238373495638e-05,-3.8416408642660826e-05,6.907374336151406e-05
-9.909179789246991e-05,0.00016710488125681877,-8.176361006917432e-06,-3.709536395035684e-05,7.773367542540655e-05
-0.00016480908379890025,0.00020520141697488725,-5.767906259279698e-06,-4.61895288026426e-05,7.906848622951657e-05
-0.00023357500322163105,0.0001954667386598885,-6.785899131500628e-06,-5.561314173974097e-05,5.970577694824897e-05
-0.0002564720343798399,0.00017652445239946246,-6.6160591813968495e-06,-6.182204379001632e-05,2.8469437893363647e-05
-0.0002311015414306894,0.00016562285600230098,-5.197791324462742e-06,-6.145861698314548e-05,4.339579390943982e-06
-0.00018515822011977434,0.00018499216821510345,-3.2530240332562244e-06,-4.527969940681942e-05,-6.673322332062526e-06
-0.00014341399946715683,0.000232529200729914,1.1351590956110158e-06,-1.355320250695513e-06,-9.866696018434595e-06
-0.00011195446859346703,0.00024849918554537,9.315551324107219e-06,5.2711275202455e-05,-2.95839095088013e-06
-8.308058750117198e-05,0.00020516151562333107,1.3067159670754336e-05,5.1446008001221344e-05,1.3613981536764186e-05
-4.412492489791475e-05,0.00012237860937602818,8.662686923344154e-06,-4.1757148210308515e-06,3.3947453630389646e-05
-6.747647603333462e-06,4.843764327233657e-05,9.691631248642807e-07,-4.352647374616936e-05,5.569921268033795e-05
2.4668313926667906e-05,-3.75792728846136e-06,-7.985275260580238e-06,-1.7405902326572686e-05,8.498746319673955e-05
4.702156365965493e-05,-4.337593782111071e-05,-1.2629742741410155e-05,5.7937293604481965e-05,0.00011811837612185627
7.111283048288897e-05,-3.4872005926445127e-05,-1.249614251719322e-05,0.00011894592898897827,0.00013302995648700744
0.0001070626312866807,3.852201643894659e-06,-6.981222213653382e-06,0.0001231384667335078,0.00012257418711669743
0.00012616851017810404,-3.84385057259351e-05,-1.8845983049686765e-06,5.301454439177178e-05,9.835336823016405e-05
0.00011040692334063351,-0.00012025949399685487,-4.713728685601382e-06,-7.73504507378675e-05,7.171640754677355e-05
8.043604611884803e-05,-8.684865315444767e-05,-1.1251077921770047e-05,-0.00018721634114626795,5.024159327149391e-05
7.387563528027385e-05,2.4078985006781295e-05,-1.2768534361384809e-05,-0.00019232106569688767,3.72411850548815e-05
8.644451008876786e-05,7.158835796872154e-05,-1.0866753655136563e-05,-0.00011385040124878287,2.9473958420567214e-05
0.00010488533735042438,3.265307896072045e-05,-1.0102860869665165e-05,-3.609397754189558e-05,2.6738982342067175e-05
0.00013828478404320776,-2.8874052077298984e-05,-9.486194358032662e-06,3.3282265121670207e-06,2.782920637400821e-05
0.00018428944167681038,-7.278318662429228e-05,-6.3676770878373645e-06,3.8259745451796334e-06,2.939256955869496e-05
0.00021520939480978996,-9.136978769674897e-05,-3.9334523194156645e-07,-7.320440545299789e-06,3.595001908252016e-05
0.0002004531997954473,-8.830890146782622e-05,6.072538326407084e-06,-8.3863624240621e-06,5.368298661778681e-05
0.0001394296414218843,-9.399408736499026e-05,1.1346537576173432e-05,-3.7490578961296706e-06,7.256375829456374e-05
5.604718535323627e-05,-0.00012469745706766844,1.1991627616225742e-05,-6.677206783933798e-06,7.876510062487796e-05
-1.6974903701338917e-05,-0.00013608760491479188,9.84726648312062e-06,-1.070079451892525e-05,7.049542909953743e-05
-6.686264532618225e-05,-8.397383498959243e-05,9.827642315940466e-06,-7.210380772448843e-06,5.5203574447659776e-05
-9.453068923903629e-05,3.7258625980030047e-06,1.4551879758073483e-05,-2.6685092961997725e-06,4.863843787461519e-05
-0.00010250434570480138,7.156602805480361e-05,1.8794980860548094e-05,-2.3011048142507207e-06,6.030216536601074e-05
-0.00010030348494183272,0.00010535151523072273,1.8459179045748897e-05,-4.470183739613276e-06,8.374224125873297e-05
-0.0001004407022264786,0.00011610452202148736,1.4726398148923181e-05,-7.82997904025251e-06,0.00010590061719994992
-0.00010384702909504995,0.00011778085900004953,1.5035268006613478e-05,-1.5315743439714424e-05,0.00011589738278416917
-0.00010624198330333456,0.0001188951064250432,1.9551289369701408e-05,-3.0408769816858694e-05,0.00010766227205749601
-0.00010459434270160273,0.00011092615750385448,1.8796243239194155e-05,-4.135738709010184e-05,8.933864592108876e-05
-9.821702406043187e-05,7.681794522795826e-05,4.380904556455789e-06,-2.1593070414382964e-05,7.442814239766449e-05
-8.72685486683622e-05,4.699537385022268e-05,-1.1861699022119865e-05,8.215556590585038e-06,6.619047053391114e-05
-7.105731492629275e-05,3.966681833844632e-05,-1.4052721780899446e-05,1.7080679754144512e-05,6.05773129791487e-05
-6.153690628707409e-05,2.4365919671254233e-05,-8.537286703358404e-06,1.4584669770556502e-05,6.023203968652524e-05
-6.746532744728029e-05,1.2983397937205154e-05,-5.392760613176506e-06,8.822005838737823e-06,6.330612814053893e-05
-8.425019768765196e-05,2.58377749560168e-05,-6.284250048338436e-06,-6.850404588476522e-06,6.439997378038242e-05
-9.786088048713282e-05,4.116745913052e-05,-5.376447006710805e-06,-1.9772780433413573e-05,6.716311327181756e-05
-9.540854807710275e-05,4.133209222345613e-05,-2.3067581622626676e-08,-2.0254039554856718e-05,6.605612725252286e-05
-7.136997010093182e-05,3.8395981391659006e-05,4.448381787369726e-06,-1.4762270438950509e-05,5.879117816220969e-05
-2.8000924430671148e-05,6.197368929861113e-05,5.73034594708588e-06,-8.076621270447504e-06,5.149915159563534e-05
1.1491712029965129e-05,9.096106077777222e-05,8.791323125478812e-06,-1.4620994761571637e-06,4.9644459068076685e-05
2.4608427338534966e-05,9.868152847047895e-05,1.0850615581148304e-05,5.716321538784541e-06,5.014623093302362e-05
-9.983958761949907e-07,9.525114728603512e-05,1.1252877811784856e-05,1.719708052405622e-05,4.864070797339082e-05
-4.568507574731484e-05,9.981962648453191e-05,1.3789504009764642e-05,3.0326609703479335e-05,4.839373650611378e-05
-8.57159830047749e-05,9.512917313259095e-05,1.875127236417029e-05,3.4832235542126e-05,5.106268508825451e-05
-0.00011074286885559559,6.62377497064881e-05,1.9636807337519713e-05,2.2342805095831864e-05,5.430950113805011e-05
-0.00010385827044956386,2.7002011847798713e-05,1.6297784895868972e-05,-7.1407998802897055e-06,5.437549771158956e-05
-6.575643055839464e-05,-1.0256456334900577e-05,1.4785562598262914e-05,-4.301520311855711e-05,5.2863902965327725e-05
-2.823631621140521e-05,-4.655363591155037e-05,1.6031242921599187e-05,-6.275841587921605e-05,4.9393176595913246e-05
-2.612840944493655e-05,-6.857889820821583e-05,1.737618185870815e-05,-4.835955405724235e-05,4.0705446735955775e-05
-5.28709169884678e-05,-3.698303771670908e-05,1.7846739865490235e-05,-1.746914131217636e-05,3.183175067533739e-05
-8.606806659372523e-05,4.205904042464681e-05,1.538922151667066e-05,-2.8265692435525125e-06,3.0132234314805828e-05
-0.00010731586371548474,0.0001046696343109943,9.362939636048395e-06,-4.318893388699507e-06,3.408035627217032e-05
-9.983385825762525e-05,0.00011151597573189065,3.6065589483769145e-06,-8.0033642007038e-06,4.097033161087893e-05
-5.171637894818559e-05,7.655981607967988e-05,-1.7520131905257585e-06,-1.812851769500412e-05,5.2071958634769544e-05
2.017074621107895e-05,-3.4195284115412505e-06,-7.777813948450785e-07,-3.194039163645357e-05,6.996563752181828e-05
5.660505121340975e-05,-7.836936856620014e-05,3.953106443077559e-06,-3.355125954840332e-05,8.70966468937695e-05
2.4960050723166205e-05,-5.0456470489734784e-05,2.112487663907814e-06,-2.4320173906744458e-05,8.854429324856028e-05
-6.132559519755887e-06,4.8279925977112725e-05,-3.0650346616312163e-06,-1.2811789019906428e-05,7.715967512922361e-05
5.799593054689467e-06,0.00013065425446256995,-2.165843397960998e-06,2.935448037533206e-06,6.504650082206354e-05
2.2349306163960136e-05,0.00016071338905021548,4.259358775016153e-06,2.133993802999612e-05,5.669923484674655e-05
-1.3535249081542133e-06,0.0001322088501183316,9.708242941997014e-06,3.632880179793574e-05,5.155312464921735e-05
-6.459292490035295e-05,9.304997365688905e-05,1.1365998034307268e-05,4.011012060800567e-05,4.83204385091085e-05
-0.00012128853268222883,5.423830225481652e-05,9.636430149839725e-06,3.375763844815083e-05,5.315843736752868e-05
-0.00015409456682391465,-1.004693785944255e-05,9.386842975800391e-06,1.932350824063178e-05,6.663186650257558e-05
-0.00016070849960669875,-6.863014277769253e-05,1.0803004443005193e-05,-4.365884251456009e-06,8.109160989988595e-05
-0.0001322235621046275,-8.131636423058808e-05,1.1652952707663644e-05,-1.6528038031538017e-05,8.882771362550557e-05
-8.060519030550495e-05,-9.674680040916428e-05,9.969061466108542e-06,-5.233884166955249e-06,7.994688348844647e-05
-4.003268986707553e-05,-0.00014890304009895772,6.2306394283950794e-06,9.905308615998365e-06,5.2008774218847975e-05
-1.7924825442605652e-05,-0.0001882202923297882,2.956184744107304e-06,1.8261989680468105e-05,2.2885973521624692e-05
-9.850675269262865e-06,-0.00016074559243861586,-7.324618309212383e-06,2.309253250132315e-05,9.132376362686045e-06
-8.793088454694953e-06,-7.869429828133434e-05,-2.062149542325642e-05,2.5340801585116424e-05,1.163423712569056e-05
7.212373020593077e-06,1.0812327673193067e-05,-2.3954042262630537e-05,3.191467112628743e-05,2.5376444682478905e-05
4.738382631330751e-05,5.571259680436924e-05,-1.632377279747743e-05,3.875195761793293e-05,4.21885124524124e-05
9.934706758940592e-05,5.69068688491825e-05,-8.819306458462961e-06,1.825057915993966e-05,5.9580401284620166e-05
0.00013631196634378284,6.965157081140205e-05,-6.80028460919857e-06,-3.074163760174997e-05,7.876600284362212e-05
0.00013266471796669066,0.00011017952056135982,-4.282199370209128e-06,-7.547559653175995e-05,9.462649904889986e-05
8.896450162865222e-05,0.0001330514351138845,3.207311237929389e-06,-0.00010269747144775465,9.813726501306519e-05
3.846997060463764e-05,0.00010220349940937012,1.2921295819978695e-05,-0.00011962901771767065,8.735037408769131e-05
4.71397424917086e-06,4.795208587893285e-05,1.8249422282679006e-05,-0.00010877338354475796,6.782672426197678e-05
-1.848100873758085e-05,1.3850370123691391e-05,1.6894680811674334e-05,-5.457499355543405e-05,4.9469981604488567e-05
-3.749633106053807e-05,2.3276406864169985e-05,1.3938339179730974e-05,4.969185738445958e-06,3.807389657595195e-05
-5.049635728937574e-05,6.564083741977811e-05,1.1123972399218474e-05,2.2322385120787658e-05,3.316379297757521e-05
-5.570397843257524e-05,9.789502655621618e-05,6.276005478866864e-06,1.5296031051548198e-05,3.313866909593344e-05
-6.0334044974297285e-05,7.915593596408144e-05,4.478395396745327e-07,1.3928275620855857e-05,3.4863602195400745e-05
-7.390238170046359e-05,2.0344954464235343e-05,1.493504328209383e-06,-6.969971764192451e-06,3.808115070569329e-05
-0.00010990584269165993,-9.835396667767782e-06,5.655107543134363e-06,-4.490651917876676e-05,4.966754568158649e-05
-0.00016174197662621737,4.817020089831203e-05,2.654138597790734e-06,-5.190035153646022e-05,6.684087566100061e-05
-0.000201796370674856,0.00012875726679340005,8.595104645792162e-07,-3.484294575173408e-05,7.116971391951665e-05
-0.0002103035367326811,0.00016990042058750987,2.434792804706376e-06,-7.678412657696754e-06,5.986008909530938e-05
-0.00018981730681844056,0.00018373430066276342,3.2455241125717293e-06,4.087801426067017e-05,5.3815212595509365e-05
-0.00017180945724248886,0.0001946606789715588,7.42098052342044e-07,8.005021663848311e-05,5.5007694754749537e-05
-0.0001380255416734144,0.0001978914806386456,-3.218336587451631e-06,9.05812848941423e-05,5.221119863563217e-05
-6.828438927186653e-05,0.00015598858590237796,-7.4546487667248584e-06,7.56273657316342e-05,4.8105339374160394e-05
1.4192566595738754e-05,4.484038072405383e-05,-1.303416138398461e-05,1.5550032912869938e-05,5.0635637308005244e-05
8.946313755586743e-05,-7.733560778433457e-05,-1.984089976758696e-05,-7.177284714998677e-05,6.077580837882124e-05
0.00014834078319836408,-0.00012299109948799014,-2.181723539251834e-05,-0.0001197289748233743,7.085800461936742e-05
0.00018494020332582295,-8.909279858926311e-05,-1.6973999663605355e-05,-0.00012102964683435857,6.741350807715207e-05
0.0001930037105921656,-1.766929381119553e-05,-1.1162025657540653e-05,-0.00011149370402563363,4.839339089812711e-05
0.00016161715029738843,3.312038097647019e-05,-9.338968993688468e-06,-0.00010172685870202258,3.270149682066403e-05
9.288777073379606e-05,3.597173417801969e-05,-9.906156265060417e-06,-7.19592280802317e-05,3.0617720767622814e-05
1.4381982509803493e-05,2.9658117455255706e-06,-9.894166396406945e-06,-1.174473982246127e-05,3.3210675610462204e-05
-5.06274081999436e-05,-3.393515362404287e-05,-7.3441497079329565e-06,3.905023913830519e-05,3.2785017538117245e-05
-8.803256059763953e-05,-3.2283642212860286e-05,-4.228145087381563e-07,3.44889413099736e-05,3.607213875511661e-05
-0.0001027598264045082,3.0864608561387286e-05,5.402798251452623e-06,-1.082853941625217e-05,5.1150695071555674e-05
-0.00011127922334708273,0.00010937225306406617,6.2753383645031136e-06,-4.5012762711849064e-05,7.194487261585891e-05
-0.00012066624185536057,0.0001355089043499902,4.3593827285803854e-06,-4.3917210859945044e-05,8.288142998935655e-05
-0.00012307016004342586,9.879183926386759e-05,7.982263014127966e-06,-9.02194187801797e-06,7.516266487073153e-05
-0.00012166974920546636,4.0452414395986125e-05,1.905228964460548e-05,4.922065636492334e-05,5.1778970373561606e-05
-0.00011109253682661802,-4.889840511168586e-06,3.0754988983972e-05,0.00010918847692664713,3.563010614016093e-05
-7.880479097366333e-05,-3.379019472049549e-05,3.553524584276602e-05,0.0001467759720981121,4.287197589292191e-05
-3.632922380347736e-05,-5.458330633700825e-05,2.74803169304505e-05,0.0001537474017823115,5.684780262527056e-05
-1.5677085229981458e-06,-7.073730375850573e-05,1.3223725545685738e-05,0.0001244330924237147,6.006438343320042e-05
4.449455445865169e-05,-5.435870843939483e-05,8.28773499961244e-06,5.401451198849827e-05,6.0353493609e-05
0.00010441272024763748,-2.2698974134982564e-05,6.823340299888514e-06,-2.262165435240604e-05,7.382306648651138e-05
0.00014400180953089148,-3.989262040704489e-06,7.572725735371932e-07,-0.00010663650027709082,8.882387919584289e-05
0.0001244007289642468,5.885581413167529e-05,-4.853423433814896e-06,-0.0001664337469264865,9.869773930404335e-05
4.399843965074979e-05,0.00015549732779618353,-8.28781230666209e-06,-0.00014610028301831335,0.00011553982039913535
-3.764529901673086e-05,0.00019030498515348881,-1.1799185813288204e-05,-9.989710815716535e-05,0.00012776348739862442
-7.877673488110304e-05,0.00015475929831154644,-1.356419761577854e-05,-6.732449401170015e-05,0.00012050500663463026
-6.96212227921933e-05,0.00013223453424870968,-1.0729944733611774e-05,-5.3493517043534666e-05,0.00010155889322049916
-2.8493670470197685e-05,0.0001647370809223503,-4.014932073914679e-06,-3.4717631933745e-05,8.939839608501643e-05
3.1430579838342965e-05,0.00021811603801324964,2.625809884193586e-06,2.4215482881118078e-06,8.79631916177459e-05
9.358279930893332e-05,0.0002264129143441096,5.438470907392912e-06,4.006244125775993e-05,8.648594666738063e-05
0.00013480678899213672,0.00016683149442542344,4.842476755584357e-06,4.916689795209095e-05,7.713752711424604e-05
0.00014101772103458643,7.394627027679235e-05,3.5329519505467033e-06,2.7032301659346558e-05,6.419570127036422e-05
0.00011573660594876856,-2.1236974134808406e-05,1.2495730743466993e-06,-1.8779277525027283e-05,5.65363880014047e-05
7.161644316511229e-05,-8.736195741221309e-05,-1.276309490094718e-06,-7.144513801904395e-05,5.4813306633150205e-05
-2.2380161226465134e-06,-0.00011136684770463035,4.976779450771573e-07,-8.787901606410742e-05,5.525075539480895e-05
-0.0001017077302094549,-0.0001280752767343074,6.328691597445868e-06,-5.287979729473591e-05,5.77498140046373e-05
-0.00017582792497705668,-0.0001786141365300864,1.1388688108127099e-05,-5.861067620571703e-06,6.191075954120606e-05
-0.00017676233255770057,-0.00019533251179382205,1.1403294593037572e-05,1.2331151083344594e-05,6.893824320286512e-05
-0.00012513210822362453,-0.00011085611913586035,9.331138244306203e-06,7.325292244786397e-06,7.248830661410466e-05
-7.441626803483814e-05,-9.803171678868239e-07,1.2078116014890838e-05,-5.9672615861927625e-06,6.339680112432688e-05
-4.43051612819545e-05,2.8077440219931304e-05,1.9723631339729764e-05,-1.9858753148582764e-05,5.226641951594502e-05
-3.799552359851077e-05,-2.4532464522053488e-05,2.4097258574329317e-05,-3.2692536478862166e-05,5.3038227633805946e-05
-7.216628000605851e-05,-8.965384040493518e-05,2.2081359929870814e-05,-3.251645102864131e-05,6.84019032632932e-05
-0.00011448164150351658,-0.00013586212298832834,1.681630419625435e-05,-2.2779518985771574e-05,8.471367618767545e-05
-0.00010372624092269689,-0.00015274921315722167,1.0639332685968839e-05,-3.7235888612485724e-06,8.703544153831899e-05
-3.824942541541532e-05,-0.00013499424676410854,6.466182639996987e-06,1.47380014823284e-05,7.781833846820518e-05
1.2005737517029047e-05,-7.080752402544022e-05,8.311104465974495e-06,1.670390338404104e-05,6.516645225929096e-05
5.18125170856365e-06,2.0592595319612883e-05,1.1018621080438606e-05,9.688923455541953e-06,5.575689283432439e-05
-1.6408888768637553e-05,7.597623334731907e-05,9.980312825064175e-06,1.5803721908014268e-05,4.787910438608378e-05
-3.20460071634443e-06,8.438099030172452e-05,1.1156069376738742e-05,2.1810548787470907e-05,4.386488217278384e-05
2.8210426535224542e-05,7.153218757594004e-05,1.496530239819549e-05,1.951295962498989e-05,4.970361987943761e-05
1.2794776921509765e-05,6.374900840455666e-05,1.5877230907790363e-05,1.0243003089271951e-05,5.590335058514029e-05
-7.227125752251595e-05,6.208803097251803e-05,1.5245776012307033e-05,-3.867989562422736e-06,5.554969538934529e-05
-0.00018505105981603265,6.51742157060653e-05,1.7051072063622996e-05,-1.3685103112948127e-05,5.0880898925242946e-05
-0.0002538101398386061,7.874418224673718e-05,2.0888972358079627e-05,-1.400080418534344e-05,4.811668986803852e-05
-0.0002498178801033646,7.707756594754755e-05,2.52500412898371e-05,-1.2707388123089913e-05,4.0000613807933405e-05
-0.0001993595651583746,6.08349364483729e-05,2.6920211894321255e-05,-2.5487101083854213e-05,2.1892514268984087e-05
-0.00011880447709700093,6.142483471194282e-05,2.813358514686115e-05,-2.7986425266135484e-05,6.102410679886816e-06
-2.1400397599791177e-05,7.828944217180833e-05,3.031108462892007e-05,2.453752313158475e-05,3.7475595604519185e-07
5.2211209549568594e-05,8.649473602417856e-05,2.5698247554828413e-05,0.00010697705147322267,-1.8437272331084387e-07
6.716561620123684e-05,9.779614629223943e-05,1.2746941138175316e-05,0.00013102621596772224,2.592913119769946e-07
5.1699877076316625e-05,0.00013456959277391434,-3.3472476843598997e-06,6.320743705146015e-05,5.154773134563584e-06
6.656972982455045e-05,0.00015768040611874312,-1.5426330719492398e-05,-5.594382309936918e-05,2.3085985958459787e-05
0.00011712999548763037,0.0001177872036350891,-1.8710026779444888e-05,-0.00015313764743041247,5.2927698561688885e-05
0.0001571049215272069,4.18607123719994e-05,-1.4269347047957126e-05,-0.0001583345147082582,7.645200821571052e-05
0.00015224020171444863,-2.398656215518713e-05,-1.1707585144904442e-05,-8.02327340352349e-05,7.942831143736839e-05
0.00010987308633048087,-6.84402184560895e-05,-1.3712035070057027e-05,-5.3001554078946356e-06,6.689357542200014e-05
5.683076597051695e-05,-6.521663453895599e-05,-1.2708184840448666e-05,1.836184674175456e-05,5.909315950702876e-05
9.163087270280812e-06,1.0905349654422025e-06,-5.43604346603388e-06,8.257607987616211e-06,6.535736611112952e-05
-2.6826503017218783e-05,6.0210106312297285e-05,3.1163604035100434e-06,-7.300767265405739e-06,7.716802065260708e-05
-4.556468047667295e-05,2.173101165681146e-05,4.842222097067861e-06,-2.243573180749081e-05,8.858083310769871e-05
-5.3465384553419426e-05,-6.276171916397288e-05,4.381685357657261e-06,-2.6140882255276665e-05,9.91126216831617e-05
-6.577489693881944e-05,-6.186710379552096e-05,1.0271146493323613e-05,-1.810523826861754e-05,0.00010082531662192196
-8.323184010805562e-05,-5.838613105879631e-06,2.09560566872824e-05,-3.0833452910883352e-06,8.47784976940602e-05
-9.183989459415898e-05,6.421345005946932e-06,2.0893643522867933e-05,4.777997673954815e-06,6.550685793627053e-05
-8.67845956236124e-05,-1.3745150681643281e-05,8.863707080308814e-06,-3.881965824348299e-07,6.0684298659907654e-05
-7.995970372576267e-05,-2.2073409127187915e-05,2.8620033845072612e-06,-4.004145466751652e-06,6.150508124846965e-05
-8.483796409564093e-05,-1.7353664588881657e-05,6.354805464070523e-06,-5.8090672609978355e-06,6.110334652476013e-05
-9.770648466655985e-05,8.69294126459863e-06,1.4165070751914755e-05,-1.0301831025572028e-05,5.875606075278483e-05
-9.867930930340663e-05,5.471524491440505e-05,1.7685339116724208e-05,-1.4231038221623749e-05,5.217651050770655e-05
-8.819517825031653e-05,9.129168756771833e-05,1.3753211533185095e-05,-1.3188529010221828e-05,3.6547877243719995e-05
-7.377271685982123e-05,9.780796244740486e-05,7.567619377368828e-06,-4.660215836338466e-06,2.3963988496689126e-05
-5.108011100674048e-05,6.582172500202432e-05,6.389102054527029e-06,8.636770871817134e-06,2.5542576622683555e-05
-2.753481203399133e-05,5.225737822911469e-06,1.230092857440468e-05,2.2528271074406803e-05,3.531210313667543e-05
-1.6506563042639755e-05,-3.6223980714567006e-05,1.678781336522661e-05,3.114678474958055e-05,4.645574517780915e-05
-1.11536364784115e-05,-6.429598215618171e-06,1.8626868040882982e-05,2.6345303922425956e-05,5.4184714826988056e-05
-3.822446615231456e-06,8.01435744506307e-05,2.0786665118066594e-05,1.2743254046654329e-05,6.0450860473793e-05
-2.773459073068807e-06,0.0001581785036250949,2.359843347221613e-05,-1.2628588592633605e-06,6.623063381994143e-05
-1.0344775546400342e-05,0.00016864606004673988,2.411619425402023e-05,-1.1539018487383146e-05,6.923656474100426e-05
-1.7393424059264362e-05,9.590268018655479e-05,2.2944584998185746e-05,-1.9616210920503363e-05,6.90681190462783e-05
-8.783405974099878e-06,-2.8752483558491804e-05,2.2952164727030322e-05,-2.7075524485553615e-05,6.955743447178975e-05
1.526146661490202e-05,-0.00010746782936621457,2.1648664187523536e-05,-3.462890526861884e-05,6.783375283703208e-05
2.8531661882880144e-05,-5.355825487640686e-05,1.9716497263289057e-05,-3.6357465432956815e-05,6.196032336447388e-05
1.0661194210115355e-05,8.515454828739166e-05,1.9193807020201348e-05,-2.4433302314719185e-05,5.8137891755905e-05
-2.416175811958965e-05,0.00019003849592991173,1.7514104911242612e-05,-3.2508089589100564e-06,5.8074590924661607e-05
-5.935848821536638e-05,0.00021253594604786485,1.3765836229140405e-05,6.044770543667255e-06,5.7001107052201405e-05
-8.186091872630641e-05,0.00017078957171179354,8.18314674688736e-06,-4.851247012993554e-06,5.698723180103116e-05
-9.076028072740883e-05,0.0001142560868174769,1.7664490314928116e-06,-1.594887362443842e-05,5.464213609229773e-05
-0.00010620074317557737,8.605673065176234e-05,-1.8945899000755162e-06,-2.151900844182819e-05,4.141965473536402e-05
-0.00012188340042484924,7.114937761798501e-05,-1.1871624110426637e-06,-2.7058176783611998e-05,3.0584797059418634e-05
-0.0001331316161667928,3.302944969618693e-05,3.4589409096952295e-06,-1.7266578652197495e-05,2.9359416657825932e-05
-0.00015156558947637677,1.5324322930609924e-06,1.0865021067729685e-05,7.40309405955486e-06,2.7702813895302825e-05
-0.0001430043048458174,6.941521860426292e-06,1.5148869351833127e-05,1.4664378795714583e-05,3.46079577866476e-05
-6.479898729594424e-05,3.6224093491910025e-05,1.1331366295053158e-05,-4.3329796426405665e-06,6.109532114351168e-05
5.34247410541866e-05,5.2637689805123955e-05,2.261871941300342e-06,-2.1001013010391034e-05,9.515928832115605e-05
0.00014530359476339072,2.5761248252820224e-05,-6.528670382976998e-06,-2.354162461415399e-05,0.00011075993097620085
0.00018107719370163977,7.556491254945286e-06,-1.0771826964628417e-05,-2.4763361579971388e-05,0.00010138787183677778
0.00018488557543605566,7.794243174430449e-06,-1.1160621397721115e-05,-2.9991833798703738e-05,8.116489334497601e-05
0.00018533311958890408,-1.980316847038921e-05,-1.007711671263678e-05,-3.0750790756428614e-05,6.238947389647365e-05
0.00017875056073535234,-5.528952169697732e-05,-9.517144462733995e-06,-2.8376076443237253e-05,4.8173460527323186e-05
0.000143290453706868,-4.579060259857215e-05,-9.439312634640373e-06,-2.976485666295048e-05,4.002196146757342e-05
8.560007699998096e-05,-1.739487015584018e-05,-6.1085252127668355e-06,-2.9880739020882174e-05,4.281114524928853e-05
4.2836043576244265e-05,-3.993194331997074e-05,-1.2492274663600256e-06,-2.2719334083376452e-05,5.307921310304664e-05
1.6680149201420136e-05,-9.075550769921392e-05,2.478350324963685e-06,-1.722140768833924e-05,6.232135638128966e-05
-3.1570529245072976e-05,-9.61221958277747e-05,7.407340035570087e-06,-1.8768541849567555e-05,6.470853259088472e-05
-0.00010616447980282828,-6.587702955584973e-05,1.3283663065521978e-05,-1.013747532851994e-05,6.347789167193696e-05
-0.00015262582746800035,-8.944442379288375e-05,1.3892068636778276e-05,2.075597149087116e-05,6.133254646556452e-05
-0.0001404617796652019,-0.0001468876434955746,6.342359938571462e-06,5.493261414812878e-05,5.8072004321729764e-05
-9.922669414663687e-05,-9.834926459006965e-05,-2.8755689527315553e-06,5.902365955989808e-05,5.5653588788118213e-05
-5.562775186263025e-05,6.75051414873451e-05,-6.191027750901412e-06,2.680972102098167e-05,5.4470983741339296e-05
-1.7621126971789636e-05,0.00020355670130811632,-2.8749191187671386e-06,-1.930919461301528e-05,5.279363540466875e-05
-5.3211515478324145e-06,0.00021480604482349008,1.2248918892510119e-06,-6.212216976564378e-05,5.0749444199027494e-05
-3.2648931664880365e-05,0.0001573895278852433,2.354850039409939e-06,-7.914026355138049e-05,5.0347727665212005e-05
-8.522313146386296e-05,0.00013476607273332775,-1.3666460745298536e-06,-5.2577546739485115e-05,5.226978464634158e-05
-0.0001248522021342069,0.0001609541504876688,-7.077117061271565e-06,-1.4476194337476045e-05,5.074245564173907e-05
-0.0001243314181920141,0.00017158059927169234,-1.0314774044672959e-05,6.613630830543116e-06,4.761218951898627e-05
-9.510244126431644e-05,0.0001288082276005298,-1.110663652070798e-05,2.365377986279782e-05,5.021749893785454e-05
-8.247680671047419e-05,6.762929842807353e-05,-7.036185252218274e-06,3.225118052796461e-05,6.0564012528629974e-05
-9.281703387387097e-05,2.7833302738144994e-05,1.3697487020181143e-06,8.038132364163175e-06,7.578991790069267e-05
-7.993055623956025e-05,-1.5734231055830605e-05,7.648707651242148e-06,-2.7702808438334614e-05,8.776367030804977e-05
-3.7734145735157654e-05,-6.506679346784949e-05,1.317424357694108e-05,-3.2996471418300644e-05,9.254346514353529e-05
-8.338292900589295e-06,-7.710654608672485e-05,1.875146699603647e-05,-5.292083073982212e-07,9.002349543152377e-05
-1.5754661944811232e-05,-7.768592331558466e-05,1.7574562662048265e-05,5.481687912833877e-05,8.420629455940798e-05
-3.672479942906648e-05,-0.00011161553993588313,1.0975038094329648e-05,0.0001036485773511231,7.455678132828325e-05
-3.895010377163999e-05,-0.00013173969637136906,3.4187726214440772e-06,0.00010661534906830639,6.303634290816262e-05
-2.9282075047376566e-05,-9.130896796705201e-05,-2.2117078515293542e-06,5.781625077361241e-05,5.806689659948461e-05
-3.332188498461619e-05,-3.208038106095046e-05,-2.3296622657653643e-06,-3.3875501685542986e-05,6.107621447881684e-05
-5.1474879001034424e-05,2.3865493403718574e-06,7.082259116941714e-07,-0.00012894147948827595,6.84817205183208e-05
-6.983631465118378e-05,1.6276288079097867e-05,8.167678060999606e-06,-0.0001368857774650678,7.444214861607179e-05
-6.727207073708996e-05,3.289845699327998e-05,1.8681143046705984e-05,-4.654879739973694e-05,7.702684524701908e-05
-4.171890759607777e-05,2.6227802663925104e-05,2.718933865253348e-05,4.6892189857317135e-05,7.576232019346207e-05
-4.651309609471355e-06,-2.5738416297826916e-05,3.33658535964787e-05,7.654266664758325e-05,7.146129792090505e-05
3.424405076657422e-05,-7.24297933629714e-05,3.5970497265225276e-05,4.419322431203909e-05,6.842384755145758e-05
7.228554750327021e-05,-7.10655003786087e-05,3.4321546991122887e-05,-2.861938628484495e-05,6.715564813930541e-05
0.0001020664130919613,-3.0837138183414936e-05,2.836949897755403e-05,-9.642320947023109e-05,6.380086415447295e-05
0.00010536159243201837,3.3905987947946414e-05,2.2689280740451068e-05,-0.00010372862016083673,5.883253470528871e-05
7.950822327984497e-05,9.567497909301892e-05,1.9672803318826482e-05,-7.100616494426504e-05,5.6752440286800265e-05
4.335581252234988e-05,0.00011207310308236629,1.4676455066364724e-05,-5.373774911276996e-05,5.7875939091900364e-05
1.1235655620112084e-05,9.684739052318037e-05,6.220696832315298e-06,-5.094378866488114e-05,5.686376607627608e-05
-1.2452201190171763e-05,8.755517774261534e-05,-2.224092696678781e-07,-3.730090975295752e-05,5.424645496532321e-05
-2.760487586783711e-05,9.884834435069934e-05,-4.583006557368208e-06,-7.499017556256149e-06,5.358574344427325e-05
-5.5456694099120796e-05,0.00011667876242427155,-8.156547664839309e-06,3.066756107727997e-05,5.2267172577558085e-05
-9.470278746448457e-05,0.00013264564040582627,-7.389924576273188e-06,6.414902600226924e-05,5.363765012589283e-05
-0.00012084191257599741,0.00016032446001190692,1.0263520522357794e-07,6.659132486674935e-05,6.0641290474450216e-05
-0.00014482933329418302,0.00022244753199629486,1.5560179235762917e-05,2.7121761377202347e-05,6.95672060828656e-05
-0.00018858398834709078,0.0002746268000919372,2.452735679980833e-05,-2.7948475690209307e-05,7.869042019592598e-05
-0.0002313380828127265,0.00026053457986563444,2.050571856671013e-05,-5.6796310673234984e-05,7.763165922369808e-05
-0.0002340893552172929,0.00019915009033866227,1.3675320587935857e-05,-4.8499598051421344e-05,6.404676241800189e-05
-0.00019400868040975183,0.0001381690672133118,8.909114512789529e-06,-2.6399340640637092e-05,4.8595640691928566e-05
-0.00015371212793979794,6.067877257009968e-05,4.035393430967815e-06,-1.798357152438257e-05,3.348923200974241e-05
-0.00012631158460862935,-5.815131953568198e-05,-5.432454599940684e-06,-1.5939120203256607e-05,2.1018789993831888e-05
-8.1196594692301e-05,-0.0001484719105064869,-9.480351764068473e-06,-6.736910108884331e-06,1.2606924428837374e-05
-2.0549196051433682e-06,-0.00018884826567955315,-6.557767846970819e-06,1.9885999790858477e-05,1.0372327778895851e-05
9.402415889780968e-05,-0.00020965274597983807,-7.301834557438269e-06,7.076124893501401e-05,8.505748155585025e-06
0.00017821247456595302,-0.0002040139224845916,-1.5750549209769815e-05,9.79132455540821e-05,8.92705975275021e-06
0.0002291664422955364,-0.00013047113316133618,-2.1612235286738724e-05,6.524377386085689e-05,1.635681837797165e-05
0.0002390591980656609,2.6043455818580696e-06,-1.934794636326842e-05,-4.192123469692888e-06,3.0592371331295e-05
0.00020778411999344826,0.0001385841896990314,-1.3247664355731104e-05,-7.59265385568142e-05,5.1693270506802946e-05
0.00015001415158621967,0.00021743345132563263,-7.371748324658256e-06,-0.00011207451461814344,7.453645957866684e-05
8.809725113678724e-05,0.00021432845096569508,-6.031110842741327e-06,-9.944051271304488e-05,8.91597883310169e-05
3.549141183611937e-05,0.00013992567255627364,-9.917373063217383e-06,-6.43800085526891e-05,8.763024379732087e-05
2.777004965537344e-06,3.175549500156194e-05,-1.6250576663878746e-05,-4.067879490321502e-05,7.918517803773284e-05
1.533147155896586e-06,-5.1889550377381966e-05,-1.7718111848807894e-05,-3.192259828210808e-05,7.973775791469961e-05
2.2207228539627977e-05,-0.00010396163270343095,-1.3491811841959134e-05,-2.930349546659272e-05,8.836215420160443e-05
4.057107071275823e-05,-0.00014060604735277593,-9.217326805810444e-06,-3.537352313287556e-05,8.89181683305651e-05
4.747631828649901e-05,-0.00013878261961508542,-8.945423360273708e-06,-4.396682925289497e-05,7.863659266149625e-05
2.9247565180412494e-05,-0.000107360421679914,-1.09180200524861e-05,-4.298976273275912e-05,6.0978247347520664e-05
-2.317912003491074e-05,-7.315215043490753e-05,-1.2252272426849231e-05,-3.310132524347864e-05,3.771534829866141e-05
-7.511879812227562e-05,-6.538915386045119e-06,-1.4400395230040886e-05,-2.1495721739483997e-05,1.9068067558691837e-05
-9.344451245851815e-05,7.390839164145291e-05,-1.7711603504722007e-05,-7.581853878946276e-06,1.771363167790696e-05
-9.446837793802842e-05,0.00012276634515728801,-9.754945494933054e-06,1.3364175174501725e-05,2.81551565421978e-05
-8.962150604929775e-05,0.00013726751785725355,5.977808541501872e-06,3.965534779126756e-05,4.071954026585445e-05
-7.56787703721784e-05,0.00015259708743542433,1.4042860129848123e-05,4.738657298730686e-05,5.678196976077743e-05
-5.257900556898676e-05,0.00019015037105418742,1.7693386325845495e-05,3.529529567458667e-05,7.474449375877157e-05
-4.131457899347879e-05,0.00020648517238441855,1.5750185411889106e-05,1.8115975763066672e-05,8.436518692178652e-05
-5.886155486223288e-05,0.0001656112726777792,1.2064432667102665e-05,5.612152108369628e-06,8.082731801550835e-05
-8.386493573198095e-05,8.361519576283172e-05,1.31304441310931e-05,2.886433321691584e-06,7.146010466385633e-05
-8.940679981606081e-05,1.475386852689553e-05,1.1557576726772822e-05,5.651013907481683e-06,6.919285078765824e-05
-7.495085446862504e-05,3.8150519685586914e-06,1.0453356480866205e-05,4.040714429720538e-06,6.755431968485937e-05
-7.32145199435763e-05,2.5105046006501652e-05,9.82778328761924e-06,-4.6318923523358535e-06,5.648470687447116e-05
-0.00010026654490502551,5.707283708034083e-05,1.0113890311913565e-05,-9.516472346149385e-06,4.0756956877885386e-05
-0.00011943008576054126,0.00010106616537086666,1.172220436274074e-05,-4.71446674055187e-06,2.8752150683430955e-05
-0.00010010274854721501,0.00014393478340934962,1.4107892639003694e-05,-3.4594272619870026e-06,2.7077390768681653e-05
-5.136345498613082e-05,0.00014355653547681868,1.6467743989778683e-05,-1.6757721823523752e-05,3.6571920645656064e-05
1.2558623438962968e-06,6.823571311542764e-05,1.857636743807234e-05,-2.2737567633157596e-05,5.333080480340868e-05
3.5161214327672496e-05,-5.967227480141446e-05,2.2003274352755398e-05,7.745439688733313e-06,6.340237450785935e-05
2.9997228921274655e-05,-0.00016302301082760096,2.564065289334394e-05,5.394531399360858e-05,5.6824555940693244e-05
-2.994917485921178e-05,-0.00017717768787406385,2.6510122552281246e-05,5.989606506773271e-05,4.3643362005241215e-05
-0.00011140038986923173,-0.00011271766561549157,2.0518720702966675e-05,1.4616900443797931e-05,4.057493060827255e-05
-0.00013023128849454224,-4.299910142435692e-05,1.1605962754401844e-05,-3.346691664773971e-05,5.154608879820444e-05
-6.55965122859925e-05,-5.9350848459871486e-05,7.225000899779843e-06,-4.395109135657549e-05,6.597896572202444e-05
7.852112503314856e-06,-0.00016273737128358334,1.0568410289124586e-05,-3.165163434459828e-05,7.38519593141973e-05
3.411634679650888e-05,-0.00019461104238871485,1.4443778127315454e-05,-2.7171345209353603e-05,7.767650095047429e-05
1.895955574582331e-05,-2.2628064471064135e-05,1.4614520296163391e-05,-2.8062286219210364e-05,8.091457129921764e-05
-5.3823050620849244e-06,0.00020712990954052657,8.890475328371394e-06,-2.1573152480414137e-05,8.549280755687505e-05
-1.3622812730318401e-05,0.0002987013722304255,-6.470581297435274e-07,-1.0111812116520014e-05,8.66300324560143e-05
-8.665091627335642e-06,0.00024092198873404413,-7.675390406802762e-06,-6.167674200696638e-06,7.611809996888041e-05
5.79615743845352e-07,0.00010641191329341382,-1.0254994776914828e-05,-1.4973083125369158e-05,5.6940225476864725e-05
1.0073302291857544e-05,-7.389405800495297e-05,-1.1109650586149655e-05,-2.5083758373511955e-05,4.229767364449799e-05
-9.136493304140458e-07,-0.00019961757061537355,-1.1606067346292548e-05,-2.8704555006697774e-05,3.74587434635032e-05
-3.052632382605225e-05,-0.00017690708045847714,-9.18469322641613e-06,-1.7136002497863956e-05,4.018014078610577e-05
-5.3020488849142566e-05,-5.357957707019523e-05,7.050615522530279e-07,-1.5424311072820274e-07,5.0274389650439844e-05
-5.864790000487119e-05,9.684102406026796e-05,1.2784765203832649e-05,4.9179243433172815e-06,5.9830232203239575e-05
-4.77239846077282e-05,0.0001952734892256558,2.1481884687091224e-05,1.1738149652273933e-07,6.19832135271281e-05
-1.9840794266201556e-05,0.00019668354070745409,2.574593963799998e-05,-3.5382424812269164e-06,5.7835131883621216e-05
2.027073787758127e-05,0.00010078719787998125,2.693134592846036e-05,-4.1348121158080176e-06,5.2585801313398406e-05
3.687116986839101e-05,8.391593837586697e-06,2.764876808214467e-05,-9.324583515990525e-06,5.487056841957383e-05
-8.710624570085201e-06,-1.4311570339486934e-05,2.535380917834118e-05,-2.262777888972778e-05,5.898709787288681e-05
-8.376934420084581e-05,-1.5650974091840908e-05,1.632485873415135e-05,-3.857068804791197e-05,5.694571518688463e-05
-0.00012125525245210156,-3.5738583392230794e-05,5.089839760330506e-06,-4.877100218436681e-05,5.040259566158056e-05
-0.00011364518286427483,-7.552388706244528e-05,-2.6536813493294176e-06,-5.384266478358768e-05,4.373116826172918e-05
-9.590572153683752e-05,-0.00010889675468206406,-5.064171091362368e-06,-5.435388084151782e-05,4.1546401917003095e-05
-7.811137038515881e-05,-0.00011209327931283042,-1.4412912605621386e-06,-4.6945540816523135e-05,4.534853724180721e-05
-5.968243203824386e-05,-7.558814104413614e-05,7.954607781357481e-07,-3.2152336643775925e-05,5.1717201131395996e-05
-4.6994264266686514e-05,-4.130261731916107e-05,-1.8211305814475054e-06,-1.9335400793352164e-05,5.7590557844378054e-05
-2.9535498470067978e-05,-5.28937962371856e-05,-3.507786004774971e-06,-1.730352596496232e-05,6.368207687046379e-05
8.595172403147444e-06,-8.175036055035889e-05,1.9018132206838345e-06,-2.406529529253021e-05,6.970071990508586e-05
6.269095320021734e-05,-6.468172068707645e-05,9.145365766016766e-06,-2.893335658882279e-05,7.40474570193328e-05
0.00010198564996244386,-2.6406671167933382e-05,1.2086901733709965e-05,-2.035754732787609e-05,7.901254139142111e-05
9.970605606213212e-05,-1.4092322999204043e-05,1.2106344001949765e-05,1.2078852705599274e-05,8.565509779145941e-05
4.6325581934070215e-05,-1.6168285583262332e-05,1.7599140846868977e-05,5.8210189308738336e-05,8.708782843314111e-05
-3.580104385036975e-05,-1.4992743672337383e-05,3.06053007079754e-05,7.976136839715764e-05,8.358558261534199e-05
-0.00010209453466814011,2.754650267888792e-06,3.810093767242506e-05,6.406154716387391e-05,8.158332639141008e-05
-0.00014635166735388339,4.986139538232237e-05,3.351681516505778e-05,3.9001683035166934e-05,8.459878881694749e-05
-0.00016571128799114376,0.00010350655065849423,2.3943659471115097e-05,2.6107845769729465e-05,8.646047353977337e-05
-0.00013345065235625952,0.0001345230994047597,1.5897967386990786e-05,2.9640938009833917e-05,7.721951260464266e-05
-6.105329521233216e-05,0.0001656209205975756,1.3667397070094012e-05,4.238286055624485e-05,6.725356070091948e-05
3.891698270308552e-06,0.00020696052524726838,1.6301743016811088e-05,4.908833943773061e-05,6.196273898240179e-05
4.9379545089323074e-05,0.0002162313903681934,1.1866528438986279e-05,3.335608562338166e-05,4.9986017984338105e-05
9.580013283994049e-05,0.0002071111521217972,-7.346662300733442e-07,4.2337637751188595e-06,3.994904909632169e-05
0.00015081968740560114,0.0002074700314551592,-1.0739066055975854e-05,-4.247401011525653e-05,4.122409154661e-05
0.00018721417291089892,0.00018400563567411155,-1.6034549844334833e-05,-0.0001038240225170739,4.949558569933288e-05
0.0001595190551597625,8.416573837166652e-05,-1.8013066437561065e-05,-0.00014148789341561496,6.202769873198122e-05
6.903168832650408e-05,-4.1425275412620977e-05,-1.82897911145119e-05,-0.00014465482672676444,7.392908446490765e-05
-2.3842199880164117e-05,-8.551849896321073e-05,-1.5991858163033612e-05,-0.00012256235640961677,7.029526750557125e-05
-6.467315688496456e-05,-5.095672167954035e-05,-1.0351141099818051e-05,-9.288013097830117e-05,5.077271271147765e-05
-5.792264346382581e-05,1.9777764464379288e-05,-2.2073825221013976e-06,-5.8723671827465296e-05,3.379384725121781e-05
-4.2149811633862555e-05,8.701455953996629e-05,3.857869160128757e-06,-1.0602952897897922e-05,2.9814646040904336e-05
-3.80422716261819e-05,0.00013341050362214446,5.764530214946717e-06,5.1842405810020864e-05,3.451214070082642e-05
-2.7350595701136626e-05,0.00015314421034418046,7.38952530809911e-06,8.48266136017628e-05,4.448252002475783e-05
-3.4352572129137116e-06,0.00014227260544430465,8.267628800240345e-06,5.6757155107334256e-05,6.168368418002501e-05
1.309864364884561e-05,0.0001140820822911337,5.711140147468541e-06,6.6180018620798364e-06,8.322412759298459e-05
1.5035285287012812e-05,9.362740820506588e-05,1.491640887252288e-06,-1.654151128605008e-05,9.988184319809079e-05
1.7776312233763747e-05,7.645662844879553e-05,1.2745784943035687e-06,-5.7304432630189694e-06,0.00010299946006853133
1.659082408878021e-05,4.874228034168482e-05,2.9466616524587153e-06,1.993329897231888e-05,9.386854799231514e-05
-3.1779443816049024e-05,2.358494748477824e-05,2.5651213491073577e-06,2.9307606382644735e-05,8.29081836855039e-05
-0.00012533809058368206,3.252657916164026e-05,-6.109692662903399e-07,8.813631211523898e-06,7.406347867799923e-05
-0.00017081465921364725,7.397415902232751e-05,-6.453370133385761e-06,-8.98818234418286e-06,5.937756577623077e-05
-0.00012141919432906434,0.00010430014663143083,-7.957189154694788e-06,-7.155481853260426e-06,4.7521480155410245e-05
-4.6298260713228956e-05,9.722389950184152e-05,-2.6940567749988986e-06,2.1357916921260767e-05,5.111061182105914e-05
-9.973827218345832e-06,5.6446893722750247e-05,1.0852814966710866e-06,5.6097644119290635e-05,6.256236520130187e-05
-1.5775376596138813e-05,2.51831479545217e-05,3.743446995940758e-06,6.0419180954340845e-05,7.106423436198384e-05
-3.524548446875997e-05,1.81674949999433e-05,8.86864017957123e-06,1.7487460354459472e-05,7.417833694489673e-05
-3.359709808137268e-05,-1.0989696420438122e-05,9.01684325071983e-06,-9.463674359722063e-05,6.977353768888861e-05
-1.6186015272978693e-05,-4.144209378864616e-05,4.18633317167405e-06,-0.0001796536089386791,6.342212873278186e-05
-1.0025859410234261e-05,-3.657756678876467e-05,3.380612412229311e-08,-0.00013474626757670194,6.266461423365399e-05
-8.417380740866065e-06,-3.5626362659968436e-05,-3.8050436614867067e-06,-4.0625665860716254e-05,6.629917334066704e-05
-1.7063388440874405e-05,-4.5835589844500646e-05,-8.57180384628009e-06,7.224548426165711e-06,7.128643483156338e-05
-4.5885666622780263e-05,-6.883926107548177e-05,-1.507847809989471e-05,-1.1793031262641307e-06,7.352419925155118e-05
-8.445723506156355e-05,-0.00011632581299636513,-1.4293694221123587e-05,-1.828564199968241e-05,7.149232988012955e-05
-0.00010773576650535688,-0.00016441686602775007,-5.400037935032742e-06,-9.36599462875165e-06,6.513826519949362e-05
-0.00010204006684944034,-0.0001946852426044643,4.798531335836742e-06,1.9621815226855688e-05,5.672593033523299e-05
-9.433629747945815e-05,-0.0002220242313342169,1.0667271453712601e-05,4.5367840357357636e-05,4.785457349498756e-05
-0.00010817805741680786,-0.00023519813839811832,1.0507093975320458e-05,5.396960114012472e-05,3.8242596929194406e-05
-0.0001146642243838869,-0.00020121248962823302,7.163437203416834e-06,5.2077710279263556e-05,2.777331246761605e-05
-7.473507866961882e-05,-0.00013288207992445678,5.5876694204926025e-06,4.3143263610545546e-05,2.1802723495056853e-05
-1.3600591955764685e-05,-6.783843855373561e-05,8.355052159458864e-06,2.8982500225538388e-05,2.681074147403706e-05
1.1607477972574998e-05,-4.131528839934617e-06,1.299869836657308e-05,1.98793422896415e-05,3.906216807081364e-05
-1.732687815092504e-05,7.732691301498562e-05,1.782878280209843e-05,2.2434011043515056e-05,5.343119482859038e-05
-6.689508154522628e-05,0.00015325599815696478,1.9176277419319376e-05,1.84439450094942e-05,6.62581151118502e-05
-9.968195809051394e-05,0.0001813429407775402,1.592575790709816e-05,-3.5645148273033556e-06,7.005498628132045e-05
-0.00011331411224091426,0.0001569196756463498,1.2301407878112514e-05,-2.472878622938879e-05,6.130245310487226e-05
-0.00010691731586121023,0.00012146490189479664,1.0174747330893297e-05,-3.318707240396179e-05,4.805693242815323e-05
-6.27803965471685e-05,0.0001213479699799791,5.718456577596953e-06,-4.064786116941832e-05,4.1239232814405113e-05
-1.6724168290238595e-06,0.00017142559227067977,2.0943359686498297e-06,-4.415737566887401e-05,4.446676393854432e-05
2.2840231395093724e-05,0.0002414354239590466,3.3144519875349943e-06,-4.424248618306592e-05,5.3155737987253815e-05
4.799476755579235e-06,0.0002936260716523975,7.738730346318334e-06,-4.943821477354504e-05,6.15944663877599e-05
5.651859737554332e-06,0.00032721259049139917,1.0026205018220935e-05,-5.2405182941583917e-05,6.962596671655774e-05
4.972559690941125e-05,0.00034640266676433384,6.673674306512112e-06,-5.1089737098664045e-05,7.341666059801355e-05
9.563146159052849e-05,0.00032585710869170725,-3.964228199038189e-06,-4.321961750974879e-05,6.725111597916111e-05
9.736487118061632e-05,0.00025279837427660823,-5.950846571067814e-06,-5.505351055035135e-06,5.5010223150020465e-05
6.693106843158603e-05,0.00014119049592409283,2.651036538736662e-06,4.004656511824578e-05,4.3704756535589695e-05
2.63157780864276e-05,1.694463935564272e-05,8.793320489530743e-07,5.753782897954807e-05,3.373808431206271e-05
-3.716658102348447e-05,-8.284188515972346e-05,-8.752145731705241e-06,5.7334622397320345e-05,1.7203485185746104e-05
-9.975027205655351e-05,-0.00012262750533409417,-1.1238046681683045e-05,2.7939224310102873e-05,-3.47279956258717e-06
-0.00012898247223347425,-9.224205859936774e-05,-3.465023155513336e-06,-1.2831132153223734e-05,-1.559501833980903e-05
-0.00010649730393197387,-6.277280044741929e-05,8.110740054689813e-06,-2.6414625608595088e-05,-1.1152232218591962e-05
-4.009716576547362e-05,-0.0001218297184095718,1.3195441169955302e-05,-2.8609563742065802e-05,1.3954813766758889e-05
3.761457264772616e-05,-0.00020632783707696944,8.222249562095385e-06,-3.8960166421020404e-05,5.388867430156097e-05
8.936025551520288e-05,-0.00024022848811000586,1.5537101489826455e-06,-4.344107219367288e-05,8.583911403547972e-05
0.00010607454169075936,-0.00022721941058989614,-2.5575479867256945e-07,-2.9039991204626858e-05,0.00010147094144485891
9.691053128335625e-05,-0.0001570079184602946,3.0305275231512496e-06,-9.776439583220053e-06,0.00011181332229170948
8.182610326912254e-05,-5.2248946303734556e-05,4.375763182906667e-06,-3.948649919038871e-06,0.00011786496179411188
7.347632345044985e-05,2.575863072706852e-05,2.914870037784567e-06,-1.682971378613729e-05,0.00010695789387682453
5.845966370543465e-05,5.4523334256373346e-05,9.115635748457862e-07,-4.383818304631859e-05,8.175487164407969e-05
1.782074468792416e-05,6.276223575696349e-05,-8.78758783073863e-07,-7.263293082360178e-05,6.707815191475675e-05
-4.3879430450033396e-05,6.560877955053002e-05,-1.4478400771622546e-06,-7.511967851314694e-05,6.933017721166834e-05
-0.00010009915422415361,6.987644883338362e-05,1.748985255289881e-06,-4.751145024783909e-05,7.533878670074046e-05
-0.00014299704344011843,8.190434891730547e-05,8.68170172907412e-06,-2.1798616216983646e-05,7.552884926553816e-05
-0.00017036682402249426,9.111139661399648e-05,1.4504254068015143e-05,-1.5042301129142288e-05,7.424058276228607e-05
-0.00017024812404997647,8.60982108861208e-05,1.7755657609086484e-05,-1.4404502508114092e-05,7.219814142445102e-05
-0.000136983348056674,7.679883856326342e-05,1.8218544937553816e-05,-1.0189022759732325e-05,7.037603063508868e-05
-8.559093839721754e-05,6.207309343153611e-05,1.6841941032907926e-05,-4.590584012476029e-06,7.397679291898385e-05
-3.855451359413564e-05,3.61735001206398e-05,1.7998683688347228e-05,-7.976754204719327e-06,7.154823833843693e-05
-1.1214642654522322e-05,5.740295091527514e-05,1.7482854673289694e-05,-2.4194099751184694e-05,5.7984667364507914e-05
-1.4719300452270545e-05,0.00013627488806378096,1.556283314130269e-05,-3.630425635492429e-05,4.598613304551691e-05
-6.278903310885653e-05,0.0001780156890163198,1.854340916906949e-05,-2.8230993848410435e-05,3.3270280255237594e-05
-0.0001053397063515149,0.00015011336654424667,1.957150197995361e-05,1.4752557035535574e-05,1.6339250578312203e-05
-9.720236994326115e-05,0.00010275414388161153,1.6966516341199167e-05,5.607743514701724e-05,6.01461442784057e-06
-5.544785744859837e-05,5.5803255236241966e-05,9.59744011197472e-06,5.6804452469805256e-05,8.974303455033805e-06
-8.97428526513977e-06,1.5322468243539333e-05,-1.2254794228283572e-06,5.1706418162211776e-05,2.252730519103352e-05
1.4739557627763133e-05,-1.2095359124941751e-05,-8.087019523372874e-06,6.502096221083775e-05,3.9367030694847926e-05
2.154780122509692e-05,-2.6719904781202786e-05,-1.0582498362055048e-05,6.914195546414703e-05,5.623386459774338e-05
4.17811497754883e-05,-3.7059446185594425e-05,-1.2828659237129614e-05,3.6749621358467266e-05,7.645544974366203e-05
5.653680636896752e-05,-5.6203782150987536e-05,-1.3866966583009344e-05,-9.470987606619019e-06,9.430380305275321e-05
1.4460963939200155e-05,-7.731696678092703e-05,-1.2336157851677854e-05,-3.8699628930771723e-05,0.00010070325515698642
-5.637815411319025e-05,-0.0001051071158144623,-8.51597997097997e-06,-6.136349111329764e-05,9.83251811703667e-05
-8.067089947871864e-05,-0.00011396885383874178,-4.899054601992248e-06,-7.77086679590866e-05,8.872121543390676e-05
-6.377803219947964e-05,-7.312218804145232e-05,-1.2297259672777727e-06,-4.692806760431267e-05,7.356602873187512e-05
-5.893660636502318e-05,1.0291869330103509e-05,4.179576080787228e-06,2.0223254978191108e-05,5.785179018857889e-05
-6.687855056952685e-05,0.00010920486965915188,8.006889402167872e-06,6.580960325663909e-05,4.983023973181844e-05
-5.5084838095353916e-05,0.0001829691609600559,1.04703849501675e-05,6.552472041221336e-05,5.426249481388368e-05
-1.5832129065529443e-05,0.00018626714881975204,9.642138138588052e-06,3.498836304061115e-05,6.612778088310733e-05
1.6127058188430965e-05,0.00013113733439240605,4.9805794333224185e-06,-5.374472038965905e-06,7.497611659346148e-05
1.8346889191889204e-05,7.603405538247898e-05,1.4331080819829367e-06,-3.651122096925974e-05,7.744346658000723e-05
1.232875911227893e-05,1.8237156837130897e-05,5.653036623698426e-06,-5.2859675633953884e-05,7.64957585488446e-05
1.5036767763376702e-05,-6.513475091196597e-05,1.0848250894923694e-05,-6.485894846264273e-05,7.69166144891642e-05
4.340024133853149e-06,-0.00011126449680887163,9.054988368006889e-06,-6.953757838346064e-05,8.045653521548957e-05
-4.546954369288869e-05,-4.8837329813977703e-05,2.186061237807735e-06,-6.0184989706613123e-05,7.779357838444412e-05
-0.00010053614823846146,5.576852345257066e-05,-3.957907665608218e-06,-3.881066731992178e-05,6.203726661624387e-05
-9.963611955754459e-05,0.00010189069143962115,-4.378705853014253e-06,-2.106630381604191e-05,4.625028668669984e-05
-4.8268204409396276e-05,7.878073665779084e-05,-9.127294333666214e-07,-1.3863212188880425e-05,4.305584661778994e-05
5.845432497153524e-06,2.502995266695507e-05,2.0284930997149786e-06,-1.4930197721696459e-05,5.007123763789423e-05
2.3022626919555478e-05,-3.311998807475902e-05,2.292054205099703e-06,-1.7550661141285673e-05,5.2409774070838466e-05
-9.276091077481396e-06,-0.00012346495350357145,1.5661478300899034e-06,-2.1316327547538094e-05,4.640201586880721e-05
-4.845100556849502e-05,-0.00024406361626461148,-3.5910450151277473e-06,-3.0076889743213542e-05,4.238148176227696e-05
-5.4604581237072125e-05,-0.0002843639231286943,-1.3112419765093364e-05,-3.4984750527655706e-05,4.1575862269382924e-05
-3.725960777956061e-05,-0.00022005864593666047,-2.2007885490893386e-05,-2.743660115811508e-05,4.248056575306691e-05
-1.3305600987223443e-05,-9.603567741578445e-05,-2.106501233356539e-05,-1.8127924704458565e-05,4.468734550755471e-05
7.568520686618285e-06,4.988186265109107e-05,-1.3782909263682086e-05,-1.373650593450293e-05,5.1531216740841046e-05
1.1425056982261594e-05,0.00015015507233329117,-6.194069555931492e-06,-1.439897641830612e-05,5.835010961163789e-05
-4.624976554623572e-06,0.00018369393364991993,4.289670869184192e-06,-1.318279464612715e-05,6.137303716968745e-05
-2.2707325115334243e-05,0.00019580622029025108,1.4648969226982445e-05,-6.530531209136825e-06,5.825025436934084e-05
-4.208218160783872e-05,0.0002010507305385545,2.118724114552606e-05,1.2803711513242888e-07,5.378683272283524e-05
-6.104068597778678e-05,0.0001659351255511865,2.169469735235907e-05,3.7929842164885486e-06,5.034909554524347e-05
-6.764987483620644e-05,0.00011476902000140399,2.010180651268456e-05,3.205689154128777e-06,4.779384471476078e-05
-6.263735849643126e-05,9.331658657174557e-05,1.904006967379246e-05,1.283479832636658e-06,4.946625995216891e-05
-5.0700706196948886e-05,0.00011236196587560698,2.019289786403533e-05,-1.4549178786182893e-06,5.3348539950093254e-05
-3.2338746677851304e-05,0.0001575464993948117,2.110917921527289e-05,-4.480232291825814e-06,5.34814280399587e-05
-6.30053955319454e-06,0.00020928471349179745,2.0468442016863264e-05,2.919979806392803e-06,4.778841321240179e-05
2.8792070224881172e-05,0.000216795684536919,1.8775939679471776e-05,2.7725451218429953e-05,4.312525925342925e-05
6.436769763240591e-05,0.00012462944141589105,1.845394217525609e-05,5.5455464462284e-05,4.736522532766685e-05
8.993114170152694e-05,-3.079550151596777e-05,2.096533717121929e-05,6.93976107868366e-05,5.945328302914277e-05
0.0001021861462504603,-0.00013863842468708754,2.2933436412131414e-05,6.0580761783057824e-05,6.770027539459988e-05
7.511099829571322e-05,-0.00018163007916882634,1.9918112229788676e-05,3.086405558860861e-05,6.746063445461914e-05
7.258242021634942e-06,-0.00017092093185056,1.610915751371067e-05,5.708074695576215e-06,6.391649367287755e-05
-6.640162609983236e-05,-7.303797610802576e-05,1.9272107238066383e-05,-1.6504948234796757e-06,6.302344263531268e-05
-0.0001309229264734313,5.841183883603662e-05,2.2717400497640483e-05,-3.909189035766758e-05,6.344659050228074e-05
-0.0002078573452308774,0.00012743097613565624,1.661845999478828e-05,-0.00013247407332528383,6.24508029432036e-05
-0.0002869360614567995,0.0001136678401962854,5.385652002587449e-06,-0.00017945340368896723,5.775751196779311e-05
-0.00030845889705233276,8.700903708813712e-05,9.756914209901879e-08,-0.00011708513193298131,5.451369725051336e-05
-0.0002473083441145718,9.395303641213104e-05,-8.646647842169841e-08,-3.5992838093079627e-05,5.040676114731468e-05
-0.0001472631556680426,0.00011846053530462086,-4.444146725290921e-06,-2.5074946279346477e-06,4.7641653509344906e-05
-4.133210313739255e-05,0.00013420630421023816,-1.0441398444527294e-05,-9.697291716292966e-06,5.4733998695155606e-05
6.434605893446133e-05,0.00013673919602297246,-1.0543261851125862e-05,-2.516878885217011e-05,6.525267963297665e-05
0.00014472250768449157,0.00013369679800234735,-1.0850548278540373e-05,-3.5547767765820026e-05,6.919384759385139e-05
0.0002133420784957707,0.00012524775229394436,-1.0930969438049942e-05,-3.8257232517935336e-05,6.445174949476495e-05
0.00028000949532724917,0.00013923729420639575,-5.120320111018373e-06,-3.7212455936241895e-05,5.919642353546806e-05
0.00032125809229910374,0.0001883164222817868,5.2366676754900254e-06,-3.3455162338213995e-05,5.8959180023521185e-05
0.00030737652559764683,0.00021212898718658835,1.4370205462910235e-05,-2.468387538101524e-05,5.636123751173727e-05
0.00022231618640944362,0.00021982280304655433,2.0802106519113295e-05,-1.7834616301115602e-05,4.770634404849261e-05
9.904492617351934e-05,0.00024950638180598617,2.6264779080520384e-05,-1.1956090020248666e-05,4.06637009291444e-05
-1.369181973132072e-05,0.000222773349378258,3.0522824090439826e-05,-5.425375547929434e-06,4.1194100049324334e-05
-9.051185043063015e-05,9.355021029477939e-05,2.860398126358632e-05,7.87589124229271e-06,4.469467967282981e-05
-0.00012910446093883365,-4.497295958572067e-05,2.2615189664065838e-05,2.5834586267592385e-05,4.734136746264994e-05
-0.00012514308036770672,-0.00013895647134631872,2.2146796254673973e-05,4.229607293382287e-05,5.902834891458042e-05
-8.894554775906727e-05,-0.00027896149549633265,2.7283896997687407e-05,4.105410698684864e-05,8.286449156003073e-05
-4.766478014062159e-05,-0.0004628876631613821,2.6628453269950114e-05,7.94079460320063e-06,9.895973926177248e-05
-1.4634668332291767e-05,-0.0005439013475552201,1.417785188095877e-05,-3.995191218564287e-05,9.313726332038641e-05
1.7431137166568078e-05,-0.0004809614329133183,1.487773488406674e-06,-5.611228698398918e-05,7.714454113738611e-05
3.9246056985575706e-05,-0.00034737755777314305,-2.197054072894389e-06,-2.8709209800581448e-05,6.803614814998582e-05
2.932720963144675e-05,-0.00016851940017659217,3.1069241401837644e-08,5.580316610576119e-06,6.472738459706306e-05
-1.090439036488533e-05,2.8350981665425934e-05,1.8657094642549055e-06,1.4556420865119435e-05,5.950519334874116e-05
-6.258308712858707e-05,0.00014138530241325498,-5.261974820314208e-07,4.598607119987719e-06,5.49688411410898e-05
-0.00010936328180832788,0.00012154448631918058,-6.575450697710039e-06,-7.84949315857375e-06,5.171589873498306e-05
-0.00016016667359508574,6.462753663072363e-05,-9.61987279879395e-06,-1.6626536307740025e-05,4.8196816351264715e-05
-0.00020747042435687035,2.627205140015576e-05,-7.966737939568702e-06,-3.2834959711181e-05,4.4727028580382466e-05
-0.00018829162581823766,9.302805665356573e-06,-6.073094937164569e-06,-6.141249468782917e-05,3.825714884442277e-05
-0.00010777613351820037,4.694519520853646e-05,-7.124502644728636e-06,-6.629418203374371e-05,3.366223972989246e-05
-4.6835710236337036e-05,8.63647655933164e-05,-5.428194526757579e-06,-3.741158070624806e-05,3.767519228858873e-05
-2.4572131223976612e-05,8.030018943827599e-05,-1.4762206319574034e-06,1.8362839909968898e-05,4.178956805844791e-05
1.2568116289912723e-06,7.426783122355118e-05,3.1493302685703384e-06,6.035940896254033e-05,4.2850817408179864e-05
2.8795837351935916e-05,7.684990123379976e-05,6.336919341265457e-06,4.5240725739859045e-05,4.4341690227156505e-05
-3.3170304050145205e-06,5.902680641156621e-05,5.894979494769359e-06,2.9935026759631e-06,5.568186679738574e-05
-6.712631147820503e-05,2.8996691980864853e-05,5.8009163694805466e-06,-3.4009288356173784e-05,7.879324402892962e-05
-8.519067341694608e-05,1.2539965609903447e-05,7.419323083013296e-06,-4.677097240346484e-05,9.885214240057394e-05
-5.615814370685257e-05,1.4915561223460827e-05,1.3947102161182556e-05,-4.585004353430122e-05,0.00010210403706878424
-1.7253050828003325e-05,1.9833469195873477e-05,1.8795000869431533e-05,-5.314833470038138e-05,9.226004476659e-05
3.805869255302241e-06,2.0459223378566094e-05,1.8453632947057486e-05,-6.991218833718449e-05,7.758462015772238e-05
-7.776806114634383e-07,1.853207140811719e-05,1.5151879779295996e-05,-7.244756852742285e-05,6.577450403710827e-05
-2.2033271307009272e-05,1.6055828382377513e-05,1.6255327864200808e-05,-3.182321597705595e-05,5.832175156683661e-05
-4.3208474380662665e-05,2.1447041945066303e-05,2.0477293219300918e-05,4.343488035374321e-05,4.666944369091652e-05
-4.589202580973506e-05,4.156054274062626e-05,2.056873927358538e-05,0.00012644605885725468,2.5907429517246783e-05
-1.2012508705083746e-05,7.026777166174725e-05,1.9462082491372712e-05,0.00018795749929267913,6.438203854486346e-06
4.59848961327225e-05,0.00011154561798321083,1.8945323972729966e-05,0.00019438646268099546,4.219209131406387e-06
6.890460645081475e-05,0.0001815470022847876,1.8152944903704338e-05,0.00014492188347503543,2.1677020413335413e-05
7.069564162520692e-06,0.00024987568031065166,2.1227933757472783e-05,9.236631012754515e-05,4.9930851673707366e-05
-0.00012768855958711356,0.0002516368986107409,2.8767592084477656e-05,6.806753663113341e-05,7.72798593970947e-05
-0.00027787964791059494,0.00020340914488770068,2.972699803649448e-05,7.294813985936344e-05,9.149467950919643e-05
-0.0003629736020229757,0.00015310959133785218,2.1441523131215945e-05,8.540110138710588e-05,8.719403558643535e-05
-0.000356046948581934,0.00010659434337867424,9.76214050751878e-06,2.975990719278343e-05,7.035262387944385e-05
-0.0003189435519743711,8.724752842681482e-05,2.688510448933812e-06,-0.0001156796861323528,5.6437849707435817e-05
-0.0002745857054833323,0.00011794513557106256,3.0944240734243067e-06,-0.0002234336716355756,7.202183041954413e-05
-0.00020537566160783172,0.00013671549095306545,4.51670393886161e-06,-0.00021091577946208417,0.00010474165173945948
-0.0001193344360217452,6.338488310575485e-05,2.165078711868773e-07,-0.00015317588986363262,0.00011970954801654443
-3.10601171804592e-05,-6.187638791743666e-05,-6.3365278037963435e-06,-0.00012763032282236964,0.0001129891024902463
4.854255530517548e-05,-0.0001710827782517299,-1.00664565252373e-05,-0.00010980294609908015,9.296257485402748e-05
9.361338015878573e-05,-0.00023489435261581093,-9.17566467251163e-06,-6.414520612452179e-05,6.530332029797137e-05
0.00010639573156367987,-0.00024336118076462299,-2.4159821805369575e-06,-1.6196174328797497e-05,4.366544817457907e-05
0.00012270976731088012,-0.00019712776702363044,6.508401384053286e-06,9.124056305154227e-06,3.675488551380113e-05
0.00014328242104966193,-0.00012060802691848949,1.319596321991412e-05,1.4818501767877024e-05,4.60813389508985e-05
0.00016315470566041768,-7.887093670433387e-05,2.0206038243486546e-05,1.9375438569113612e-05,6.26622058916837e-05
0.0001687412295723334,-9.142865746980533e-05,2.7314874387229793e-05,2.453138404234778e-05,7.695017120568082e-05
0.00014522158016916364,-0.00013485932140611112,2.805765689117834e-05,2.1433639631140977e-05,8.387341949855909e-05
9.294378105551004e-05,-0.00012727727880701423,2.2539536075782962e-05,7.348387953243218e-06,8.286025695269927e-05
3.7916775909252465e-05,1.5977715520421043e-05,1.7917163859237917e-05,-5.774059445684543e-06,7.440095214406028e-05
1.0842141819011886e-05,0.00024649553233757615,1.4839258255960885e-05,-1.4363635273184627e-05,6.415502866730094e-05
1.2078035979357082e-05,0.0004144370323047042,1.1295778676867485e-05,-2.200928247475531e-05,6.333525379886851e-05
2.129481072188355e-05,0.00043042260222136974,5.648092610499589e-06,-2.2121517758932896e-05,7.002305937930942e-05
1.5057004929985851e-05,0.0003530100511852652,-7.692205485909653e-07,-1.2545020581455901e-05,7.596136128995568e-05
-1.81948889803607e-05,0.0002743164368439466,-2.974458311655326e-06,-8.182716555893421e-06,7.363852637354285e-05
-6.248451245483011e-05,0.000186135497642681,-2.632193400131655e-06,-2.2008573068887927e-05,5.742931170971133e-05
-6.646124529652297e-05,2.783708623610437e-05,-3.690649009513436e-06,-4.015651938971132e-05,3.326150545035489e-05
-1.5106294085853733e-05,-0.00016292232612613589,-6.2406206779996864e-06,-4.412192720337771e-05,1.8028147678705864e-05
4.023220026283525e-05,-0.0002681806799955666,-7.281400939973537e-06,-3.038453360204585e-05,1.6393505575251766e-05
4.524110408965498e-05,-0.0002262005436932668,-4.974466719431803e-06,-9.954429515346419e-06,1.9360128135303967e-05
8.849074220051989e-07,-0.00012840058479923755,-3.128968046439695e-06,1.4941157132852823e-05,1.743146640365012e-05
-5.0456706958357245e-05,-7.062225631671026e-05,-4.751085270982003e-06,5.441187022370286e-05,1.5707631973782554e-05
-7.650162297068164e-05,-2.8725444281008095e-05,-7.497532806155505e-06,0.00010657319944584742,2.7204989237361588e-05
-7.565900887129828e-05,-1.2102405889891088e-05,-8.137672921293415e-06,0.0001354877749690786,5.65322297916282e-05
-6.327088340185583e-05,-9.00801460375078e-05,1.6806562825877336e-06,9.611452696844935e-05,8.24759918032214e-05
-5.770102143287659e-05,-0.00013770366786047816,1.3350616427487694e-05,-4.5700817281613126e-05,8.166959742084146e-05
-6.386483437381685e-05,-3.291785469627939e-05,7.759059371892363e-06,-0.00019735128444153816,5.9107587730977684e-05
-6.192466389620677e-05,9.239753853762522e-05,-2.040496838162653e-06,-0.00021023463341407478,3.8936774217290804e-05
-4.0037590224528685e-05,0.00018191378330811858,-8.162066365002829e-07,-9.610445704311132e-05,3.398816625121981e-05
-1.9468172467895783e-05,0.00023900863016024232,2.7595194751484087e-06,4.9894792937266175e-06,3.901989839505404e-05
-1.331735256826505e-05,0.00023641013831365854,5.986479663988575e-06,1.11637677946419e-06,4.9415983085054904e-05
-1.6660671462886967e-05,0.00017797626787796617,8.57510713103693e-06,-4.5248692913446575e-05,6.354274955810979e-05
-3.125865987385623e-05,0.00010372252290835604,1.034496926877182e-05,-5.9633490309352055e-05,7.673523214180022e-05
-5.530201815417968e-05,4.417919262778014e-05,9.73699388850946e-06,-3.37993806169834e-05,8.357836486538872e-05
-6.13406955380924e-05,-3.497103989502648e-06,4.571242698148126e-06,5.827909717481816e-06,8.279633038910106e-05
-2.3520116883446462e-05,-4.131336390855722e-05,-4.974715920980088e-06,3.417298648855649e-05,7.84226504038088e-05
5.4521282436326146e-05,-6.607288378290832e-05,-1.6847665392560884e-05,4.018167237518355e-05,7.073209417285398e-05
0.00012595599400810897,-4.738925417768769e-05,-2.6404190066386946e-05,2.844313894456718e-05,5.703569695469923e-05
0.00013746677723247558,2.2836818970972672e-05,-2.734531881287694e-05,1.1679273484332953e-05,4.134897608309984e-05
7.959386130096391e-05,0.00010325643961550668,-1.9493505533318967e-05,7.186297352745896e-07,3.170027048327029e-05
-1.3635623872687574e-05,0.00014507173909805715,-9.992389095714316e-06,1.024474954647303e-06,3.435250255279243e-05
-9.034981485456228e-05,0.00014219256991054863,-2.7368253086024197e-06,5.060528110334417e-06,4.57580536021851e-05
-0.00013401363685261458,0.00010351224773330614,3.272359435868566e-06,8.147590051521547e-06,5.377416164265014e-05
-0.00017328764079138637,5.539485573535785e-05,9.326847248303238e-06,9.817509635468014e-06,4.847323361900635e-05
-0.00021031592041254044,2.637663965288084e-05,1.7497866792837158e-05,1.4697443475597538e-05,3.223913881811313e-05
-0.00019844950293190777,1.4099011423240881e-05,3.040686533495318e-05,2.1820018446305767e-05,1.7897844372782856e-05
-0.00013331780792213976,-6.813467280153418e-06,4.202995842206292e-05,3.197597834514454e-05,1.843568134063389e-05
-5.2313793275970966e-05,-2.7387961381464265e-05,4.297304985811934e-05,3.9797418139642105e-05,2.852628858818207e-05
1.7707432562019676e-05,-3.672483217087574e-05,2.6989075195160694e-05,3.8754791603423655e-05,3.5457091144053265e-05
7.289990753633901e-05,-3.1442676117876545e-05,1.6068081549747149e-06,3.732528057298623e-05,3.6701025237562135e-05
0.00011486875882837921,-9.491731361777056e-06,-1.1298267963866238e-05,3.95993520214688e-05,3.7053239793749526e-05
0.00012972582771908492,-1.4014561202202458e-05,-4.34190224041231e-06,8.425327905570157e-06,4.430342232808471e-05
0.00012654229067265987,-8.918474486563355e-05,5.810550192109076e-06,-4.717371484730393e-05,5.250031244941056e-05
0.00012103327026125044,-0.0001261298020835966,1.4049313904251903e-05,-3.102520349784754e-05,5.785983012174256e-05
0.00010686412133509293,-7.498649210901931e-05,1.8343345800531097e-05,2.395315641479101e-05,7.89473851909861e-05
7.944168464746326e-05,-7.55866858526133e-05,1.2961064385308418e-05,2.936175405920949e-05,0.00011913845082744956
2.8186599593027495e-05,-9.894905088003725e-05,7.208427632576786e-06,4.373295269033406e-06,0.00014234514674171805
-2.913849675678648e-05,-7.934524910524487e-05,6.878688054712256e-06,-2.2118138076621108e-05,0.00012826081365346909
-4.861695197178051e-05,-6.869981734780595e-05,5.9581893765425775e-06,-3.7522942875511944e-05,9.738484368426725e-05
-2.296885577379726e-05,-2.0497118384810165e-05,7.73934630160511e-07,-6.029145879438147e-05,7.090978033374995e-05
7.657669812033419e-06,0.00010671782365534455,-3.759528226510156e-06,-8.386681292904541e-05,6.233737803995609e-05
1.1687785445246845e-05,0.0002105586463585496,-4.61608033219818e-06,-8.571123908041045e-05,6.728844164172187e-05
-1.1643266589089762e-05,0.0002294524892931804,-5.848002729180735e-06,-6.53821334708482e-05,7.112070306902751e-05
-3.7896148569416255e-05,0.0001880942436400801,-1.011887889035279e-05,-4.275988612789661e-05,6.854676030343398e-05
-4.463420918909833e-05,0.0001367060176562518,-1.4308255231298972e-05,-2.7596033760346472e-05,6.275799387367442e-05
-4.9226171540794894e-05,8.545082528144121e-05,-1.3566115740104578e-05,-2.3840679205022752e-05,5.387741111917421e-05
-7.763210305711254e-05,3.907391510438174e-05,-8.34571346786106e-06,-3.0741332011530176e-05,3.881440716213547e-05
-0.00010462097998242825,1.820987745304592e-05,-2.180922137995367e-06,-3.593917426769622e-05,2.36266332649393e-05
-8.579686254961416e-05,2.3676904675085098e-05,1.2985421449229761e-07,-3.132628262392245e-05,2.0764873625012115e-05
-3.563786231097765e-05,3.120685869362205e-05,1.6832090068419348e-06,-1.457263897464145e-05,2.9244856705190614e-05
7.762540008116048e-06,1.578976480232086e-05,5.690116267942358e-06,1.8225875464850105e-05,3.845114042633213e-05
2.6854842872126028e-05,-3.877848484989954e-06,8.458826414425857e-06,6.960903556318954e-05,4.331924355938099e-05
1.97862354980316e-05,1.6337769920937717e-05,1.0131966519111302e-05,0.00010271528299199417,4.7513862227788195e-05
-8.382573469134513e-06,8.078542305156589e-05,1.835881448641885e-05,8.58661878737621e-05,5.854478877154179e-05
-3.921637107850984e-05,0.000128023762954399,2.9674680263269693e-05,3.1826977647142485e-05,7.473432924598455e-05
-6.710020534228534e-05,7.506793917855248e-05,3.319729512440972e-05,-1.7339587429887615e-05,9.227189002558589e-05
-0.00010854146239580587,-0.0001087006603484042,2.4861761630745605e-05,-4.226338569424115e-05,0.00010296610707882792
-0.00014647672651335597,-0.00022784121392760426,1.0404212844150607e-05,-3.9036996895447373e-05,0.00010393494449090213
-0.00016000107279978693,-0.00016227301966864616,7.289455425052438e-06,-2.109261004079599e-05,9.730715828482062e-05
-0.00017003703396767378,-6.902009772602469e-05,1.3543865861720406e-05,-2.863416966647492e-06,7.457653555320576e-05
-0.00017856655176728964,-5.402281749411486e-05,1.595346475369297e-05,7.620818905706983e-06,4.711253859568387e-05
-0.00015927381173241884,-4.4775813876185566e-05,1.6635025531286374e-05,1.6392801626352593e-05,3.663603638415225e-05
-9.638998744776472e-05,1.8197821191279218e-05,2.023409069806803e-05,2.398524884483777e-05,4.794902270077728e-05
-1.97523258975707e-05,7.682818977627903e-05,2.359775680815801e-05,2.5079531042138115e-05,6.903147004777566e-05
2.7242384021519683e-05,8.873635670170188e-05,2.004419184231665e-05,1.7485486750956625e-05,8.208485087379813e-05
4.7301069571403787e-05,8.841818635119125e-05,5.74080604565097e-06,-8.000423008525104e-07,8.389887807425112e-05
4.3797022954095155e-05,0.0001257845142390579,-6.038365427230019e-06,-1.1097703463747166e-05,7.595158240292221e-05
9.295891686633695e-06,0.00015600134793203324,-7.496655598515645e-06,1.167990285466658e-05,6.477691204054281e-05
-2.3561702619190328e-05,0.00014343134535010904,-5.852038611919852e-06,4.9366397433914244e-05,5.557200711336918e-05
-2.277108251291793e-05,0.00011260101018706337,-1.157383758254582e-05,4.09976091759745e-05,5.088772013550624e-05
4.388879006000934e-06,7.620445830980316e-05,-2.5328168703708798e-05,-1.8445603927830234e-05,5.031547334510833e-05
3.567465319065377e-05,4.081114457221702e-05,-3.569727414287627e-05,-7.912627916084602e-05,5.5242227972485125e-05
5.525846790987998e-05,1.06390052678762e-05,-3.211850344086997e-05,-0.0001082495364244096,6.032016972312704e-05
6.186134123709053e-05,-1.4136476238491014e-06,-1.896813409985043e-05,-9.983497147914022e-05,5.7940847909776494e-05
5.452704499475658e-05,-1.4256799659051467e-05,-7.77840796217788e-06,-6.624919478781521e-05,5.2584426157409325e-05
3.489320079097524e-05,-5.6998080253833905e-05,-2.3424056507792557e-06,-3.567858220776543e-05,5.1931707275798544e-05
2.1698500859201886e-05,-9.482444147579372e-05,-1.495573542342754e-06,-2.4485365429427475e-05,5.290195986162871e-05
3.411350189708173e-05,-5.034576679463498e-05,-2.989781478390796e-06,-2.635268356243614e-05,4.970052759745158e-05
4.7147386794677004e-05,6.261041562538594e-05,-5.00293117511319e-06,-3.100758112850599e-05,4.3000211007893085e-05
2.9923670808784664e-05,0.00014078864478506148,-4.08785945182899e-06,-3.265651685069315e-05,3.6100191209698096e-05
-6.010964170855004e-06,0.0001251869834959507,-8.628715022496181e-07,-2.9328530217753723e-05,3.4355798561591655e-05
-4.487839396460913e-05,6.683410902041942e-05,5.397718609856383e-07,-2.268339812872e-05,3.872795059578493e-05
-7.874345465097576e-05,3.0231261916924268e-05,2.439764102746267e-06,-1.732766759232618e-05,4.964105391991325e-05
-9.761092951521277e-05,-8.319499897879723e-07,8.239348971983418e-06,-1.7314836441073567e-05,5.9962552768411115e-05
-0.00010716905671870336,-4.286237162887119e-05,1.0470018423802685e-05,-1.8152733900933526e-05,6.354419747367501e-05
-0.00011638162686722353,-6.991461850702763e-05,1.0352537174185272e-05,-2.1232463041087613e-05,5.6493980082450435e-05
-0.00011666471982607618,-6.847194163128734e-05,1.045288172463188e-05,-2.5758632546057925e-05,4.6706281864317134e-05
-0.00010570678568910807,-2.395254523435142e-05,9.537588994135149e-06,-2.704133657971397e-05,4.461031858227216e-05
-8.827901910990477e-05,3.675659900181927e-05,5.59799445909448e-06,-2.1410985937109217e-05,4.6344332076841965e-05
-5.597235940513201e-05,6.658030906692147e-05,-1.5875082226557424e-06,-7.770069714752026e-06,4.932933006784879e-05
-1.9561566659831442e-05,0.00010958725033560768,-8.279349458462093e-06,5.63735397918208e-07,4.9750862672226503e-05
-1.8988827150678844e-06,0.00017203710740432143,-1.3727893929171842e-05,-6.561581813002704e-06,4.793197149410844e-05
-1.3932072761235759e-05,0.00018143361376132816,-1.618180249352008e-05,-2.0031369786011055e-05,4.887126124231145e-05
-4.118259676033631e-05,0.00015483619063161314,-1.2766732652380597e-05,-2.2767599148210138e-05,5.0871356506831944e-05
-6.489536463050172e-05,0.00015188030374702066,-3.6220487800164847e-06,-1.1015022209903691e-05,4.9367397878086194e-05
-8.962652646005154e-05,0.00018253365124110132,7.2721381911833305e-06,1.8720418211159995e-06,4.8758320190245286e-05
-0.00011467529111541808,0.00022262660786509514,1.5321289538405836e-05,9.476549394094036e-07,5.265145227895118e-05
-0.00012563314521685243,0.00025175767950713634,1.816179428715259e-05,-7.277892109414097e-06,5.681270340573974e-05
-0.00010184584971284494,0.0002603581815492362,1.7305485016549937e-05,-9.755261089594569e-06,6.340695836115628e-05
-4.501131479628384e-05,0.00021775506320409477,1.6757010598666966e-05,-8.43587622512132e-06,7.215230289148167e-05
2.9103144697728567e-05,7.339384319493547e-05,1.7941150872502476e-05,-1.5115469068405218e-05,7.904140511527658e-05
0.00010638665844453499,-0.00018758425721898675,1.757533027557656e-05,-3.114258652203716e-05,7.665284647373483e-05
0.0001570936437929049,-0.00043488541268743575,1.2197889191156719e-05,-3.8884321838850155e-05,6.486112397396937e-05
0.00014605518663302064,-0.0004486739926505834,4.657681984099327e-06,-2.7097952624899335e-05,4.924512541037984e-05
7.95193700469099e-05,-0.0001990708988159895,2.575196447196504e-07,-5.118075478094397e-06,3.8568534364458174e-05
3.8028485960239777e-06,5.7109547924483195e-05,1.216945520354784e-06,1.0117425517819356e-05,3.576144081307575e-05
-5.609768413705751e-05,0.00010252142965327948,6.79921731716604e-06,5.23592598256073e-06,3.6054898373549804e-05
-8.985251770354807e-05,1.1356633876857813e-05,1.023649292619666e-05,-2.017132101173047e-05,3.393841325305402e-05
-6.395019590854645e-05,-3.748216840904206e-05,5.761548891314305e-06,-5.221740502747707e-05,3.254672628827393e-05
2.3049726678436855e-06,-2.2836147763882764e-05,-4.046734375151573e-06,-7.506418478442356e-05,3.7267218431225047e-05
2.48432406806387e-05,-1.928798337758053e-05,-1.1691071449604351e-05,-7.166618888732046e-05,3.975190338678658e-05
-2.251223850180395e-05,6.987127108004643e-06,-1.3734056665271055e-05,-2.2779082428314723e-05,3.847681000479497e-05
-8.234415872721002e-05,9.500502346782014e-05,-9.416260581929237e-06,4.041005377075635e-05,4.183050259598531e-05
-0.00010561953240539879,0.00020118111569900066,7.521787779296574e-07,5.934838918619789e-05,5.4231037211138755e-05
-0.00011414608161430806,0.0002954785304609686,1.4084787835599855e-05,7.065853424137458e-05,7.517514313803986e-05
-0.00013706683239433914,0.00033738845377229154,2.3073298507370055e-05,9.56943113123998e-05,0.00010229583858745173
-0.00017829617718234658,0.0003095122519880533,2.542997208365705e-05,0.0001017157846945338,0.00011524783622007817
-0.0002354922326048836,0.00024215527810156345,2.499372021702584e-05,8.426619024248794e-05,0.00010092964657815173
-0.00026129765319637954,0.0001226496387971565,2.2663412892143242e-05,2.7175910872756504e-05,7.597708463435993e-05
-0.00022252548660617322,-5.011243047192693e-05,1.9688301108544692e-05,-2.4967046556412242e-05,5.449690797831863e-05
-0.0001476597535656765,-0.00015707206330262125,1.7826640032581054e-05,-4.735584298032336e-06,3.681993257487193e-05
-6.18616832070984e-05,-0.0001761112653184682,1.9536410036380403e-05,4.818262095795944e-05,3.131060293526389e-05
4.167349834460765e-05,-0.00023358684848062694,1.8587337763165124e-05,7.634671783307567e-05,3.9618662412976846e-05
0.0001475905446568504,-0.0003111788828391582,1.1550416274985764e-05,4.470363273867406e-05,5.137731568538584e-05
0.00022136954066809267,-0.0002439170057186857,2.52329323302547e-06,-4.5541553845396265e-05,5.9672169300029054e-05
0.00027457778924144804,-6.556836160598323e-05,-1.2488314951042412e-06,-0.0001158306622528471,6.747353472746909e-05
0.00031666760332882404,7.508397538913414e-05,2.510508693376323e-06,-0.00011588399502215907,7.783432374708354e-05
0.00032706899219192564,0.0001418401370756328,7.109105354174972e-06,-5.962016075500287e-05,8.429033914580941e-05
0.00027648668037727475,0.00017639592988416553,7.307021860469831e-06,1.3244092770037241e-05,7.808704685885459e-05
0.00016048652469180524,0.00017822235531639308,4.3342811295588035e-06,5.154093014425598e-05,6.300597306108102e-05
1.898541631817352e-05,0.0001224162260768935,1.812663754208188e-06,3.536140138749033e-05,5.102085924590938e-05
-8.386676927329972e-05,3.674364052130841e-05,-1.4320835362013895e-07,-2.6694024199969135e-06,5.105686796014197e-05
-0.0001229615299962461,-4.947570414515212e-05,-9.042602755471307e-07,-3.695401755976491e-05,5.93993318034336e-05
-0.00012439639249350876,-0.00012420160055626184,-6.968417096686608e-07,-7.300417928490788e-05,6.740512617398053e-05
-0.00011374269524822012,-0.00016676532686688006,-3.2965324407996377e-06,-0.00010680133709684014,6.9448709837161e-05
-0.00011659475421765819,-0.00015213341976050287,-8.772119144850876e-06,-0.00011136098328279331,6.350693729473278e-05
-0.00013652589404955506,-9.991054685087875e-05,-7.95282994658919e-06,-7.875630399212241e-05,5.8182322391076013e-05
-0.00015428151527885348,-1.5638490367564373e-05,1.5920255691526108e-06,-3.909379302058369e-05,5.905556463403627e-05
-0.00017670533270575106,8.094173244899139e-05,1.0542441486904863e-05,-2.601604865049012e-05,6.288809527177364e-05
-0.00021391184418462217,0.00016321876319125295,1.5599436665070243e-05,-3.2558378734393045e-05,6.579849286936224e-05
-0.00025730402558110654,0.0002321344509255141,1.9414703274378553e-05,-2.0849229258601554e-05,7.129717414500192e-05
-0.0002563913876656443,0.0002457645896356553,2.2846053980174474e-05,1.1212410754524171e-05,8.308504766318947e-05
-0.00018625639495439827,0.00010064135130960494,2.7615653380053118e-05,1.9577582861529663e-05,9.425727330381051e-05
-8.65748297655955e-05,-0.00010105396358994767,3.014846697624307e-05,5.2027544370503165e-06,9.830839553615078e-05
6.4697569541749544e-06,-0.0001370151003357023,3.0371158572961576e-05,-1.5886849951129989e-06,0.00010216232476523146
6.080929233576171e-05,-6.394665979314595e-05,2.6164665541728027e-05,-5.666715878760442e-06,0.0001069826539605856
9.644300735089928e-05,-4.652504503610544e-05,1.631827217352111e-05,-7.0584346758550964e-06,0.00010955421021208167
0.0001343963813269511,-3.873246896546334e-05,4.2563774513837416e-06,-1.8903165255323984e-05,0.00010414676944492385
0.00016582761600147933,3.4799832064891234e-05,-1.9587159840739332e-06,-4.2031224438687786e-05,9.195993334287778e-05
0.00018605799414217472,0.00011980487033724785,-2.312349124622415e-06,-5.281217454466969e-05,7.905365782789886e-05
0.0001914365857373923,0.00013279910490382463,-2.6807742870005313e-06,-4.019066909677349e-05,6.840744754299521e-05
0.00016170636808965355,7.74244763306342e-05,-2.730924961724668e-06,-2.726522097873385e-06,5.964511365164071e-05
9.368157770950347e-05,-8.932883019951987e-07,-2.816629375956836e-06,4.3533971620490775e-05,5.051401603850536e-05
1.6922274880926125e-05,-7.589829328935593e-05,-6.104534691075969e-07,6.714177288813516e-05,4.149435699218884e-05
-4.811821418115869e-05,-0.00012987481022719294,2.6159864319197368e-06,6.100169048295356e-05,3.313662455184385e-05
-8.600811270298436e-05,-0.00012216302275191993,4.229546902934089e-06,4.2645380744943395e-05,2.7700296413968317e-05
-7.245240703923628e-05,-4.7372333938255906e-05,2.4237822344730375e-06,2.2305541278910823e-05,2.9358778192545287e-05
-6.182953256939072e-06,-6.990016572672175e-06,3.3670914945105324e-07,1.289315059693763e-05,3.841528086923063e-05
7.955131877679378e-05,-4.289733260520734e-05,3.682954741179856e-07,2.238526940345764e-05,4.889176489086822e-05
0.00015504955081269145,-7.015162555035204e-05,4.864912170887692e-06,2.4990877136588097e-05,5.6637934903847054e-05
0.00018873375665862113,-1.3600170859717764e-05,1.2957111721334513e-05,2.2316580725600943e-06,5.9295773098710924e-05
0.000152839464135468,0.00010553914034971967,2.1964260668028146e-05,-1.1343902770022396e-05,5.517395038623363e-05
4.683625229517929e-05,0.00020030848099850118,2.790095823002048e-05,-9.17394118005177e-06,4.5019929530099034e-05
-6.641145591856912e-05,0.00020427722483873367,2.905367364292033e-05,-4.141217141295783e-05,3.971032128902152e-05
-8.62494925968349e-05,0.00012029230856569484,2.7609941753325984e-05,-9.814592340262607e-05,4.49141844001133e-05
-3.122416092082858e-05,-3.339696661441849e-07,2.4332308385055512e-05,-0.00010805881174746901,5.062714626546949e-05
-3.466030102572404e-05,-4.150335371377878e-05,2.5598697902751155e-05,-6.664535612799227e-05,4.76233872177545e-05
-0.000144640653161332,1.864781734184362e-05,2.983281774504576e-05,-4.879941116087139e-06,3.7566747778328136e-05
-0.00023875724582467228,0.0001262489822693169,2.8543385269585997e-05,4.0504313801648095e-05,3.188960545230657e-05
-0.0002463304263073951,0.00022012813133187592,2.7957894417340867e-05,5.211772077018395e-05,3.47195818903856e-05
-0.00021980564633850008,0.0002384489489486441,2.6878917196881957e-05,2.96900743705919e-05,3.8518523069797084e-05
-0.00017842021770775318,0.00016617562505416572,1.676286592555698e-05,-3.662054587039165e-05,4.0938364691101015e-05
-0.00012558566231746227,5.438477819552645e-05,6.967050012463005e-06,-8.953902579378337e-05,4.2236537410644814e-05
-4.936205368721858e-05,-5.130379122419981e-06,7.894267582742032e-06,-8.339386840816587e-05,4.852324491366744e-05
1.5391424312838353e-05,5.1918705139542e-06,1.2698502359853592e-05,-4.845742660108954e-05,6.461199518525973e-05
5.5041084124241024e-05,5.124434028402902e-05,1.3063901860732585e-05,-2.475999826856423e-05,8.610346412751824e-05
7.943750824779272e-05,8.793263259576634e-05,7.396979526674841e-06,-1.5603445717715658e-05,0.0001022111318889074
8.065308793447912e-05,5.8721670939121395e-05,1.8107107280229684e-07,-9.38766334002139e-06,0.00010530435247346759
4.942902523907833e-05,-4.268764314474538e-05,-3.6373194234329276e-06,-3.365560132806422e-06,9.223726374329999e-05
-1.0847712474060245e-05,-0.0001048516933224164,-7.049149189697346e-06,-3.9114215724112e-06,6.632650911342353e-05
-8.037975203478709e-05,-4.264618837623857e-05,-9.890628462017048e-06,-7.792405085638165e-06,4.209515464026481e-05
-0.00015692149463575333,7.926878606667742e-05,-8.494304893247318e-06,-8.164350219885819e-06,3.090157042606734e-05
-0.00022070761770009995,0.0001615482906345278,-3.022887824499776e-07,-4.103056653548265e-06,3.4083215723512694e-05
-0.00023162680736277252,0.00019036394951399416,1.0086284419230651e-05,5.599290034297155e-06,4.359620652394369e-05
-0.00018605272634886205,0.00020023503748234361,1.705854811007157e-05,1.5606115994160064e-05,5.142056761542335e-05
-0.00013731603394262493,0.0002022090629907325,1.8526461644796655e-05,1.627200072107371e-05,5.618356590275653e-05
-0.0001131591634475626,0.0001945773692568764,1.7915557691594586e-05,1.425336904503638e-06,5.517148747458123e-05
-0.00011053488560719416,0.0001773377152858302,1.8077953427564353e-05,-2.2936726963962428e-05,4.529346551862545e-05
-0.00011331754649290815,0.00013168631994631141,1.7271479009650648e-05,-4.119066579733044e-05,3.3154195989482105e-05
-0.00010331589874112979,7.112863841030048e-06,1.2367241652100347e-05,-3.6199977330397815e-05,2.7566877179197036e-05
-6.710693560307845e-05,-0.00017967539315577596,3.7964930470479885e-06,-1.0749340617621783e-05,2.71825774689205e-05
-2.8216409191372804e-05,-0.00026403999072499573,-4.22010816691909e-06,2.0156734535703436e-05,3.052619285881519e-05
-4.546014679362997e-06,-0.0001872468856163323,-7.628456842212472e-06,2.200740527769085e-05,3.947962250094861e-05
1.731569500407204e-05,-9.536120342090726e-05,-6.237487468752079e-06,7.339664534811163e-06,5.06529031554237e-05
4.05364298785571e-05,-5.911127300350927e-05,-5.593152309302241e-06,2.3189901185105555e-05,5.918017268413678e-05
2.6595951567287557e-05,-4.749290746985935e-05,-1.1605424333538394e-05,4.8032823542598635e-05,6.07415204285644e-05
-2.7748614229494706e-05,-6.519867747556418e-05,-1.5869769413257018e-05,4.443152283784002e-05,6.231145380297676e-05
-7.707978511461988e-05,-0.0001380938192596659,-7.314051345019834e-06,1.954446815943811e-05,6.40537473373115e-05
-8.987929322756827e-05,-0.00022077055473346263,1.0973762982757762e-06,-4.983836333849467e-06,6.646219117101282e-05
-6.337020749924704e-05,-0.00024389552709180862,1.3934011349192588e-06,-2.584900357760489e-05,7.767460192553699e-05
-3.8247213524300605e-05,-0.00019994315516669303,-1.7553925317770336e-06,-4.134620030527003e-05,9.27812943700701e-05
-4.354033080744557e-05,-0.00013472406135406345,-3.4175066048192093e-06,-4.876160164712928e-05,9.499614679953083e-05
-4.232412902638316e-05,-7.539363286923617e-05,-1.000799898065452e-06,-5.264436549623497e-05,8.917338709579781e-05
9.505585694569163e-06,-2.106254396494478e-05,2.110471768901334e-06,-5.203616456128657e-05,8.959622937254608e-05
8.300824265461415e-05,3.912015745299868e-05,1.4224356164049823e-06,-3.8410817069234326e-05,8.636918209958822e-05
0.0001334466942353174,0.00013222283450886607,-4.717395313491579e-06,-1.9492947103572078e-05,7.601943070767447e-05
0.00015472242375835776,0.00025390382506884634,-1.2092296856280882e-05,-8.61342778080143e-06,6.922455213498324e-05
0.00014919084787834436,0.00035102959373034537,-1.712943776510656e-05,-1.8584833014756441e-06,7.29547391529195e-05
9.848443005466834e-05,0.0003599519550334662,-1.615117071196437e-05,-3.992278152509243e-07,7.619379903189838e-05
1.681256981100887e-05,0.0003016197879333049,-1.1004727639374323e-05,-1.0965268302243203e-05,7.057627954054624e-05
-4.826370786759071e-05,0.00022707167954649776,-8.166530278685968e-06,-2.5447303414694034e-05,5.9155470808036625e-05
-6.366016168612987e-05,0.0001433711440768093,-7.521432053181343e-06,-2.82069158856757e-05,4.6529028622899204e-05
-3.118380482192151e-05,6.24148451606743e-05,-7.647137863386888e-06,-1.787654764484614e-05,3.72461618098896e-05
2.2948874175199308e-05,2.0080104150110856e-05,-8.58812654769281e-06,-5.144618171470938e-06,3.639557689893991e-05
7.141494279494509e-05,1.9551856894395314e-05,-6.587795269297203e-06,-1.4636637502007943e-07,4.51788873760961e-05
9.346387378172949e-05,4.403918865136802e-05,-3.609162604334415e-07,1.6280176851068973e-06,5.9381934988778085e-05
7.85792144597508e-05,7.634631037944928e-05,7.669731530768331e-06,1.677992804616224e-05,6.850009958725423e-05
3.5406828828854486e-05,9.724437404656783e-05,1.5750169040984474e-05,3.588365143514238e-05,7.152851321734488e-05
-9.819324986892752e-06,0.00010083730012411252,1.9104714738205075e-05,3.219265636289492e-05,7.775834819767624e-05
-3.0183533453964628e-05,0.00010718982957769185,1.8300896044820547e-05,1.248985790880397e-05,8.23324007797055e-05
-1.5565363355563022e-05,8.982474537333474e-05,1.5481440641451627e-05,-1.383577455271734e-05,7.999283116078004e-05
3.838583506876603e-05,-2.9179800549172796e-05,9.334208698419388e-06,-4.107063796254806e-05,7.689221820328385e-05
6.904916517669335e-05,-0.00016348520875908434,2.9577854547824245e-06,-3.594841473386623e-05,7.409646059386432e-05
