-2.3251897800946608e-05,2.1123765691299923e-05,-6.498912625829689e-06,-1.2592930943355896e-05,6.382126593962312e-05
-2.4187800590880215e-05,1.3850919458491262e-05,-9.44355360843474e-06,-1.3106856386002619e-05,6.347182352328673e-05
-2.2869437088957056e-05,1.537045136501547e-05,-8.225225428759586e-06,-1.4722686501045246e-05,6.157835014164448e-05
-2.1468573322636075e-05,2.2736270693712868e-05,-6.2125150179781485e-06,-1.395293656969443e-05,6.188244151417166e-05
-2.386260348430369e-05,2.5909490432241e-05,-1.3922295920565375e-06,-1.2240739124536049e-05,6.422919250326231e-05
-2.6200388674624264e-05,2.7111762392451055e-05,2.460652694935561e-06,-1.1400421499274671e-05,6.505685450974852e-05
-2.2999249267741106e-05,3.182639920851216e-05,2.4854391540429788e-06,-9.470159966440406e-06,6.471819506259635e-05
-1.6008305465220474e-05,3.8347534427884966e-05,7.283905233634869e-06,-6.663800377282314e-06,6.540461617987603e-05
-1.4833524801360909e-05,4.429005639394745e-05,1.548900945635978e-05,-6.514391316159163e-06,6.897536513861269e-05
-1.4835186448181048e-05,5.156227052793838e-05,1.891444480861537e-05,-7.65266395319486e-06,6.856487016193569e-05
-1.4837192793493159e-05,5.1958500989712775e-05,1.8366194126429036e-05,-8.997071745397989e-06,6.34479001746513e-05
-1.3347889762371778e-05,4.574696868075989e-05,1.8148904928239062e-05,-6.658656275249086e-06,6.25245229457505e-05
-8.911082659324165e-06,3.959303649025969e-05,1.797011645976454e-05,-3.482483862171648e-06,6.894396210554987e-05
-2.058162635876215e-06,3.843929152935743e-05,1.6432517440989614e-05,-4.568717031361302e-06,7.33676934032701e-05
1.5315981727326289e-06,3.834580274997279e-05,1.4819170246482827e-05,-6.302966539806221e-06,7.173687481554225e-05
-7.549794389660747e-08,3.521776307024993e-05,1.3824178495269734e-05,-5.172124929231359e-06,6.797790410928428e-05
-3.970179022871889e-06,2.855255843314808e-05,1.1951108717767056e-05,-3.5119883250445127e-06,6.774741632398218e-05
-7.984146577655338e-06,2.140354445145931e-05,9.527672773401719e-06,-5.255851647234522e-06,6.970438698772341e-05
-1.0658140126906801e-05,1.7849893993115984e-05,5.824217623739969e-06,-8.162768608599436e-06,7.242142601171508e-05
-1.860890733951237e-05,1.9559040083549917e-05,3.270224055995641e-07,-1.0142282917513512e-05,7.440207264153287e-05
-3.579535405151546e-05,2.1947822460788302e-05,-6.373094493028475e-06,-8.965354936663061e-06,7.559982623206452e-05
-5.150954893906601e-05,2.2078025722294115e-05,-1.2745366802846547e-05,-6.417260919988621e-06,7.660016126465052e-05
-5.065987352281809e-05,2.116559335263446e-05,-1.3048897926637437e-05,-8.629593139630742e-06,7.439831824740395e-05
-3.969166209571995e-05,1.6056506865425035e-05,-6.756205493729794e-06,-1.2377899111015722e-05,7.143297989387065e-05
-2.7468973712529987e-05,1.621852607058827e-05,-2.15020577343239e-06,-1.2365181646600831e-05,6.892707460792735e-05
-1.9141243683407083e-05,2.5609675503801554e-05,-8.43796044591727e-07,-1.155588779511163e-05,6.969846435822546e-05
-1.4126739188213833e-05,3.3234930015169084e-05,1.0653617010802918e-07,-1.2232098015374504e-05,7.398491288768128e-05
-9.15858709049644e-06,3.585833837860264e-05,-1.4859793964205892e-06,-1.3437856068776455e-05,7.814585842425004e-05
-9.458581189392135e-06,3.625556200859137e-05,-5.77121090827859e-06,-1.2043014066875912e-05,7.634361099917442e-05
-1.2407146641635336e-05,3.49074398400262e-05,-1.1188909411430359e-05,-1.2619972039829008e-05,7.368980004685e-05
-1.2770529792760499e-05,3.391555947018787e-05,-1.1962137250520755e-05,-1.2886859622085467e-05,7.430852565448731e-05
-1.5000141502241604e-05,3.2985688449116424e-05,-3.403464461371186e-06,-1.136604078055825e-05,7.33759516151622e-05
-1.3839230632584076e-05,3.568447573343292e-05,1.1031941085093422e-06,-1.2300847629376221e-05,7.217717939056456e-05
-6.855624178569997e-06,4.4873559090774506e-05,-3.32206514030986e-06,-8.769046871748287e-06,7.408003875752911e-05
-2.146638507838361e-06,5.0217884563608095e-05,-8.418762263318058e-06,-2.3055442852637498e-06,7.493497105315328e-05
-4.9050072448153514e-06,4.7492008889093995e-05,-8.296579835587181e-06,3.4162061979259306e-07,7.034894224489108e-05
-1.1565770364541095e-05,4.363146217656322e-05,-4.447386345418636e-06,2.3689199224463664e-07,6.070700328564271e-05
-1.7127198589150794e-05,4.2304323869757354e-05,2.836597332134261e-06,-6.711081823596032e-07,5.335945752449334e-05
-1.8720988009590656e-05,4.1247647459385917e-05,9.372189197165426e-06,-4.337627615313977e-06,5.293023059493862e-05
-1.9355622498551384e-05,3.902558091795072e-05,9.792904165806249e-06,-7.817490768502466e-06,5.598302959697321e-05
-2.2565776816918515e-05,3.3088072086684406e-05,4.340755822340725e-06,-7.589193046442233e-06,5.90960007684771e-05
-2.897213380492758e-05,2.1832924176123925e-05,4.0037343751464505e-07,-4.616914793587057e-06,5.975649764877744e-05
-3.6349647416500375e-05,7.800019375281408e-06,2.5524882403260563e-06,-3.2965342597890412e-06,5.7084005675278604e-05
-4.6013883547857404e-05,-5.590815817413386e-06,4.7859289225016255e-06,-4.835611889575375e-06,5.333819717634469e-05
-5.4071395425125957e-05,-1.6359992514480837e-05,4.309515588829527e-06,-8.221232747018803e-06,4.9544425564818084e-05
-5.465406138682738e-05,-2.395808587607462e-05,3.824713985522976e-06,-1.1373936104064342e-05,4.759010698762722e-05
-4.8877831432037055e-05,-3.0546092602889985e-05,6.360714905895293e-06,-1.1733535757230129e-05,4.997365613235161e-05
-4.6046719944570214e-05,-3.506295252009295e-05,7.469728188880254e-06,-1.007243281492265e-05,5.070627958048135e-05
-5.317972318152897e-05,-2.8346827093628235e-05,6.2486392380378675e-06,-1.0827468031493481e-05,4.571997851599008e-05
-6.420449790311977e-05,-1.2745014828396961e-05,3.743603429029463e-06,-1.3453870451485272e-05,3.9576509152539074e-05
-7.341397576965392e-05,6.027714789524907e-07,2.7447606498753885e-06,-1.2628671356651466e-05,4.2038918763864785e-05
-7.079205533955246e-05,1.0123806532646995e-05,1.4077467085371609e-06,-1.2247395716258325e-05,4.8202844482148066e-05
-5.458090527099557e-05,2.2022002667654306e-05,-4.3379054659453686e-07,-1.218073066411307e-05,5.03576775372494e-05
-3.92361034755595e-05,3.5677687264978886e-05,-1.8181517589255236e-06,-7.01731505614589e-06,4.9713584303390235e-05
-3.290494350949302e-05,4.4264372263569385e-05,-9.927464816428255e-06,-2.959332277896465e-06,5.0199796532979235e-05
-2.8118844056734815e-05,5.547943146666512e-05,-1.979996159207076e-05,-7.498395007132785e-06,5.330155181582086e-05
-1.737706952553708e-05,7.345718768192455e-05,-2.0711266188300215e-05,-1.905518729472533e-05,5.415831401478499e-05
-1.074150873137114e-06,9.145117655862123e-05,-1.1088503924838733e-05,-2.147971281374339e-05,5.575586692430079e-05
1.375722058583051e-05,0.00010817005386343226,2.340831542824162e-06,-1.4082997950026765e-05,5.7623718021204695e-05
2.0559267795761116e-05,9.882644371828064e-05,7.698732588323765e-06,-1.0647834642441012e-05,5.7208169891964644e-05
2.270408731419593e-05,6.090075839892961e-05,8.354995770787355e-06,-9.529880117042921e-06,5.570344001171179e-05
2.2274951334111392e-05,3.299922900623642e-05,8.859135050443001e-06,-1.074404462997336e-05,5.327330291038379e-05
1.1882111721206456e-05,3.228408968425356e-05,1.1479827662697062e-05,-1.2245744073879905e-05,5.004740887670778e-05
-2.5395590910193278e-06,4.942431041854434e-05,1.6346806660294533e-05,-1.4730954717379063e-05,4.7277881094487384e-05
-1.622981289983727e-05,5.868055814062245e-05,1.9378097931621596e-05,-1.5977197108441032e-05,4.628077658708207e-05
-2.9382108550635166e-05,5.361842704587616e-05,2.035183206317015e-05,-1.659814552112948e-05,4.858871761825867e-05
-3.862537778331898e-05,4.7610657929908484e-05,1.9802315364358947e-05,-1.6376316125388257e-05,5.213475742493756e-05
-3.713692422024906e-05,4.6686840505572036e-05,1.797819641069509e-05,-1.2843475815316197e-05,5.446848808787763e-05
-3.379875124664977e-05,4.673702278523706e-05,1.5322109902626835e-05,-9.012218470161315e-06,5.425979907158762e-05
-3.918036600225605e-05,4.149517189944163e-05,1.3320393009053078e-05,-9.68847507465398e-06,5.238805169938132e-05
-4.78251968161203e-05,2.8020307581755333e-05,1.2625248928088695e-05,-1.349756075796904e-05,5.236773722572252e-05
-5.036108268541284e-05,9.522464097244665e-06,1.1610193723754492e-05,-1.357975725113647e-05,5.451594552141614e-05
-4.617026206688024e-05,-2.9384768822637852e-06,8.309554687002674e-06,-1.1694652130245231e-05,5.679669266100973e-05
-4.0764152799965814e-05,-8.070038347796071e-06,7.86648797657108e-06,-1.1159385394421406e-05,5.9321817388990894e-05
-3.651900988188572e-05,-7.2091506808646955e-06,9.450353900319897e-06,-1.1416684174037073e-05,6.281340756686404e-05
-2.9426952096400782e-05,4.265844836481847e-06,8.798487215244677e-06,-9.902414603857324e-06,6.30391004960984e-05
-1.539598270028364e-05,1.978912223421503e-05,9.312393558502663e-06,-8.72105829330394e-06,6.121645856183022e-05
-5.881250217498746e-06,2.569771822891198e-05,1.4456538337981328e-05,-8.762898687564302e-06,6.098286030464806e-05
-3.1362783374788705e-06,3.0121413146844134e-05,1.6111340300994925e-05,-1.1142878065584227e-05,6.352284253807738e-05
-3.7862275803490775e-06,3.8753678381908685e-05,1.0094089702761266e-05,-1.2113035154470708e-05,6.614605081267655e-05
-1.4833629393251613e-05,3.161489075864665e-05,2.871491005862481e-06,-1.3629375644086394e-05,6.86163839418441e-05
-3.448289862717502e-05,3.1334552659245674e-06,-3.854034957839758e-07,-1.9946361135225743e-05,6.669332651654258e-05
-4.68164034828078e-05,-1.3102700904710218e-05,-5.777483238489367e-07,-2.3149108528741635e-05,6.316931103356183e-05
-5.3286108595784754e-05,-5.426930329122115e-06,-2.060019141936209e-06,-2.1211040802882053e-05,5.8117322623729706e-05
-5.532473005587235e-05,-9.386999977323285e-07,-4.77705634693848e-06,-2.2694199287798256e-05,5.399218571255915e-05
-5.549491834244691e-05,-5.474375484482152e-06,-4.801446721103275e-06,-2.5836308850557543e-05,5.657923611579463e-05
-6.0593330999836326e-05,-5.3297108024707995e-06,-2.5120580176007934e-06,-2.5859651941573247e-05,6.056362690287642e-05
-5.715164661523886e-05,5.211849384068046e-06,-8.972499472292839e-07,-2.4105896955006756e-05,6.537347508128732e-05
-4.437224197317846e-05,1.4568096048606094e-05,2.313129471076536e-06,-1.7009884686558507e-05,6.730323366355151e-05
-3.271032255725004e-05,2.022818625846412e-05,5.856143616256304e-06,-9.783135283214506e-06,6.767702871002257e-05
-2.4034749003476463e-05,2.558069900260307e-05,7.258750429173233e-06,-6.0303973441477865e-06,6.493233377113938e-05
-2.3675447664572857e-05,2.9162141800043173e-05,6.1241298681125045e-06,-4.385912234283751e-06,5.992059232085012e-05
-2.9365024602157064e-05,3.518977973726578e-05,6.670858965662774e-06,-6.171858785819495e-06,5.5511471146019176e-05
-3.080810347455554e-05,4.8805053666001186e-05,1.0413170457468368e-05,-1.0069613381347153e-05,5.3982072131475434e-05
-2.543230220908299e-05,6.572491111001e-05,1.0855798791453708e-05,-1.5196142157947179e-05,5.637537469738163e-05
-2.092786417051684e-05,7.584365812363103e-05,6.386583208950469e-06,-1.9569992218748666e-05,5.8384553994983435e-05
-2.12062423088355e-05,7.354032277362421e-05,2.1034355768279056e-07,-2.310316813236568e-05,5.778960621682927e-05
-2.3406322725350037e-05,6.39625359326601e-05,-1.2472869457269553e-06,-2.4035693058976904e-05,5.5597607570234686e-05
-2.510151534806937e-05,5.6204084103228524e-05,4.1684452298795804e-06,-2.0635783585021272e-05,5.165598849998787e-05
-2.380478326813318e-05,5.060808325652033e-05,9.212073564413004e-06,-1.6017551388358697e-05,4.7663794248364866e-05
-2.011558535741642e-05,4.6089811803540215e-05,9.652944754634518e-06,-1.3165292330086231e-05,4.75572123832535e-05
-1.967187927220948e-05,4.05686441808939e-05,9.7882621048484e-06,-1.0295261745341122e-05,5.102192881167866e-05
-2.3000788132776506e-05,3.461278902250342e-05,1.087699183699442e-05,-7.509078841394512e-06,5.628890357911587e-05
-2.7122165192849934e-05,3.225428008590825e-05,1.1043537597288378e-05,-7.789886694808956e-06,5.92628784943372e-05
-2.895496436394751e-05,2.988351661770139e-05,1.162326861958718e-05,-6.1239616115926765e-06,5.752747165388428e-05
-2.7983125619357452e-05,2.6505131245357916e-05,1.2523327313829213e-05,-1.0906754823736264e-06,5.354570021154359e-05
-2.41383404500084e-05,2.6913003239315003e-05,1.2448381312424317e-05,4.1493231606182235e-07,5.356929250410758e-05
-2.295874583069235e-05,3.180326893925667e-05,1.3947534171165898e-05,8.821151027404994e-07,5.82034517719876e-05
-2.624628905323334e-05,3.86575011361856e-05,1.6247528037638403e-05,1.1224748277527397e-06,6.293911428656429e-05
-3.0291403163573705e-05,3.42147504852619e-05,1.882361902971752e-05,2.5602664663892938e-06,6.630503048654646e-05
-3.154287696816027e-05,2.269236938445829e-05,1.7714382920530625e-05,3.6102048852626467e-06,6.628785922657698e-05
-2.7052346922573633e-05,2.4532839233870618e-05,1.5737232388346456e-05,3.1150805170909734e-06,6.367759488057345e-05
-2.456918991811108e-05,3.9496862882515416e-05,1.5474359315703623e-05,4.295621238270542e-06,6.56991614960134e-05
-2.690627661650069e-05,4.636960875359364e-05,1.1616541996772867e-05,5.212396899878513e-06,7.230400660773739e-05
-3.483006730675697e-05,4.673638613894582e-05,7.787538379488979e-06,6.768867478967877e-06,7.402250048471615e-05
-4.1685489122755826e-05,4.8967984184855595e-05,1.0445302905282006e-05,9.549810783937573e-06,6.640306673943996e-05
-4.7193992941174656e-05,5.2589781262213364e-05,1.69984414242208e-05,1.4765219020773657e-05,5.864792183274403e-05
-5.23578237334732e-05,5.5651686125202104e-05,1.8694932805374265e-05,2.1232121071079746e-05,5.500094994204119e-05
-5.606970444205217e-05,5.145387694938108e-05,1.59525570779806e-05,2.7610956749413162e-05,5.240657992544584e-05
-5.3169023885857314e-05,4.758387876790948e-05,9.5580326160416e-06,2.9838018235750496e-05,4.891039861831814e-05
-4.409765460877679e-05,4.797764268005267e-05,2.5001315862027695e-06,2.7665246307151392e-05,4.940689541399479e-05
-3.4391923691146076e-05,4.6383585868170485e-05,-3.3957560390263097e-06,2.5749433916644193e-05,5.426374264061451e-05
-2.5220839233952574e-05,2.7521338779479265e-05,-6.349023351504002e-06,2.7345735361450352e-05,5.6771743402350694e-05
-1.9197550500393845e-05,-1.2759473065671045e-05,-6.26967312200577e-06,2.3034193873172626e-05,5.553017035708763e-05
-1.5484047253266908e-05,-6.498290167655796e-05,-4.403358161653159e-06,4.29252713729511e-06,5.478753155330196e-05
-1.0475116141606122e-05,-0.00010571062739472836,5.142764507581887e-07,-2.41509096667869e-05,5.670282553182915e-05
-4.344096851127688e-06,-0.00010878614557441324,5.644228167511756e-06,-4.7908444685162976e-05,5.9250363847240806e-05
-2.4238108835561434e-06,-7.553543400717899e-05,7.031889708741801e-06,-5.3127681894693524e-05,6.154533912194893e-05
1.2667188684645225e-06,-4.1505783883621916e-05,3.799008482019417e-06,-4.383854320622049e-05,6.367963214870542e-05
1.1134919986943714e-05,-2.7733423848985694e-05,-2.858713514797273e-06,-3.320442556287162e-05,6.813967047492042e-05
2.47883508563973e-05,-1.7434125766158104e-05,-1.2293084182601888e-05,-2.7688600312103517e-05,7.191015902208164e-05
3.133591599180363e-05,4.140013516007457e-06,-2.2620099116466008e-05,-2.5394527256139554e-05,7.124978583306074e-05
3.0017927201697603e-05,3.073767220485024e-05,-3.0023325962247327e-05,-2.153683999495115e-05,6.511239189421758e-05
3.209038186469115e-05,5.337970651453361e-05,-2.862648580048699e-05,-1.5051570699142758e-05,5.6947592383949086e-05
3.359097536304034e-05,6.772072083549574e-05,-1.8168444512411952e-05,-1.173320833913749e-05,5.093398431199603e-05
2.3457390852854587e-05,7.712438673479483e-05,-5.887065526621882e-06,-1.3475926607497968e-05,4.876029197475873e-05
4.183345481578726e-06,8.218474977184087e-05,6.621519901273132e-07,-1.7334708900307305e-05,4.971094676875509e-05
-1.13940241135424e-05,8.102146966848522e-05,2.414167511233245e-06,-1.829073517001234e-05,5.1292845455463976e-05
-1.3200452485762071e-05,8.452055044472218e-05,6.103965006332146e-06,-1.5166016055445652e-05,5.285725274006836e-05
-1.1678511327772867e-05,8.571795478928834e-05,1.275781323784031e-05,-1.1278328202024568e-05,5.6034386943792924e-05
-1.7340884369332343e-05,7.748684583930299e-05,1.7341146303806454e-05,-8.862497452355456e-06,5.847727879881859e-05
-2.1641562852892093e-05,5.876725845155306e-05,1.566674472996965e-05,-7.239881597342901e-06,5.848766886629164e-05
-2.0519086319836788e-05,3.6087607441004366e-05,1.2072593563061673e-05,-4.3051063585153315e-06,5.540521306102164e-05
-2.14142601180356e-05,2.3410604626405984e-05,1.1505147085699718e-05,-2.8765739443770144e-06,5.190237789065577e-05
-2.626040622999426e-05,2.6449883080204017e-05,1.2904629329568706e-05,-6.209885668795323e-06,5.027532824897207e-05
-3.113542697974481e-05,3.422170630074106e-05,1.5997831724234857e-05,-7.379138423857512e-06,5.037582741351798e-05
-2.985945320688188e-05,3.757434751605615e-05,1.680992318142671e-05,-4.233141225995496e-06,5.208103539189324e-05
-2.3555274310638197e-05,3.6709061532747e-05,1.253064056072617e-05,-3.971424575865967e-06,5.321943899616599e-05
-2.021308864641469e-05,2.8776014005416073e-05,8.635207450424787e-06,-7.189408734120661e-06,5.468499512062408e-05
-2.131918336090166e-05,1.6413434423157014e-05,9.568885616317857e-06,-8.632965545984916e-06,5.6970198784256354e-05
-2.4453504011034966e-05,1.1540017112565693e-05,1.0420282706036232e-05,-6.430214398278622e-06,5.641895404551178e-05
-2.7587564545683563e-05,1.5246707334881648e-05,4.5501560634875204e-06,-2.138080844815704e-06,5.334292654879391e-05
-3.069928425247781e-05,1.7119566109613515e-05,-5.17668104293989e-06,-2.602573943022435e-07,5.1459028327371925e-05
-3.131351695628837e-05,1.799466372176539e-05,-1.054270614986308e-05,-3.676119149531587e-06,5.344759119907394e-05
-2.8421754905139096e-05,2.0207417037454434e-05,-9.154891813523136e-06,-7.790094969095662e-06,5.649252125294879e-05
-2.788823258015327e-05,2.095715535688214e-05,-4.5485294322133996e-06,-9.226186193700414e-06,5.746955503127538e-05
-3.2467050914419815e-05,1.9426570361247286e-05,-2.0313289041951066e-06,-7.105658824002603e-06,5.7293356803711504e-05
-3.5925942938774824e-05,1.6797484931885265e-05,-2.8111574010836193e-06,-5.570837402046891e-06,5.808472269563936e-05
-4.110643931198865e-05,1.0529975043027662e-05,-6.13786653502757e-07,-7.5950351856590714e-06,6.258262146729976e-05
-4.3472988181747496e-05,7.0038458943599835e-06,5.481850621436024e-06,-7.4037047852471005e-06,6.37416378594935e-05
-3.139616455882788e-05,7.814829587005079e-06,1.2950767995789647e-05,-6.347494945657672e-06,5.8484627516008914e-05
-2.0470539311645553e-05,8.896099643607158e-06,2.0694362319773063e-05,-5.787147074443055e-06,5.1796796469716355e-05
-2.909041904786136e-05,1.207071454700781e-05,2.4986495191114955e-05,-5.345234512788011e-06,4.812210681848228e-05
-4.36795708083082e-05,1.7424999896320514e-05,2.5612403987906873e-05,-6.781469437555643e-06,5.1773578888969496e-05
-5.0348691729595885e-05,2.8346703402348794e-05,2.3028704163152725e-05,-9.336437869933434e-06,5.491684714797884e-05
-4.834982973989099e-05,3.635667962953448e-05,1.8424880181555636e-05,-7.330561402341118e-06,5.287789099384099e-05
-4.272235673852265e-05,3.402180300327018e-05,1.6460277038277127e-05,-2.0231675534887472e-06,5.277047966956161e-05
-3.8957561628194526e-05,3.076293069170788e-05,1.6581008821958676e-05,-1.8714409861786407e-06,5.3126979764783755e-05
-3.685549017973244e-05,3.1759016565047204e-05,1.210229402204277e-05,-3.84661052521551e-06,5.47927338629961e-05
-3.8783626223448664e-05,3.914456829079427e-05,6.131755071692169e-06,-3.085947582803783e-06,5.6953373132273555e-05
-3.9673515857430175e-05,4.5595581468660384e-05,3.5291686799610034e-06,-5.070519364380743e-06,5.940790651948191e-05
-3.702881440403871e-05,4.540494046523236e-05,2.597314733066014e-06,-1.1556605386431329e-05,6.319094973150641e-05
-3.576345261535607e-05,4.1173669160343707e-05,3.4513964237703476e-06,-1.6967500414466485e-05,6.682703678961843e-05
-3.558515527402051e-05,3.3953183447010815e-05,7.115339940355625e-06,-1.873228575277608e-05,6.714741903124377e-05
-3.3961576264118776e-05,2.8648591978708282e-05,1.2022947885270696e-05,-1.643282303120941e-05,6.448023486882448e-05
-3.226023181923665e-05,3.271223613410257e-05,1.3511644283425994e-05,-1.5133169654291123e-05,6.282099639065564e-05
-3.273067341069691e-05,4.0533574065193534e-05,1.0803928489622194e-05,-1.6633262930554338e-05,6.244958058232442e-05
-3.4756350942188874e-05,4.1396517190150917e-05,7.523189651692519e-06,-1.8709148207562976e-05,6.203967495821416e-05
-3.494641350698657e-05,3.536773510859348e-05,6.202054464665707e-06,-1.9601684471126646e-05,6.229883001651615e-05
-3.005440521519631e-05,3.219874270143919e-05,7.284219464054331e-06,-2.0954301362507977e-05,6.386717723216861e-05
-2.33730097534135e-05,3.6297060432843864e-05,8.350225471076556e-06,-2.2708623873768374e-05,6.41516235191375e-05
-2.173879875044804e-05,4.0455579437548295e-05,5.200846317165997e-06,-2.3474089175579138e-05,6.226827827049419e-05
-2.5716912205098197e-05,3.554333670763299e-05,1.517128339401097e-06,-2.013194352912251e-05,6.026129631209187e-05
-2.94240890070796e-05,2.6556528609944507e-05,-1.381628038643612e-07,-1.2512756256910507e-05,6.0950926126679406e-05
-3.506028588162735e-05,2.3596190658281557e-05,-3.228529067200725e-06,-8.446091669611633e-06,6.129750545369461e-05
-3.716706851264462e-05,2.250007491966244e-05,-2.8810914045607205e-06,-1.1965306839556433e-05,5.7185254263458773e-05
-3.4488606615923345e-05,2.4285016479552723e-05,1.2801283446606249e-06,-1.682944093772676e-05,5.138832057127729e-05
-3.2501888199476525e-05,3.0711798899574205e-05,4.797048859472852e-06,-1.579207855684217e-05,4.7329504013760015e-05
-2.5456336516072042e-05,2.9471286325133406e-05,7.105087206582539e-06,-1.1715776054188609e-05,4.9527312512509525e-05
-2.401714664301835e-05,1.3957576811662875e-05,6.435011528083123e-06,-1.0865123840630986e-05,5.7080389524344355e-05
-3.184353408869356e-05,1.7116880144385505e-06,4.111098405701341e-06,-1.0155031304748263e-05,6.100907557993196e-05
-3.454007674008608e-05,4.280072062101681e-06,1.316905468229379e-06,-1.182162213808624e-05,6.376086821546778e-05
-3.339238901389763e-05,2.1035926693002693e-05,-8.54211805290106e-07,-1.6385538401664235e-05,6.525710341520607e-05
-3.5000648495042697e-05,4.509534846874885e-05,7.124776288947032e-07,-1.1552678188309073e-05,6.449671491282061e-05
-3.38258505507838e-05,6.268910510698333e-05,6.253168066905346e-06,-5.946292731096037e-06,6.307105650193989e-05
-2.8842217943747528e-05,6.722199759678915e-05,6.082976597099332e-06,-8.257151421275921e-06,6.186556856846437e-05
-2.808335739246104e-05,6.543671042891219e-05,-3.7600054270114924e-07,-1.3775815205008257e-05,6.137489981483668e-05
-3.236110569559969e-05,6.140590267023072e-05,-7.425953754136572e-06,-1.6533720554434694e-05,6.247848796192557e-05
-3.423913585720584e-05,4.7885805543046445e-05,-1.1783006812038366e-05,-1.5357967640738934e-05,5.991368379909545e-05
-3.5523564292816445e-05,3.0682702345075086e-05,-1.0697930520109367e-05,-1.479521051805932e-05,5.426105053629726e-05
-3.764164284802973e-05,2.2260554032982327e-05,-4.278945198166184e-06,-1.6479958503623493e-05,5.331674765329808e-05
-3.654386455309577e-05,2.3704584236838855e-05,3.6456981433730107e-06,-1.7663816834101453e-05,5.799771679448895e-05
-2.9891267331549898e-05,2.564703936513979e-05,7.865229235903826e-06,-1.8169934264733456e-05,6.367658352246508e-05
-2.4040084099397063e-05,1.9387274733162485e-05,9.95169102679938e-06,-2.0258972654119134e-05,6.357033998938277e-05
-2.3745546059217304e-05,9.476993909629527e-06,1.1631945199042093e-05,-2.0740044419653714e-05,6.0228845541132614e-05
-2.6716754291555844e-05,6.2389744925894774e-06,1.2670053365582135e-05,-1.808733395591844e-05,5.752836659667082e-05
-2.9170336347306147e-05,1.0591482350719161e-05,1.1661952157737687e-05,-1.6535861504962668e-05,5.5350945331156254e-05
-2.6182753572356887e-05,1.5489344150410034e-05,9.233423043042421e-06,-1.8774579075397924e-05,5.385725307860412e-05
-2.224354466306977e-05,1.763821637723595e-05,6.884066351631191e-06,-2.016988401010167e-05,5.623382094199769e-05
-2.5153161914204247e-05,1.5185809388640337e-05,7.921154974610545e-06,-1.8286873455508612e-05,6.00677594775334e-05
-3.2956842915154994e-05,1.3071674402453937e-05,1.0976627891068347e-05,-1.6361555026378483e-05,6.11653522355482e-05
-3.645202377811074e-05,1.9286153474240564e-05,1.0434736395836808e-05,-1.4975865269661881e-05,6.0468402807600796e-05
-3.614617162384093e-05,2.7440968551672995e-05,9.109243364946451e-06,-1.4172648661769927e-05,5.9822777984663844e-05
-3.720988752320409e-05,2.9751698093605228e-05,1.2037044143653475e-05,-1.1239764717174694e-05,6.105089414631948e-05
-4.155318674747832e-05,3.125374496448785e-05,1.2189550034236163e-05,-4.524903033598093e-06,6.408899935195222e-05
-4.2307448893552646e-05,3.9302634831983596e-05,1.2619876542885322e-05,-7.889021844675881e-07,6.477714487118647e-05
-3.73671755369287e-05,4.9155631131725386e-05,2.009736817853991e-05,-1.7260797449125675e-06,6.249376747291535e-05
-4.069549686391838e-05,4.654266012948938e-05,2.1145555365365e-05,-4.463394816411892e-06,5.818983117933385e-05
-4.7636513045290485e-05,3.593411747715436e-05,1.4079354514251463e-05,-5.608046649285825e-06,5.511363997356966e-05
-4.481949144974351e-05,2.7573418265092187e-05,9.726410098664928e-06,-5.198292001296068e-06,5.512756615644321e-05
-4.247321339789778e-05,2.3640479412279092e-05,8.952451935329009e-06,-2.28891326514713e-06,5.601582961389795e-05
-4.638086829800159e-05,2.511854108888656e-05,9.384424629388377e-06,5.619869511974684e-07,5.695121581084095e-05
-4.9664835387375206e-05,2.8838439902756363e-05,6.232717623788631e-06,-4.412015641719336e-06,5.775117824668996e-05
-4.2230869439663365e-05,3.257760909036733e-05,8.127951787173515e-07,-1.2607731150637846e-05,5.809752838104032e-05
-3.092288170591928e-05,3.331801053718664e-05,9.437718517801841e-07,-1.374879229842918e-05,6.030769873177633e-05
-2.776529800030403e-05,3.5199554986320436e-05,7.524087322963169e-06,-1.0110265975527e-05,6.381142884492874e-05
-2.804375981213525e-05,3.609844497987069e-05,1.3382791621552315e-05,-8.38523919810541e-06,6.768244202248752e-05
-2.341822619200684e-05,3.281340832472779e-05,1.1678981536533684e-05,-9.922902791004162e-06,6.853548984508961e-05
-1.5195530068012886e-05,2.7294032406643964e-05,4.340066880104132e-06,-1.1302920029265806e-05,6.546473014168441e-05
-9.35802290769061e-06,2.434478301438503e-05,-7.322257147279743e-07,-1.281822824239498e-05,6.292769103311002e-05
-6.042850600351812e-06,2.6132542188861407e-05,6.770094387320569e-07,-1.8303617252968252e-05,6.037796993041411e-05
-5.667944606102537e-06,2.9140997867216356e-05,4.308985808165744e-06,-2.4093040337902494e-05,5.692999911843799e-05
-5.867488198418869e-06,2.9727674700552598e-05,3.5844054764311295e-06,-2.5843275579973124e-05,5.562164369621314e-05
-2.9754319257335737e-06,2.957014112325851e-05,-1.6845044683577726e-06,-2.3493477783631533e-05,5.8618359616957605e-05
-4.683343206579593e-07,3.198624835931696e-05,-7.725853720330633e-06,-2.0396510080900043e-05,6.18718913756311e-05
-4.0623604036227334e-06,3.61431302735582e-05,-9.274694093619473e-06,-1.8969023585668765e-05,6.251898594200611e-05
-1.3228385796537623e-05,3.875587208312936e-05,-4.695577899838099e-06,-2.2001448087394238e-05,5.931698251515627e-05
-2.266021510877181e-05,3.6184326745569706e-05,-1.5234353156756697e-07,-2.4946488338173367e-05,5.676460932590999e-05
-2.5896160877891816e-05,2.6172783691436052e-05,4.4157246748000034e-07,-2.008480078075081e-05,5.654364576912485e-05
-2.2794514734414406e-05,7.184704827523092e-06,-2.3252175651578e-07,-1.4055395695322659e-05,5.5891934607643634e-05
-1.7484408090240322e-05,-1.1359311429259833e-05,-7.80248228693381e-07,-1.2961339052708354e-05,5.620734009426087e-05
-1.785917629604228e-05,-8.047829396673478e-06,-6.614520202674612e-07,-1.1290299880784005e-05,5.8940440794685856e-05
-2.3662401872570626e-05,1.6252524801529944e-05,2.4350863441213733e-06,-7.14717862138059e-06,6.045268310117535e-05
-2.833296275639441e-05,3.437851046328433e-05,6.06142975811963e-06,-1.1830305766125093e-06,5.839266304974444e-05
-3.092154292971827e-05,3.6534165701596066e-05,3.877998096868396e-06,5.299731583363609e-06,5.504315049620345e-05
-3.296615250292234e-05,3.538684541126713e-05,3.3242397279309444e-08,7.218943210318685e-06,5.270284600555897e-05
-3.587034734664485e-05,3.8139449316076934e-05,3.498282922009821e-06,7.147875749069499e-07,5.200585655984469e-05
-3.5359946195967495e-05,3.8633177609881386e-05,8.05580748419743e-06,-7.212913715193281e-06,5.306789535097778e-05
-2.860205313481856e-05,3.580330667318776e-05,1.0151181413675658e-05,-1.0044508599094115e-05,5.531616261578165e-05
-1.8185362932854332e-05,3.0234503356041387e-05,1.0167534128413536e-05,-1.0857314009626862e-05,5.8875746617559344e-05
-8.398636964557227e-06,3.163119254168123e-05,1.2175933079561219e-05,-1.451525076845428e-05,6.151301204226911e-05
-8.888458069122862e-06,3.7944810173939914e-05,1.5861385691096075e-05,-1.5700927178841084e-05,6.147744716145098e-05
-1.5194097613857593e-05,3.992376150563359e-05,1.6709291230654344e-05,-9.690665137895849e-06,5.7820849178824574e-05
-1.8851698769140057e-05,3.2873929740162566e-05,1.4473305782303214e-05,-5.25843597642961e-06,5.485195288201794e-05
-1.7501482943771407e-05,2.115926326951012e-05,1.1456847460067365e-05,-7.408780220430344e-06,5.89363589824643e-05
-1.241790596395731e-05,1.5981338947312906e-05,7.283543254743563e-06,-1.177926424134057e-05,6.404924351954833e-05
-5.961486294836504e-06,2.1288688003551215e-05,3.0074863843765343e-06,-1.0644541362125892e-05,6.428625056287274e-05
1.2376959830362466e-06,3.0311610316857696e-05,4.924347649648553e-06,-6.8368121901585255e-06,6.084107008064166e-05
5.273795522953151e-06,3.308017767267302e-05,7.327858384087449e-06,-5.46800811207504e-06,5.853330731042661e-05
7.1910862970980816e-06,2.8838252546847798e-05,3.2110656320583075e-06,-6.070696599635994e-06,6.0394588217604905e-05
5.760241492680507e-06,2.1143892809050158e-05,-3.5109605960315093e-06,-6.990991096245125e-06,6.336653314065188e-05
1.2624878991118749e-06,1.6771286027505994e-05,-5.4923389143368695e-06,-6.461707016569562e-06,6.288254371611401e-05
-2.8115248369431356e-06,1.6816547940834425e-05,-4.240327143634204e-06,-2.0014986148453318e-06,5.8714354963740334e-05
-3.981315330747748e-06,1.8297718270332552e-05,-1.6295944078592584e-06,1.5658064285162254e-06,5.4548767366213724e-05
-2.2965755306358915e-06,1.8331029423279688e-05,-2.1798530980277064e-08,-3.1176007269095862e-06,5.32398080395069e-05
2.985693186019489e-07,1.5225245078909211e-05,2.6645270736480597e-06,-7.669547812838573e-06,5.239733218331821e-05
-6.128345830802573e-06,1.4613328858104069e-05,6.7813462010235526e-06,-4.9653108362690546e-06,5.018273805035278e-05
-1.8432214346830733e-05,2.383487117185723e-05,9.788382158149034e-06,-7.862757911425433e-07,4.784036718774587e-05
-2.394429247942753e-05,3.093286068178713e-05,7.715792889939621e-06,-1.4274165778260794e-06,4.78893744002562e-05
-1.937213892233558e-05,3.083513365709223e-05,2.7427154236647766e-06,-4.376122433313867e-06,4.872660065302625e-05
-1.4247105355025269e-05,3.548177483025938e-05,6.649368515354581e-06,-9.211245810547553e-07,4.8060443077702075e-05
-2.1500036382349208e-05,4.747346247313544e-05,8.291629455925431e-06,2.6608611278788885e-06,4.712695226771757e-05
-2.6575558877084404e-05,5.193045944906771e-05,3.237977352910093e-06,7.276316296156438e-07,4.506517143454403e-05
-2.186450728913769e-05,4.752027234644629e-05,3.092612359978375e-06,-3.1357612897409126e-06,4.395526775624603e-05
-2.4461516659357585e-05,4.473503213375807e-05,7.179878593888134e-06,-5.778213562734891e-06,4.626901863957755e-05
-3.855254908557981e-05,4.714130045613274e-05,1.0548570571700111e-05,-4.797538622369757e-06,4.7874545998638496e-05
-4.877172614214942e-05,5.171337033971213e-05,1.059354872268159e-05,-4.084518877789378e-06,4.971788439434022e-05
-5.146877083461732e-05,5.1242510380689055e-05,6.561148438777309e-06,-6.816524546593428e-06,5.262234481051564e-05
-5.115353633300401e-05,3.074527558055706e-05,1.6388414678658592e-06,-1.3053376278548967e-05,5.433898695628159e-05
-4.577297659125179e-05,2.2247579636314185e-06,2.067938886796128e-08,-1.5533436453551985e-05,5.8800265833269805e-05
-3.9989507058635354e-05,-6.9481802711379714e-06,8.610582540313771e-07,-1.40662405101466e-05,6.372929783537984e-05
-4.0132883441401646e-05,5.232884632278001e-06,3.3065875868487637e-06,-1.5881119907135144e-05,6.510686944238842e-05
-4.364014239399694e-05,1.859700023487676e-05,4.484320925257634e-06,-1.925256583490409e-05,6.447679334087297e-05
-4.5987886551301926e-05,9.925780432240572e-06,3.6787762383028166e-06,-1.8691762306843884e-05,6.529836537083611e-05
-4.858889224124141e-05,-1.8295668269274756e-05,-4.05034114692171e-07,-1.4678511433885433e-05,6.832045619376004e-05
-4.915644967695698e-05,-4.501841249293648e-05,-6.832030976511305e-06,-1.1489918506413233e-05,7.209925388451666e-05
-4.557611464406364e-05,-5.3119059884920716e-05,-1.1783905392803717e-05,-8.309718396048993e-06,7.44472854421474e-05
-3.919140362995677e-05,-4.751326923724264e-05,-1.5155278560996521e-05,-3.400968580535846e-06,7.27730875951238e-05
-3.1401097658090293e-05,-2.5781640943023376e-05,-1.938148125191219e-05,-7.600305593769008e-07,6.996693991823122e-05
-2.626572677399963e-05,1.9985058315796778e-05,-2.00300582946511e-05,-2.263130056689988e-07,6.819307600380853e-05
-2.41421876125969e-05,7.626763544976711e-05,-1.2607960343302693e-05,2.5455512968619587e-06,6.364061846397817e-05
-1.917379086080473e-05,0.00011657627328531817,-3.380678890607669e-06,5.7480906434648205e-06,5.660925307893194e-05
-1.2291749044379685e-05,0.00013170742022339255,4.087534762220457e-06,5.931442501605488e-06,5.71784439671319e-05
-1.3776626474282239e-05,0.00013533124001696706,1.1683677257678937e-05,-2.935785005320213e-06,6.396958633558825e-05
-2.7120435333927162e-05,0.00013289805792737752,1.773060103005264e-05,-1.3272903743200004e-05,6.564551586052403e-05
-4.388688466860913e-05,0.00011052496120100841,1.6284073353745043e-05,-1.3425969882518984e-05,6.28567868261598e-05
-5.059350223746151e-05,6.950325041543692e-05,1.2541846444946714e-05,-7.181239197961986e-06,6.0525144363055006e-05
-4.2121955630136654e-05,1.4706296497024596e-05,1.0589910743874498e-05,-3.4089300697814906e-06,6.005158138577826e-05
-4.0233695472124964e-05,-2.961864993267227e-05,9.979141395888291e-06,-8.065745532803703e-06,6.205994577612728e-05
-4.6160763304214925e-05,-5.0075734179699793e-05,1.2548588529170956e-05,-1.683122718532104e-05,6.320553802652285e-05
-4.7894049203023314e-05,-5.7644960179459304e-05,1.231515943800332e-05,-2.3711605535936542e-05,6.655962351942435e-05
-4.5153199607739225e-05,-5.046710430178791e-05,7.992091923370026e-06,-2.3555299776489846e-05,7.005957013461739e-05
-4.0675739001017064e-05,-2.8953094442840666e-05,6.004028364259284e-06,-2.230735117336735e-05,7.014768198132515e-05
-4.103720493731089e-05,1.417830844729906e-05,3.9155329432105646e-06,-2.7143276383867487e-05,7.406645454466343e-05
-4.029757110401988e-05,5.608789069810882e-05,7.277677127603965e-07,-3.545836443663575e-05,7.695607200730592e-05
-4.0856855775928125e-05,7.644627476111054e-05,8.379943210456986e-07,-3.923729309462942e-05,7.226210436783731e-05
-3.701061723404564e-05,7.989788718987256e-05,3.5202131130063208e-06,-3.588149411370978e-05,6.235382170416415e-05
-3.085836942773312e-05,7.417030428769067e-05,5.245952706900425e-06,-3.022413693543058e-05,5.7441062381258234e-05
-2.8507378374342807e-05,6.6561704443302e-05,5.384778887673747e-06,-2.5263529096264392e-05,6.00294406467583e-05
-2.9535383873735555e-05,5.9167017752770334e-05,3.7380184494395507e-06,-2.121965735568665e-05,6.214457243913785e-05
-3.0356035495060496e-05,4.890162745141424e-05,8.649238338875875e-07,-1.8110053133568726e-05,6.024709728080779e-05
-3.537607335601933e-05,3.4703098208410665e-05,-4.305205038690474e-06,-1.760670966177713e-05,6.0263355408096686e-05
-4.5198044972494245e-05,2.2818096113041975e-05,-1.3422818483377341e-05,-2.1456395188579336e-05,6.380242120940238e-05
-4.94537380291149e-05,1.5559013263555244e-05,-2.282228524563834e-05,-2.556844992795959e-05,6.477380520664155e-05
-4.445496961125173e-05,1.274794340133667e-05,-2.502444294805173e-05,-2.4601695258752443e-05,6.0944548749830574e-05
-3.4808399504981935e-05,1.2601248272403609e-05,-1.8423628716845997e-05,-2.0363740986795165e-05,5.5882228480186313e-05
-3.0186693038558587e-05,1.2994942153454758e-05,-1.0648224815668073e-05,-1.4828386156295892e-05,5.299183976603672e-05
-2.9634929887834005e-05,7.457412721123546e-06,-3.8078089801274473e-06,-1.0800115887832362e-05,5.313525252859108e-05
-2.4511400624760427e-05,2.5433616883674404e-06,6.0005700106557924e-06,-1.1831621122837532e-05,5.452473851619288e-05
-1.6275465895887464e-05,7.28400846128352e-06,1.788401095836889e-05,-1.6543113815714605e-05,5.414153929450549e-05
-1.4170303984428756e-05,1.7084463252103887e-05,2.678487726370804e-05,-1.79498329089256e-05,5.143361704540439e-05
-1.0780204320326447e-05,2.7121994207846e-05,3.2844149245647714e-05,-1.4481750440609176e-05,4.674496449297294e-05
3.322799386751285e-07,3.7871232052566484e-05,3.459717481746338e-05,-1.0481564459041692e-05,4.527135024545714e-05
1.4371333236340433e-05,4.608964445651509e-05,3.488298170850612e-05,-1.002969565888634e-05,4.5049473555991426e-05
1.6310406863340177e-05,5.428814620245248e-05,4.1290317312814295e-05,-7.523161002609413e-06,4.4639018597081304e-05
1.200702627102146e-05,6.627072434639558e-05,4.3096930312458426e-05,-6.094247964938404e-06,4.548650758806616e-05
5.56263421458425e-06,7.178944360930473e-05,3.6627348890760913e-05,-1.1692754924297333e-05,4.708800770458765e-05
-3.3396095204807352e-06,6.959558959351853e-05,2.730804953898769e-05,-1.3703250260732602e-05,4.793201878783293e-05
-1.32137538457755e-05,6.41358201391995e-05,1.7665222912910394e-05,-1.1899849596375134e-05,4.798986265086569e-05
-2.5545494281686842e-05,5.337498805602081e-05,1.3685702469956595e-05,-1.1395150977477897e-05,5.059427348896861e-05
-2.90209300146671e-05,4.673598232329823e-05,1.3081657016300596e-05,-1.1163047929585446e-05,5.641700408887118e-05
-2.525944546505343e-05,5.5846274335635826e-05,1.3101220247335732e-05,-1.2181157217128202e-05,6.13932206761092e-05
-2.2987829652265646e-05,6.628499977523461e-05,1.571178472659085e-05,-1.3183958799345419e-05,6.362979183904827e-05
-2.5563280360074714e-05,6.240793300094083e-05,1.8607719539431855e-05,-1.3083099474897608e-05,6.35685573797673e-05
-2.800370566546917e-05,4.458928378880955e-05,1.6681247871019877e-05,-1.2497635907493532e-05,6.431817018892616e-05
-2.692533962544985e-05,2.426435094093904e-05,9.815510566113517e-06,-1.2497254829213489e-05,6.624998786719516e-05
-2.524802584957797e-05,9.184182090393733e-06,2.0522140857792692e-06,-9.152043276117183e-06,6.577280873898417e-05
-2.729808329604566e-05,-2.2738111056241905e-06,2.4564923251091386e-07,-5.4597994676441886e-06,6.3059211242944e-05
-3.156549792038277e-05,-1.4499088138109073e-05,3.6907124467688845e-06,-6.507409580081003e-06,5.9354741097195074e-05
-3.012639172084164e-05,-2.4260167265310884e-05,6.296324045251822e-06,-8.716137926967349e-06,5.773238808615133e-05
-2.2142474335851148e-05,-2.0048108126502484e-05,4.836316747969249e-06,-7.802125765010715e-06,5.9049518313258886e-05
-1.1946054655709304e-05,-4.829342401535541e-07,2.6270315629517427e-06,-7.4046583904419094e-06,6.180010677780956e-05
-7.142725280573359e-06,2.586799382697791e-05,6.684300046799763e-07,-1.1348171028657816e-05,6.433425733121112e-05
-8.862506547302473e-06,4.42765885964036e-05,-3.129611741314875e-06,-1.6035421140259132e-05,6.710073648719117e-05
-8.812594387563877e-06,4.551924575935118e-05,-6.849461442470783e-06,-1.669568518991582e-05,6.833565566921607e-05
-3.5926693726651138e-06,3.3910091588040814e-05,-6.71809812047286e-06,-1.1715787877619732e-05,6.747579027432948e-05
-5.442089445750753e-07,1.8474127500667237e-05,-3.902694061252987e-06,-7.033547717583133e-06,6.555739673785865e-05
-4.802255261893151e-06,6.511801075248513e-06,-9.314701401308412e-07,-6.169345397211146e-06,6.313085759757087e-05
-7.2329062277276535e-06,1.8140431379265465e-08,1.689845134933421e-06,-9.423037226952147e-06,5.996789695927873e-05
-4.341269686847227e-06,-4.35327001468977e-06,2.527248398109805e-06,-1.0302481314283796e-05,5.5834239901741967e-05
-8.744643309910316e-06,-6.251832473935792e-06,5.320404397934908e-06,-5.514116310223471e-06,4.939401333103888e-05
-2.0919562302879058e-05,-1.884226094261976e-06,1.0051968274638057e-05,-3.759308128792327e-06,4.49084909632802e-05
-3.5025666875299066e-05,8.02199065219611e-06,1.0435352123749908e-05,-6.749256954208249e-06,4.614850695361383e-05
-4.5699009206146e-05,1.916364453791175e-05,5.519525529962266e-06,-6.127947926870547e-06,4.776228161063045e-05
-4.727798659587279e-05,2.8567654226208106e-05,-7.063762836878595e-07,6.738206366208033e-07,4.8593377869110554e-05
-3.654101965366863e-05,3.273535912740044e-05,-3.60620788342203e-06,6.799743914598366e-06,5.01451977470424e-05
-2.107345972035546e-05,3.4886579669546336e-05,2.2008288169672596e-07,8.65084984980058e-06,5.2255076298024505e-05
-1.1452378203102853e-05,3.772270429180935e-05,3.7192214676906588e-06,8.271496881206986e-06,5.383923416957259e-05
-8.100661034404766e-06,4.147968866163865e-05,2.4026767277973704e-06,2.6630659704096615e-06,5.319142292137258e-05
-1.2987999070901424e-05,4.268367410986684e-05,2.436553359075333e-06,-4.520086349657504e-06,4.9975398724200204e-05
-2.1181020201765932e-05,4.084885949851014e-05,2.5825245302257827e-06,-6.927990398253314e-06,4.9225196562474594e-05
-3.1828516512177885e-05,3.958273373427801e-05,-1.9592121134337503e-06,-8.276349035440944e-06,5.390469959820621e-05
-4.18337804148905e-05,4.251007339917123e-05,-8.773016816121526e-06,-1.3257461432658602e-05,6.0588539781747386e-05
-5.0515798648120835e-05,4.6209923311835155e-05,-1.5419695046148263e-05,-1.868306571850553e-05,6.280072557274252e-05
-5.141278597875498e-05,3.857319461531006e-05,-1.717459235806018e-05,-2.2648939193459228e-05,5.9715737734222785e-05
-4.5963319280417636e-05,1.5959722077241167e-05,-1.3262334505270701e-05,-2.4070563085842878e-05,5.636380592477508e-05
-4.1036008042283356e-05,-6.575658062502043e-06,-6.71828320264467e-06,-2.3014858015812933e-05,5.7862864196067676e-05
-3.8529968151124194e-05,-1.2925409464514814e-05,-3.128798198304139e-07,-2.1122505131643265e-05,6.22568404651247e-05
-3.6871821066597477e-05,-9.26040593185462e-06,4.3851246118720155e-06,-1.8155657016905025e-05,6.294225750025362e-05
-3.426696275710128e-05,-7.634268513356801e-06,4.2239466893079225e-06,-1.4238702533475589e-05,5.993675586069003e-05
-3.1040661269798875e-05,-5.967930974293267e-06,1.5602690837113187e-06,-9.880555808194913e-06,5.8470741350902244e-05
-2.8882044716738164e-05,6.955546723474981e-06,1.759963765834982e-06,-9.201475222653244e-06,6.0047252190997824e-05
-2.8179929358884692e-05,2.7195159418624826e-05,4.733185960503761e-06,-1.2564062672026921e-05,6.136982119642198e-05
-2.5300541892647743e-05,3.617210313677788e-05,8.043769412324764e-06,-1.3517897968995385e-05,6.1011956859147176e-05
-2.3793101718183607e-05,2.6846299078897573e-05,9.671150110079907e-06,-8.587581760366447e-06,5.826410051668063e-05
-2.23510833166074e-05,2.2338101189234294e-05,8.413953764829785e-06,-5.667513505613897e-06,5.541454811464064e-05
-2.0958384993718937e-05,3.892801396432333e-05,5.086862984171603e-06,-6.9637403612432536e-06,5.473365308716893e-05
-2.00574522750685e-05,5.453858830151148e-05,4.368251666164724e-06,-6.197428319865139e-06,5.9077450714539737e-05
-2.1081168597447686e-05,4.1673920350149274e-05,3.785973831327283e-06,-6.763101737305988e-06,6.290964665822685e-05
-3.060331800952554e-05,1.0970643415930681e-05,3.33708294419921e-06,-8.40614848129917e-06,6.322277477011085e-05
-4.5503700675908476e-05,-1.4164108506520279e-05,6.310427124844864e-06,-7.79496167524485e-06,6.254019535845146e-05
-5.061699994257651e-05,-2.8639102310989983e-05,9.446209332963917e-06,-5.6698104344832245e-06,5.980187052045949e-05
-4.704629827756435e-05,-3.155237573082559e-05,1.0422460036352277e-05,1.0128334082537549e-07,5.864365812158212e-05
-3.8254067476373166e-05,-2.2939859263715334e-05,8.75461773830466e-06,3.431128334341338e-06,5.533268995350227e-05
-2.9129567337804474e-05,-9.636600225348957e-06,2.270999175379984e-06,3.326278374515823e-06,5.2855833928333595e-05
-2.461277472320944e-05,2.078744273603661e-06,-3.2105947411764646e-06,3.451080601735157e-06,5.564407183555886e-05
-2.021636646531988e-05,1.2811120541300625e-05,-3.1298218345909845e-06,3.4857846458180575e-06,6.01793362875469e-05
-1.2549753591883928e-05,3.387599281268194e-05,2.5353292585350573e-06,2.9966838610562263e-06,6.475021655205637e-05
-9.340078577224631e-06,6.154317816253752e-05,8.021756002563052e-06,-3.893484517902834e-06,6.683979881927371e-05
-1.1367957995389588e-05,8.172774687409401e-05,7.658718459424563e-06,-2.253130151075311e-05,6.817252142354846e-05
-1.2699851140496321e-05,9.476519335294142e-05,2.977784106406034e-06,-4.660609920392744e-05,7.044382073218003e-05
-1.222250830323901e-05,9.947768558049574e-05,-2.6975224045600044e-06,-5.630837404169142e-05,7.228905451484025e-05
-1.094229537557112e-05,9.360234980704263e-05,-7.642663149454165e-06,-4.4330670789349824e-05,7.228253525681794e-05
-9.716408385429531e-06,7.807754445821047e-05,-9.55611358222086e-06,-2.691309418878518e-05,6.949537782929838e-05
-8.252727639046498e-06,5.8843022998189554e-05,-6.8878757701895665e-06,-1.884169614640996e-05,6.55389012536034e-05
-8.628823707113042e-06,3.7617621273966506e-05,-1.933837438627961e-06,-1.694757338555064e-05,6.409814523067325e-05
-7.797114449203946e-06,1.3556084923038725e-05,2.5598496904422063e-06,-1.1738123248505872e-05,6.260330701479688e-05
-2.205311830039136e-06,-7.594794169563102e-06,4.908252776658628e-06,-3.1612985367246438e-06,5.716124360333197e-05
2.5600170374673326e-06,-1.620084913156461e-05,5.670643986377399e-06,1.2829930255975341e-06,5.1154460379621014e-05
-7.456970365637972e-07,-9.287744433095213e-06,7.298199307115283e-06,-4.7216431653396285e-07,4.903899389319122e-05
-1.0253836080664769e-05,6.620766725973226e-06,9.078249604499433e-06,7.280621048266767e-07,4.8271245759679005e-05
-2.172316817450337e-05,2.2669071768177673e-05,1.1511246157169808e-05,5.2252721616241615e-06,4.890200943918899e-05
-2.9892840757383965e-05,3.484909393591806e-05,1.3537350241676904e-05,7.188434665295063e-06,5.235913340584375e-05
-3.464214023551904e-05,5.0634309445740655e-05,1.2325371244514827e-05,4.194650045974413e-06,5.711629637517035e-05
-3.389793710084632e-05,6.600137567147613e-05,1.1870915841427632e-05,2.0242321170371724e-06,6.014204700477421e-05
-2.6972853447659872e-05,6.860900612082332e-05,1.3377323739405256e-05,1.4682202618132578e-06,5.6605058489367366e-05
-1.6115905964397825e-05,6.780436524422839e-05,1.4634381841460709e-05,-1.307259481109213e-06,5.559688725043088e-05
-1.3778328138869256e-05,7.344116602325812e-05,1.2659323147090618e-05,5.592418688138423e-07,5.858158692717552e-05
-2.3692256945651025e-05,7.731544610578567e-05,1.2351975783531088e-05,5.057362614024896e-06,6.226831465028226e-05
-3.1805226171854883e-05,6.490130181191489e-05,1.567296203575097e-05,8.266368240583688e-06,6.538937304867432e-05
-3.055301203858107e-05,3.9057911635609344e-05,1.8475697288522497e-05,6.634711098740809e-06,6.430178473237902e-05
-2.545640745665878e-05,2.108480293827597e-05,1.7827311239670962e-05,1.8882924450736027e-06,6.0399579524528235e-05
-2.397135176579468e-05,1.3890227819501888e-05,1.529348810436204e-05,-2.9752536647720262e-06,5.566021354752593e-05
-2.0981107809348032e-05,3.305578729850822e-06,1.376578802592121e-05,-5.889099611522397e-06,5.485042856889777e-05
-1.7415879483451135e-05,-1.037048059515655e-05,1.2692611562670209e-05,-4.7591893235221505e-06,5.673355917679146e-05
-2.0134641090407968e-05,-1.8353208361077122e-05,1.0009091056417674e-05,-4.046965386805823e-06,6.23871965217404e-05
-2.6494020858081058e-05,-1.2333052836766e-05,1.0603223017824348e-05,-6.078470960346749e-06,6.618076440645382e-05
-3.0986808269517496e-05,2.1657688193954527e-06,1.4401833141164389e-05,-9.360211151943076e-06,6.38978963252157e-05
-3.4351134672760963e-05,1.552187677589245e-05,1.4605299838876817e-05,-1.1047344742109999e-05,5.959740883554332e-05
-3.5461918741930276e-05,2.3768137907609344e-05,1.2235091162438039e-05,-1.0143716281163506e-05,5.77694627281744e-05
-3.154342994093895e-05,3.2126441510627046e-05,1.1664637895592023e-05,-1.0134896001545712e-05,5.592974412138574e-05
-2.7638372557703406e-05,4.338514918345027e-05,9.264238542527892e-06,-1.3730394130107015e-05,5.1190036174375564e-05
-3.094014755333774e-05,4.874017758993432e-05,2.6248503672832157e-06,-1.648946818022523e-05,4.742432065540925e-05
-4.134021219215356e-05,4.354032353148796e-05,-2.6895029350271216e-06,-1.721228545648046e-05,4.8682803026167676e-05
-4.90052298118826e-05,3.3718202757881954e-05,-5.782201697002165e-06,-1.801272082957439e-05,5.234230411588214e-05
-4.684340819949284e-05,2.4763348847045563e-05,-6.033364570612321e-06,-1.6961779692792334e-05,5.3452127758646384e-05
-4.1390929254703224e-05,1.64693428814644e-05,-3.600045829443843e-06,-1.1936676855839323e-05,5.4324780649039894e-05
-4.053359225508757e-05,1.5006949979579076e-05,2.621292878757231e-06,-8.240662282332778e-06,5.5354146752506495e-05
-3.9468555769417435e-05,1.8065544281853363e-05,1.0453001777932514e-05,-8.639606676297262e-06,5.604159377980977e-05
-2.8138367270003073e-05,2.5507488317089155e-05,1.4797860785620287e-05,-9.076320566236973e-06,5.5367920140270144e-05
-1.1933631867577787e-05,3.24603752233088e-05,1.8118889784091152e-05,-8.427385182585567e-06,5.517442332347855e-05
-5.03899445902789e-06,2.236243562947493e-05,2.0318382667028345e-05,-8.67259586811997e-06,5.619669536827132e-05
-5.034444711782271e-06,3.36682614943129e-06,2.0280296666896902e-05,-9.638856681704056e-06,6.145099905552343e-05
-3.651838369478355e-06,7.564449333585799e-06,2.0088615201530047e-05,-1.0367851245973725e-05,6.625161768170074e-05
-2.4651495778016397e-07,3.469735020189546e-05,2.119255077559501e-05,-8.29093642096268e-06,6.942124309716746e-05
-3.5223849863541545e-06,6.090832539484836e-05,2.347158078919165e-05,-7.1776967160985805e-06,7.383000775007531e-05
-2.1135452698217705e-05,7.426461525028571e-05,2.1393729184637778e-05,-9.799182407732587e-06,7.488486880902201e-05
-4.2801304516615346e-05,7.042598008411005e-05,1.9765398974413984e-05,-1.5158908354351297e-05,7.361637835856527e-05
-4.874934529652819e-05,5.842488826601766e-05,1.881107164081186e-05,-2.2237718440010212e-05,7.468980038538575e-05
-4.1496467019896954e-05,4.9353948270436376e-05,1.7525931980344467e-05,-2.340990977245383e-05,7.593612099299207e-05
-3.957455919589847e-05,4.382752376841381e-05,1.5923427781672217e-05,-1.7826316252467223e-05,7.310352521017194e-05
-4.518191053648479e-05,3.787559035117738e-05,1.1164202078361996e-05,-1.0149254194402602e-05,6.912691605975851e-05
-5.355876055546105e-05,1.7527101590530947e-05,4.841125246457523e-06,-5.161469744052738e-06,6.813548679929227e-05
-5.6954511819640175e-05,-1.590566535014659e-05,2.4487428618158447e-07,-4.194834218651522e-06,7.127908611437306e-05
-5.234065611148253e-05,-3.330298568471335e-05,-3.5526343253877712e-06,-6.630241387028946e-06,7.416074367938563e-05
-4.669416739488952e-05,-1.7678263247944415e-05,-7.135551641113125e-06,-9.181286259263288e-06,7.277348049683496e-05
-4.59374969068449e-05,1.1485559298307635e-05,-5.283986865833867e-06,-7.785775778756943e-06,6.660223152721301e-05
-4.833366983802989e-05,2.8613021640921943e-05,1.3597289125755196e-06,-2.317965936526889e-06,5.974911982775666e-05
-5.0314352847635746e-05,3.2120136893354356e-05,6.639223101956304e-06,3.2926316180237336e-06,5.747053000959568e-05
-4.912801887257956e-05,3.039192597498186e-05,9.780396794667467e-06,6.206729722180171e-06,6.119328463682905e-05
-4.265823736204766e-05,2.8449610908864997e-05,1.3066940482531209e-05,7.853647730371449e-06,6.719967495882884e-05
-3.399350680410862e-05,2.7124839107273147e-05,1.2060530025337357e-05,6.29825171927223e-06,6.772487540729344e-05
-2.5728197215357795e-05,2.4065315301413648e-05,6.842658422101522e-06,4.953333245794056e-07,6.178506009746343e-05
-1.8576138245407492e-05,1.9266335584688932e-05,2.0996089915570337e-06,-5.366955065255752e-06,5.633323598885909e-05
-1.5131605323404074e-05,1.9045332010136917e-05,-3.996374005055259e-07,-7.951710358611308e-06,5.792074807686731e-05
-1.874662484624423e-05,2.378719364060089e-05,-4.6598615881521255e-06,-7.544256277469685e-06,6.327756273094565e-05
-2.7416817829362117e-05,3.077462679357268e-05,-7.983035175129771e-06,-5.977777163934661e-06,6.546200893353671e-05
-4.056038233102299e-05,3.768382521229796e-05,-9.7736419775174e-06,-7.157664640544681e-06,6.069802839192562e-05
-4.970354348188266e-05,3.6900295526720583e-05,-1.0317445230612066e-05,-1.2568509191623889e-05,5.302771387505345e-05
-4.537137647275813e-05,3.140128683298826e-05,-8.721144695300609e-06,-1.698579035291914e-05,5.2420571591937914e-05
-3.517554796417244e-05,3.2444371754536405e-05,-5.130461431690492e-06,-2.0000019503640942e-05,5.350547507987358e-05
-2.4722394300624728e-05,3.561702396837063e-05,-6.939471859368496e-07,-2.049347313004546e-05,5.4566789913224056e-05
-1.981195600819774e-05,3.697543070302345e-05,3.769203203773941e-06,-1.782977778930217e-05,5.7899167586583644e-05
-2.3507089281338267e-05,4.1271767258876935e-05,2.3232285002450226e-06,-1.718569365039002e-05,5.676417640643194e-05
-2.9155560696381144e-05,4.346618879935704e-05,-8.25632469059201e-06,-1.8289716535946354e-05,5.300473276292905e-05
-3.4485765354475006e-05,3.81371246476192e-05,-1.3346521882340312e-05,-1.9810266167041846e-05,5.440384484245442e-05
-3.8405029044952244e-05,3.140819171676412e-05,-1.1711476872733328e-05,-1.8219647245132364e-05,5.8797490055439994e-05
-3.9854170609032735e-05,2.4623723220429383e-05,-8.048382369452156e-06,-1.3727125406148843e-05,5.764191155321896e-05
-4.053459269925952e-05,1.8930035366793163e-05,-2.818138455040753e-06,-1.3570846931543201e-05,5.399024666985497e-05
-3.8058729842305183e-05,1.7865795598481782e-05,3.221477982151555e-06,-1.6555379261262715e-05,5.52558594790753e-05
-3.2762574846856296e-05,1.8813536371453665e-05,5.739173957408639e-06,-1.8558361261966638e-05,6.0559734265552834e-05
-2.6689334845286794e-05,1.8820626792148687e-05,4.384317435324192e-06,-2.261492954858113e-05,6.728422886226326e-05
-1.8363314666203223e-05,1.9346600311109796e-05,3.812732984442846e-06,-2.68051717284834e-05,7.56942099542357e-05
-1.099946803151397e-05,2.1306195776560344e-05,6.705198757117614e-06,-2.7579168090596795e-05,8.152504597092047e-05
-9.07668891159119e-06,2.2458798412117176e-05,1.2792823326890357e-05,-2.5074561563087627e-05,8.171981608029455e-05
-1.1264727618254256e-05,2.3692204194958322e-05,1.827628875616938e-05,-2.3664139007451013e-05,7.898193871369585e-05
-1.5739007722004317e-05,2.7614543796516955e-05,1.65315686899703e-05,-2.412104186078068e-05,7.461592758772895e-05
-2.036371733993292e-05,3.691283200168982e-05,5.414245151769137e-06,-2.2251415430218913e-05,6.998918252065778e-05
-2.075787961075548e-05,5.338957271305844e-05,-4.0491186155122705e-06,-1.975701525225304e-05,6.938937440281734e-05
-1.5607887689839117e-05,6.437572301365435e-05,-1.4849269973638002e-06,-2.249058525194414e-05,7.045556412776932e-05
-7.957618436194025e-06,5.100878479424864e-05,6.907551323820371e-06,-2.617177233332768e-05,6.64513572701253e-05
4.8699115495765e-07,1.603556302143261e-05,1.0635835678840522e-05,-2.4579616365372203e-05,6.158420001156628e-05
3.3813789741543587e-06,-1.0644008398230653e-05,1.3208759810368065e-05,-2.1979773009661585e-05,6.155477603897452e-05
-3.2666328024788527e-06,-3.8594466786889825e-06,1.7322458006674424e-05,-1.9402386897127144e-05,6.328797462629154e-05
-8.065529982559383e-06,2.2713507860316895e-05,2.2975082174525596e-05,-1.4407837625185493e-05,6.284640403464437e-05
-9.292217328038532e-06,4.5687946112593636e-05,2.61333079834003e-05,-1.0403636224509683e-05,6.147117528598756e-05
-1.150561456597643e-05,5.328688712324947e-05,2.6513116608839482e-05,-1.1844171240227297e-05,5.8524979976937175e-05
-1.4163389096211176e-05,4.702500518760644e-05,2.65290291281417e-05,-8.142628757923376e-06,5.327522012521513e-05
-1.9624636479420587e-05,3.952297265641391e-05,2.59776152233826e-05,-3.651673068816308e-06,4.8689369577914476e-05
-2.772659354377538e-05,4.015257945866324e-05,2.119851706083864e-05,-4.98600775244995e-06,4.6753528295084834e-05
-3.272509275120683e-05,4.357851867098361e-05,1.2684326065937057e-05,-4.4512366912385914e-06,4.525820986600593e-05
-3.738078157766722e-05,4.012990393675864e-05,5.982773473078851e-06,-3.441637090872973e-06,4.232848732499406e-05
-3.9730770367896184e-05,4.2316794861108065e-05,8.104143489617854e-07,-4.70966506327386e-06,4.425742736202665e-05
-3.638366615632549e-05,5.37968153366819e-05,-1.87942021057097e-06,-7.010696663201088e-06,4.957438795827329e-05
-3.224883766961284e-05,6.351080810418352e-05,-3.0034101428100257e-07,-5.063840035290923e-06,5.160740329301916e-05
-2.9622740839840844e-05,6.893988029332832e-05,2.6632351364241913e-06,-3.2184589144890197e-06,5.244659769232385e-05
-2.965669773402624e-05,6.864817987661809e-05,1.5060760460983147e-06,-4.8961751417664345e-06,5.399789006332867e-05
-2.641591891006101e-05,5.9973721363348886e-05,-3.646269306045724e-06,-6.8997114794910885e-06,5.403867908171378e-05
-1.5621413695043884e-05,4.3908290535910055e-05,-8.176555638783611e-06,-7.083502168825362e-06,5.191661693970673e-05
-6.618990937568014e-07,2.3777629394317046e-05,-9.275539923692122e-06,-6.834429768787231e-06,5.0962909881491214e-05
1.1625944352999795e-05,-8.08013828645926e-06,-8.057657396420836e-06,-5.560928457271075e-06,5.264100036583841e-05
1.6496109310537577e-05,-4.575842831400223e-05,-6.5445997279312e-06,-2.7422684070188552e-06,5.5567514209542423e-05
9.030004548549186e-06,-6.0677404690068215e-05,-4.21905679104384e-06,-3.2286284294968937e-06,5.715821316698566e-05
-7.795586498104967e-06,-3.898211434716359e-05,-4.0448730942443945e-07,-7.2376642492599785e-06,5.345363024389371e-05
-2.3462995159206912e-05,-1.363094270345755e-06,1.4733674902345228e-07,-1.0373162695032079e-05,4.8109566705534235e-05
-3.2742398616392165e-05,2.7922593289986253e-05,-4.9859463615575805e-06,-1.0942426342808176e-05,4.794378037331626e-05
-3.5348926758160815e-05,4.2913474317174405e-05,-8.025055649341084e-06,-1.3535748621507082e-05,4.899129635305144e-05
-3.352938801981509e-05,4.278493361198343e-05,-6.143970949779032e-06,-1.8397427993477322e-05,4.816872387891635e-05
-3.0451190468738787e-05,3.4955966839333996e-05,-4.929310307488777e-06,-2.1153406123630702e-05,5.015336864744313e-05
-2.9241919037303887e-05,3.0114109904388897e-05,-5.892425633646781e-06,-2.0719680833281018e-05,5.446880459203385e-05
-2.618156941025518e-05,3.396988904569298e-05,-8.240292117989156e-06,-1.7414002286386676e-05,5.653888365486637e-05
-1.802225597202778e-05,3.789828406297602e-05,-8.311493729706854e-06,-1.0445118277857546e-05,5.555962343350984e-05
-1.6339301510015503e-05,1.956996857188642e-05,-5.341524229152128e-06,-6.6316674747213256e-06,5.462286571855657e-05
-1.5734909538878128e-05,-1.3442026101984084e-05,-1.9053740061281133e-06,-8.50596643431345e-06,5.250118556432426e-05
-9.040335498866625e-06,-2.7163676350028254e-05,-3.1424069675267674e-06,-5.598981715593254e-06,4.915169483865611e-05
-7.557111985079246e-06,-2.2555168470717035e-05,-1.426746166544035e-06,3.090231075475458e-06,5.112421786179766e-05
-1.6074964150902815e-05,-1.4430533155973535e-05,7.994882253115065e-06,1.1421485396567732e-05,5.5821343266870826e-05
-2.444166602799669e-05,-6.875194230815396e-06,1.2311459613556508e-05,1.158492341346573e-05,5.5967851949390024e-05
-2.5158886273857206e-05,-1.4721432535225176e-06,1.0345003829570487e-05,4.432651167007862e-06,5.3468051191885024e-05
-2.212009349022992e-05,1.6371943274862133e-05,4.5303954721021e-06,2.8301128622842953e-06,5.4438947699964046e-05
-2.034413228102494e-05,3.861104778479785e-05,-7.750944064355281e-08,3.336040435897303e-06,5.6631492043379694e-05
-2.4140563255059533e-05,4.9111786211142316e-05,1.697198399597255e-06,-5.63714195322973e-07,5.704172144760378e-05
-2.659952951944433e-05,4.88234763906803e-05,8.45522663439624e-06,-4.173145043750992e-06,5.323361256159842e-05
-2.8498805477283895e-05,4.565573181025684e-05,1.4448717593040783e-05,-2.619575980133959e-06,4.54609798907768e-05
-2.9918630389147438e-05,5.029205567552708e-05,1.1791585166065488e-05,-3.362801635375945e-06,4.019678453914821e-05
-2.9697164791286923e-05,6.0095986555097625e-05,1.7620475318835815e-06,-1.0593347724352498e-05,4.0894406993174925e-05
-2.90995194518473e-05,6.636616308242083e-05,-6.936802037671441e-06,-1.6613079424132593e-05,4.4573480408871546e-05
-3.0065375540289097e-05,6.4189123804681e-05,-9.427680197404698e-06,-1.6462301573483273e-05,4.571477256831713e-05
-3.3684766094665974e-05,5.9190733736613765e-05,-6.6762831920641474e-06,-1.3792613572150003e-05,4.355813507572748e-05
-3.610139538068324e-05,5.44692411494907e-05,-4.800360784429358e-07,-1.1176391126355156e-05,4.3865573388757184e-05
-3.6069868656340986e-05,5.159834836376831e-05,3.586248340070597e-06,-8.484898899041582e-06,4.742004966828972e-05
-3.715771163115278e-05,5.141061046742834e-05,2.119261807820294e-06,-9.123861673288047e-06,5.048213279224001e-05
-3.845529499812983e-05,5.391445665736683e-05,8.529379442734353e-07,-8.611167686467525e-06,5.253453491604887e-05
-3.4544897062005475e-05,5.277086893329397e-05,6.52777907816926e-06,-4.401119440444745e-06,5.4065829317551106e-05
-2.8927690436830744e-05,4.5500539272325113e-05,1.3740496797254309e-05,-1.4651388937636511e-06,5.548720946535468e-05
-2.876277721952647e-05,3.9650025428272784e-05,1.4751062735740561e-05,-3.26946314999077e-06,5.920543480897322e-05
-3.928804653696716e-05,3.9331131119979545e-05,1.1801412256318145e-05,-5.94537095821579e-06,6.648002454312518e-05
-5.261185287963599e-05,4.519003414316103e-05,8.17527234175941e-06,-5.7487113735987805e-06,7.356658898061141e-05
-5.429716475191526e-05,5.3116797062102705e-05,3.8052498894103337e-06,-2.4606642909930088e-06,7.360369636444375e-05
-4.8223373596556485e-05,5.6726883485680446e-05,1.6476457176395343e-07,-2.574962763901567e-06,6.65883781039156e-05
-4.264536255504936e-05,5.0986702262889594e-05,-1.575550186316832e-06,-9.135668733506463e-06,6.401586142601445e-05
-3.890041625709273e-05,4.091374285053462e-05,-3.149193162244046e-06,-1.578223418619018e-05,6.614508311031386e-05
-3.295991336926818e-05,3.576134622562677e-05,-2.673474227776751e-06,-1.8358992747380398e-05,6.61200683680363e-05
-2.9051327146589756e-05,3.644659591373056e-05,-8.752965641178889e-07,-1.6113552192109637e-05,6.149514956632629e-05
-3.3052059734473005e-05,3.6402285331860185e-05,1.7660967159827123e-06,-1.2020271242363378e-05,5.570046050706878e-05
-3.6722591175930575e-05,3.099446257692762e-05,4.605057711160043e-06,-1.1392221495043486e-05,5.3926203690934926e-05
-3.667529017548077e-05,2.8013861083309166e-05,3.4125646379834507e-06,-1.549670378153678e-05,5.554293602472171e-05
-3.389241828699596e-05,2.634067823237274e-05,3.644065373009653e-06,-1.9020353647647426e-05,5.691827027476393e-05
-3.6642781196860597e-05,2.0428302377695218e-05,7.376238045253558e-06,-1.856670860433951e-05,5.6652894272701815e-05
-3.69328263332136e-05,1.2182424143247772e-05,8.918226740206592e-06,-1.2944723494001664e-05,5.692365448339842e-05
-3.131089033558965e-05,7.224028877317323e-07,8.683243322593626e-06,-7.902349352661986e-06,5.9491176216397434e-05
-2.0268056687200442e-05,-1.3952220797364134e-05,6.888854841236025e-06,-8.548102414351888e-06,6.159307667985559e-05
-4.699060809798539e-06,-2.4113591280183755e-05,8.160608331309049e-07,-1.3169382327760104e-05,6.198728078743443e-05
1.1805799658759497e-05,-1.9418306692386977e-05,-4.864107722823974e-06,-2.182359094149433e-05,6.231472798390314e-05
2.0634954125853255e-05,-6.7490072979126126e-06,-4.440059001353802e-06,-2.753725493676029e-05,6.370587652781978e-05
1.4503410056931898e-05,3.205906750736176e-06,2.8106023819418624e-07,-2.5409855879843235e-05,6.401079735951498e-05
-1.6785826346676913e-06,6.768995262973476e-06,5.033913112129085e-06,-1.9607092326623388e-05,6.446164479712024e-05
-1.997462095459923e-05,8.794597306405194e-06,8.796382644504774e-06,-1.641981361899525e-05,6.831026257714257e-05
-3.609297709772363e-05,1.609336686669849e-05,1.1234564226469956e-05,-1.5400864867842756e-05,7.484618981834501e-05
-4.7716246626805514e-05,3.699733497342095e-05,1.099469682230847e-05,-1.2220961252751295e-05,7.766565249767154e-05
-4.7904992243275046e-05,6.688368739560246e-05,1.0528934581088834e-05,-6.766872502339538e-06,7.378695590887219e-05
-4.084216561750509e-05,8.333558071171865e-05,1.0791059139592107e-05,-3.7164625155128306e-06,6.898237916175276e-05
-3.3849071769509465e-05,7.031497079879045e-05,8.923357199819293e-06,-1.4571426163456636e-06,6.612353899981827e-05
-3.0253122531576082e-05,3.149707117700018e-05,3.971252681367332e-06,1.9868105027853744e-07,6.277563807088882e-05
-2.126900290022604e-05,-1.6082997262856225e-06,2.1437701889226446e-06,-2.678353894225438e-08,5.9852161939488724e-05
-8.508545761287678e-06,9.848353329289239e-06,2.8436866159609053e-06,-1.4702914086228702e-06,6.390889029717073e-05
-4.5491783566831145e-06,4.893795994576067e-05,2.558489995863056e-06,-4.349368282419164e-06,6.897305866004899e-05
-1.233891089214012e-05,8.448177686659619e-05,8.240975148510188e-06,-8.974272532213945e-06,6.931094685569406e-05
-2.45187220571097e-05,9.712886821944267e-05,1.1980755516560748e-05,-1.2034547580697108e-05,6.708367436658591e-05
-3.1367544579552487e-05,7.941132935229689e-05,1.1986292520305142e-05,-9.849920388660394e-06,6.558991299243644e-05
-3.2098410883918405e-05,6.269237928790972e-05,1.3757447050011251e-05,-8.750860615691636e-06,7.029927655821666e-05
-3.429725256864913e-05,5.526736276806332e-05,1.1181602530996315e-05,-7.762439054204151e-06,7.51313564251177e-05
-3.5005192330572754e-05,5.341856740415096e-05,7.194072168204002e-06,-7.768120667606127e-06,7.20616226317361e-05
-3.553398710209876e-05,5.928255995968357e-05,4.981314759788802e-06,-7.92147602624027e-06,6.595506420126185e-05
-3.897753413184546e-05,6.0856520576635376e-05,4.322864242567448e-06,-1.2334141501924023e-05,6.116367876529694e-05
-4.344899934949353e-05,5.042517659603618e-05,7.800023922754917e-06,-1.7751934137777425e-05,5.890537067898549e-05
-4.460648415260948e-05,4.051743235322647e-05,1.4175111573422328e-05,-1.6907490135054104e-05,5.625384073937312e-05
-4.393250128487125e-05,3.3209398679900914e-05,1.711782897473313e-05,-1.3444139767671004e-05,5.412001701188274e-05
-4.3975152948405594e-05,2.66826173174195e-05,1.6664311260683462e-05,-1.1998095033050049e-05,5.184292240301147e-05
-4.496570545597933e-05,2.2923060896573588e-05,1.4415143596124835e-05,-1.3314451280166395e-05,4.854755025007762e-05
-4.237422035657801e-05,1.788396912161261e-05,1.3610595487989485e-05,-1.5952415196807124e-05,4.923423330183141e-05
-3.3890602935571223e-05,6.996914635237772e-06,1.4026134522282518e-05,-1.906651414174121e-05,5.449857417261228e-05
-2.434654197713826e-05,-7.387033747363603e-06,1.3398873306869064e-05,-1.84630280273268e-05,5.914300709264353e-05
-1.8546115825301968e-05,-1.896920548460912e-05,1.0912528523476794e-05,-1.5660190911148675e-05,6.202852819114923e-05
-1.8923192328657024e-05,-2.4691860744496807e-05,9.05922661331715e-06,-1.3306443179317284e-05,6.390293128788471e-05
-2.133714224328287e-05,-2.1521402231883258e-05,8.411985618295148e-06,-1.2509763109846972e-05,6.58407443552278e-05
-1.9582641471060924e-05,-9.583869541529566e-06,7.411436399706872e-06,-1.3366038729145657e-05,6.902722816448659e-05
-1.3599473277281504e-05,3.253957402193919e-06,9.877449883788358e-06,-1.6248621250269935e-05,6.883701280457899e-05
-1.3960574506199919e-05,8.720530786376912e-06,1.314505971095059e-05,-1.579282252350822e-05,6.278220826061442e-05
-2.2966294636717066e-05,3.890282187057892e-06,1.001882083073724e-05,-1.193689058709424e-05,5.49169271835126e-05
-3.23803978972137e-05,-7.0641458478348795e-06,-3.2383990600237667e-08,-9.30080841499148e-06,5.3754345572087914e-05
-3.258970536990091e-05,-9.773340025276411e-06,-8.445147614111193e-06,-6.0491183830890805e-06,5.782351945526898e-05
-2.5234403437934816e-05,2.2568281110579846e-06,-1.1692153748299461e-05,-2.303296014360967e-06,5.8605626691132784e-05
-1.79565522557823e-05,1.9883353161276318e-05,-8.979006452136673e-06,1.1044251380099013e-07,5.3873791330261156e-05
-2.4827377274050377e-05,3.310360625619069e-05,-5.034240530221723e-06,3.393377937754849e-06,4.893689037999138e-05
-4.309687210479751e-05,3.8235630199778825e-05,-1.9808692286460428e-06,-2.683716729734442e-06,4.872630233876407e-05
-5.687473458237946e-05,3.277808355051093e-05,7.822024599590804e-06,-2.9422348234220408e-05,5.057374437456019e-05
-5.620526280836202e-05,2.415789640508592e-05,1.61732459673658e-05,-5.485146175487898e-05,5.041082840762101e-05
-4.6131917770253494e-05,1.2504651749623008e-05,1.8570746760815382e-05,-5.514915392268449e-05,5.3523566748481244e-05
-3.478127109701745e-05,7.0802875598019455e-06,1.9322822481626645e-05,-4.301260196371004e-05,6.257734639802948e-05
-2.6350029656896368e-05,1.6358633729396388e-05,1.673929364187643e-05,-3.6357665521791205e-05,7.263408042490482e-05
-2.8747068427037448e-05,2.550110366428271e-05,1.5704081306466833e-05,-3.271018431405537e-05,7.704792369622737e-05
-3.805519008892588e-05,2.4993072656798176e-05,1.5838279068702832e-05,-2.7969515940640122e-05,7.502691732952371e-05
-4.288614945835434e-05,2.6107798476004973e-05,1.4197225027601235e-05,-2.2887505110702477e-05,6.921157182659954e-05
-4.3216554331593215e-05,3.057569483644329e-05,9.968883205146994e-06,-1.7619100617594086e-05,6.307146395556629e-05
-4.303945024730638e-05,3.436883707763627e-05,6.101825420046225e-06,-1.5265641195583157e-05,5.89030169066973e-05
-3.522402766975574e-05,4.06920189561788e-05,4.600014563038712e-06,-1.8306634956388734e-05,5.636903370032087e-05
-1.960026565939188e-05,4.626626105164178e-05,3.692040763780824e-06,-2.5997007469413802e-05,5.5174892622744665e-05
-6.9857696871622466e-06,4.4026186515111476e-05,3.2532227578485617e-06,-3.282765828771517e-05,5.214377597440034e-05
-2.774805125227431e-06,3.533682320266962e-05,3.637318059190875e-06,-3.228526475140825e-05,4.822501796297729e-05
-1.7703706589600188e-06,2.726665115915239e-05,5.608886112895561e-06,-2.436803151795175e-05,4.7919631469994783e-05
3.342794570926344e-06,1.852250898082275e-05,7.420686415571254e-06,-1.7824333554017358e-05,5.290393892209977e-05
1.2043499737046659e-05,9.958547707356047e-06,6.9995521698729135e-06,-1.65937435667729e-05,5.960852649877779e-05
2.1292969904607162e-05,5.642521500703879e-06,4.808219273400027e-06,-1.337954199698288e-05,6.211527215782553e-05
2.5907553208526224e-05,6.810850209149066e-06,4.2782585296663456e-06,-8.55064809002215e-06,5.958179463050328e-05
2.124373713741079e-05,1.3312415831023827e-05,7.2055458986142185e-06,-7.68441259424435e-06,5.741094719269313e-05
7.694004125369247e-06,2.9599646950373426e-05,1.2413092917995527e-05,-5.859569228050532e-06,5.880962999071926e-05
-6.675342774542514e-06,4.7271350922528654e-05,1.810547473724e-05,2.68257417701534e-06,6.190917338244617e-05
-1.327793415839551e-05,6.23088562861085e-05,2.3500368115492165e-05,1.2515833077486604e-05,6.169902189867571e-05
-1.7253159967367537e-05,7.442339847330004e-05,3.199892307748087e-05,1.9361434169695713e-05,5.6526176194893196e-05
-1.9191409592167474e-05,7.367724901996553e-05,3.803046638495289e-05,2.673666676855646e-05,5.4421023378381506e-05
-2.195706474594772e-05,6.352682248689234e-05,3.470021692919545e-05,3.078444933635183e-05,5.812477684230544e-05
-2.8475080398493446e-05,5.549815250560641e-05,2.9145110602257773e-05,2.5928658942575566e-05,5.8108344092033803e-05
-3.463335451669991e-05,4.797373912879266e-05,2.557111656642519e-05,1.5692910892539658e-05,5.6119548389688134e-05
-3.923869371647015e-05,2.8782918889191933e-05,1.9724349840544164e-05,6.334365480142878e-06,5.4094925872050226e-05
-3.787058813031763e-05,8.706398148206063e-06,1.48670696944464e-05,2.3801703719072975e-07,5.355248867999762e-05
-3.75057861674577e-05,3.5999864849145524e-06,1.2727612556773238e-05,-5.712506663257955e-06,5.693745333701372e-05
-4.067670306540094e-05,5.8824048210226465e-06,7.854221621528268e-06,-1.1838999853353016e-05,5.8642737712943926e-05
-3.838798511424102e-05,9.80526783678215e-06,3.7425659229484154e-06,-1.8701115550356917e-05,5.9791254898300394e-05
-3.235801341361366e-05,1.736392550810706e-05,2.220412625320023e-06,-2.2713307771482505e-05,5.8879661082755774e-05
-2.8374355679261498e-05,2.7676609533955343e-05,3.2081995868793456e-06,-2.177538954128977e-05,5.4533804359380156e-05
-2.6889010769082233e-05,2.4819051759550348e-05,3.315230514999712e-06,-1.601910116733052e-05,5.10147146997042e-05
-2.333673182874918e-05,5.1046322369074915e-06,2.49168033406022e-06,-1.1324264960421715e-05,5.2954717830289155e-05
-1.7512222257209942e-05,-2.003219742618967e-05,1.5539213791271322e-06,-1.1545557754288893e-05,5.798022903036326e-05
-1.0405328794149682e-05,-3.6133576941210777e-05,9.720862408357789e-07,-1.7223035683855414e-05,6.223265518201515e-05
-7.329707841563504e-06,-3.5020526411244646e-05,1.8804552155415877e-06,-2.4695564206922427e-05,6.467471393989399e-05
-7.611422461195616e-06,-1.8303182514500804e-05,2.9385930702119367e-06,-2.547627445892431e-05,6.491995736723766e-05
-5.947337285761023e-06,2.7210867301619146e-06,1.7008461554723908e-06,-1.7269952877541073e-05,6.184661469887942e-05
-2.0654676973208552e-06,1.557148243591655e-05,-2.540286686780746e-06,-5.668315679940861e-06,5.5453616369049996e-05
2.7530638817552244e-06,2.0010100342915393e-05,-6.813650543335825e-06,8.456290743197314e-07,4.9032616516342387e-05
5.934075488767121e-06,2.0878007489955053e-05,-9.125475116888992e-06,2.7861333364853635e-06,4.265213283360936e-05
4.583333065966144e-06,1.7764221411198378e-05,-7.276753876794828e-06,3.3508754313515965e-06,3.730872776941396e-05
-1.9780172806349583e-06,1.0296710570401046e-05,-2.4110463527904358e-06,5.637042704620399e-06,3.811851274804212e-05
-1.0142522114620078e-05,7.884749720687978e-06,1.6196977412619162e-06,1.1007738066837192e-05,4.4157870433991775e-05
-2.2345457182382233e-05,1.985347807931248e-05,-4.1867468780765194e-07,1.8811715563060716e-05,5.024803976994008e-05
-3.827659020316787e-05,4.4742992031387985e-05,-7.863474820624106e-06,2.4528184439986944e-05,5.323515506461263e-05
-4.852005804423243e-05,5.975942622171715e-05,-1.5426971003762446e-05,2.415010385448113e-05,5.3807219956070185e-05
-5.160776709089987e-05,6.0065412981202826e-05,-1.6700205378583632e-05,1.5451638319063932e-05,5.362417869037017e-05
-4.747597995446995e-05,5.460617467178963e-05,-9.633835361455567e-06,2.6615598471835256e-06,5.3745410696137697e-05
-3.988231037510559e-05,4.6938308514654636e-05,-1.322792741120793e-06,-1.6486255844938569e-06,5.3742485761176795e-05
-3.9566963096149266e-05,4.122669270145707e-05,-1.4412330529012252e-07,-2.8371398457238683e-06,5.416461863205768e-05
-4.098465069546364e-05,3.7689424061682075e-05,-1.5463979252672289e-06,-6.2787353272142354e-06,5.584122482105158e-05
-4.1068946302402765e-05,3.7912948755547404e-05,-4.1803278350016626e-07,-6.180805485200835e-06,5.235565549810417e-05
-4.28275961894542e-05,4.104463369003497e-05,3.6152459870208986e-06,-1.003877059702063e-05,4.973789691575803e-05
-4.1112925828201696e-05,4.1128612792817876e-05,4.423346126714023e-06,-1.4351264326251112e-05,5.364682510844432e-05
-3.331563493702561e-05,3.6904195440001786e-05,1.0313208349543856e-06,-1.546417479403317e-05,6.138184835435823e-05
-3.056580317206681e-05,3.223669045837596e-05,1.0815921314133448e-06,-1.3822803339280654e-05,6.672497693216428e-05
-3.820957863354124e-05,2.84560755972052e-05,3.608759016060503e-06,-1.166971014754381e-05,6.508791557280347e-05
-4.5080683776177466e-05,2.2508085748995654e-05,3.142707328152028e-06,-9.156265150522813e-06,6.152637797640637e-05
-4.684365922003053e-05,2.187930112995673e-05,-1.8827329313353403e-06,-6.037676484993426e-06,6.151156412670389e-05
-4.936277764500119e-05,2.978526936203707e-05,-4.334168352215784e-06,-7.059501058392925e-06,6.304230191744864e-05
-5.700824476662092e-05,4.145467028138228e-05,-4.357665602583438e-06,-1.1209943295398261e-05,6.531275721499696e-05
-6.436080730054528e-05,4.935013930662535e-05,-5.64182437301497e-06,-1.7056165233952925e-05,6.542329356307164e-05
-6.526716606458649e-05,4.902556975139305e-05,-5.880415756109869e-06,-2.226041215180885e-05,6.271526945056394e-05
-6.148693501017988e-05,4.166768121649511e-05,-3.311641648906516e-06,-2.5035908038262278e-05,6.0886843129992485e-05
-5.793573291157372e-05,3.082452531089075e-05,-3.0513501769746654e-06,-2.584879257483408e-05,6.051007585483603e-05
-5.481528569362126e-05,2.214112646470312e-05,-5.2818231779383495e-06,-2.32016718655359e-05,6.3245119235944e-05
-5.094336302136071e-05,2.2073438231018372e-05,-1.4881345578032779e-06,-1.2905505172966514e-05,6.604607187910005e-05
-4.9315745854983106e-05,3.501353785395622e-05,8.184643775166478e-06,-3.4781380691129016e-06,6.471428787335753e-05
-4.909592098556459e-05,5.334042361937463e-05,1.4695952813781332e-05,-3.275945800851332e-06,6.065370689611882e-05
-4.2957468394888565e-05,6.573060090886429e-05,1.579351010150276e-05,-8.706305379746482e-06,5.8442419685889035e-05
-3.08070084429346e-05,6.276497879298404e-05,1.2533480912679806e-05,-1.2908561984659173e-05,5.949291153228842e-05
-1.73839016497368e-05,5.5176042224047706e-05,7.86361579230288e-06,-1.7071184629458003e-05,6.208494596648961e-05
-1.0122297453563078e-06,5.928609607508406e-05,7.274828476511175e-06,-2.091897295031231e-05,6.216605834197253e-05
1.6775891708675772e-05,6.608733383473009e-05,7.478978204744635e-06,-2.3533708372269757e-05,5.862025864189491e-05
3.392113285372034e-05,6.789027247577906e-05,5.871183930139523e-06,-2.8106789613957517e-05,5.6178163504227996e-05
3.720799941220321e-05,7.610904140165076e-05,3.907442078343593e-06,-2.6965326469508e-05,5.740784763474949e-05
2.106040483340621e-05,7.68223762861453e-05,3.3186868222401245e-06,-2.3482720280298963e-05,6.056221172912046e-05
-1.158761847364076e-06,4.550067751551978e-05,2.6475181584828533e-06,-2.4979442969197407e-05,6.10999486525543e-05
-1.5493398677790537e-05,3.4219583540107124e-06,-1.7034703887475189e-06,-2.1744315745308995e-05,5.875709030078724e-05
-1.951449303305708e-05,-1.1017462384188548e-05,-8.2639635365922e-06,-1.7747312085703015e-05,5.990159115754068e-05
-2.6530969989835285e-05,8.674423042975832e-06,-1.07552996269078e-05,-2.078316902043298e-05,6.158837641123682e-05
-3.126598312519491e-05,3.699620719999075e-05,-8.246224751928821e-06,-2.7005085939890705e-05,6.325851427391171e-05
-3.071043101954274e-05,4.714255192084238e-05,-4.355302735348232e-06,-2.813941682688892e-05,6.498991569969803e-05
-2.9336311854422092e-05,3.9094662497518584e-05,-1.9809870082099224e-06,-2.295658487128094e-05,6.609352567465976e-05
-2.8763355658156797e-05,2.964706436614506e-05,-2.112053152814042e-06,-1.5208286640699953e-05,6.297387881204486e-05
-3.0700692150276154e-05,2.921809209510684e-05,-2.9902171263529453e-06,-8.351661563210655e-06,5.9175621572649106e-05
-3.117318919976242e-05,3.270502929808572e-05,-4.6973991629783995e-06,-6.279074568737997e-06,5.761190550401807e-05
-2.8084212317480706e-05,3.6207959055900574e-05,-5.084552412881749e-06,-7.504945187974954e-06,5.7349221606273204e-05
-2.2466439986601472e-05,3.500225648167543e-05,-3.0077328574407147e-06,-1.034605702443514e-05,5.650949606206268e-05
-1.835317198128905e-05,3.32753115799278e-05,7.438355282829434e-07,-1.2645046808756888e-05,5.5388922191923484e-05
-2.00250833586324e-05,4.1403221985092387e-05,7.1164631663123146e-06,-1.2381492524582427e-05,5.551302820094861e-05
-3.0449449695879593e-05,5.805947876069695e-05,1.4110356460150797e-05,-7.418045697704656e-06,5.386158954934217e-05
-4.328921204432845e-05,7.021504279691726e-05,1.3835335266776383e-05,-1.391938212691457e-06,5.202405736781657e-05
-5.2801497076870874e-05,7.056766480673105e-05,8.83058692124905e-06,-3.199695299826999e-07,4.9228998250328004e-05
-5.74164223507978e-05,6.375254451995715e-05,1.0505164937057998e-05,-5.07962340634549e-06,4.6993125579319894e-05
-5.6073826272040606e-05,5.356287510949187e-05,1.7450945961172692e-05,-8.928045645006932e-06,4.7497349441982806e-05
-5.493952994584106e-05,3.8483220123453066e-05,2.216448228864465e-05,-9.294933988712728e-06,5.0010810809908435e-05
-5.741907807532698e-05,1.7808757547754794e-05,2.2172614990267903e-05,-1.2495115697674919e-05,5.355914981919341e-05
-5.0592978368513286e-05,-8.822304948807869e-07,1.4781894606130663e-05,-1.986334245884791e-05,5.828924986417405e-05
-3.759954415727407e-05,-1.125716880778782e-05,3.4537185911176493e-06,-2.089788904413581e-05,6.199054041644558e-05
-2.5740622731973417e-05,-1.684509879851248e-05,-1.0908767080763937e-06,-1.8562026525614783e-05,6.937737634871155e-05
-9.677680282038637e-06,-2.946618951682467e-05,7.1021281655703206e-06,-2.4451375793432817e-05,7.455917511833832e-05
2.106513875332894e-06,-5.6139349908335134e-05,1.4463406841969118e-05,-2.7733383831218816e-05,7.311764056794345e-05
1.8798566088662483e-05,-6.689371366519481e-05,1.6592175597907044e-05,-2.301326094311662e-05,7.42706615710631e-05
3.873895184369758e-05,-4.6342731366166845e-05,2.331321593374014e-05,-1.7993312212638557e-05,7.980704685905948e-05
5.029790190747008e-05,-2.0793579096789472e-05,2.7692747607943602e-05,-1.595708090462722e-05,8.532818901585415e-05
5.484434950631112e-05,-5.855958079337142e-06,2.7704794774763286e-05,-1.3013857824262232e-05,9.036573464982212e-05
5.097528992337175e-05,-7.259864105435554e-06,2.456371657899581e-05,-5.390737896959763e-06,8.935381629271433e-05
4.733495370601304e-05,-1.544475344417151e-05,2.1903224478592165e-05,4.633348453353392e-06,7.970801379997283e-05
3.956024011131376e-05,-2.626083187351469e-05,1.789773341442924e-05,1.3374702575674746e-05,6.973191193537787e-05
2.2232241462916136e-05,-3.3372329198755324e-05,1.2098028491891455e-05,1.751263152982574e-05,6.406312604667619e-05
-2.168764240195742e-06,-3.839063720079139e-05,6.670080892945407e-06,1.4148732589092106e-05,5.968748882878572e-05
-1.879649244074244e-05,-3.1649651646148413e-05,1.320391447734437e-06,3.736416601896053e-06,5.4932905186433345e-05
-1.9989100110251456e-05,-5.305944796418771e-06,-1.8918177602245123e-06,-7.786597052472644e-06,5.36752850166522e-05
-1.18643329187762e-05,2.7608710297499783e-05,-3.6967458072467707e-06,-2.004429916269146e-05,5.7092183851636946e-05
9.423073379366542e-07,5.179760046303272e-05,-3.450211579547613e-06,-3.232698509236798e-05,6.062374814064242e-05
9.895567927742377e-06,6.249520811252296e-05,-2.206441422458738e-06,-3.8971436879364774e-05,6.346672307699919e-05
4.4715297917719e-06,7.156767242122442e-05,-1.7103826621678309e-06,-3.620179268182255e-05,6.948272493900731e-05
-1.4036839274922386e-05,8.926717418944463e-05,-6.975128030717315e-07,-2.8118785849073902e-05,7.638185343239456e-05
-2.8490736440289766e-05,0.0001069250502041541,3.7416882605612045e-06,-2.2385947886505164e-05,8.062370034167543e-05
-3.441729495534673e-05,0.00010423192725284025,8.220017662097234e-06,-2.012415643548593e-05,8.027214789763093e-05
-3.649387872428633e-05,8.003088441910222e-05,1.0239588846161496e-05,-1.7200058209709823e-05,7.373857806669548e-05
-4.677077959058806e-05,5.1003087719436735e-05,9.417620276508387e-06,-1.317803980782628e-05,6.482216122094542e-05
-7.087715493980795e-05,3.317367736599408e-05,8.210153282561805e-06,-1.2672367120103445e-05,6.054205368855037e-05
-9.529131784802303e-05,1.7632231902098283e-05,1.013028850138653e-05,-1.4772329450352117e-05,6.162686622701585e-05
-0.00010394207492936403,7.440335139108356e-06,1.301652446272783e-05,-1.5720590454293415e-05,6.0526410379679874e-05
-9.626345126889646e-05,1.9499526388244703e-05,1.2666099792113528e-05,-1.5280364095815457e-05,5.422381218522787e-05
-8.924364374252036e-05,4.439296026248485e-05,1.0334799299016595e-05,-1.652169885346666e-05,5.015141869080253e-05
-7.842601189622656e-05,6.544570351252332e-05,6.692549959552707e-06,-1.6142541426233947e-05,5.364114622352645e-05
-5.58677566004917e-05,7.548584108008072e-05,3.06472111333278e-06,-1.160394458565861e-05,5.91559692111332e-05
-3.2687534258002415e-05,8.219257870223373e-05,6.426134291359631e-07,-6.011100140312919e-06,6.239019421627745e-05
-1.87676414498128e-05,9.249595314031467e-05,4.978882657269423e-07,2.2327556052914588e-06,6.548348756041378e-05
-2.2958594854571857e-05,9.36436845222488e-05,3.4765841974149225e-06,5.293285539664794e-06,6.72470050631091e-05
-3.473521428531967e-05,8.708942186785862e-05,4.101466856809566e-06,-6.328794825094519e-06,6.727808795403689e-05
-3.632142033893615e-05,7.78180910856463e-05,-1.2131595212849788e-06,-2.0740602849400602e-05,6.436939293053001e-05
-2.5646779249655083e-05,7.46252917451784e-05,-6.605939688597573e-06,-2.020621468545869e-05,6.211201980477199e-05
-2.5129027562798e-05,7.279117562575266e-05,-5.850389698025538e-06,-8.651602911413647e-06,5.896633956581354e-05
-3.503232801449485e-05,6.077216312405653e-05,-7.509821102757996e-07,1.0614808161335532e-06,5.11231592099648e-05
-4.1937433707062155e-05,3.379484041943215e-05,3.917662979802117e-06,8.839930160320364e-06,4.030116178910248e-05
-4.157373768975958e-05,-5.433385013020597e-07,7.098139576555695e-06,1.5219526176224463e-05,3.531101901899092e-05
-3.154646037728526e-05,-3.416166509850882e-05,9.049880645761732e-06,1.4134059711068403e-05,3.824420855380595e-05
-1.6978587154881097e-05,-5.954529842711054e-05,8.526635610905942e-06,7.801053470757324e-06,4.370225724414922e-05
-5.24624238096294e-06,-6.077478974475525e-05,5.981799859000603e-06,9.929030056810006e-06,4.737614290206693e-05
9.255710438083042e-07,-3.176692916895263e-05,4.622079813998425e-06,2.114838207489811e-05,4.805602293345146e-05
1.9735086880245944e-06,9.283369763579685e-06,5.489374416356441e-06,3.0976701964391395e-05,5.0390823162160814e-05
-1.0175448551308364e-05,3.396077227080241e-05,6.868693617434474e-06,3.469938019406982e-05,5.3009393013780937e-05
-2.9444114261423238e-05,3.899493094650097e-05,7.159084361774148e-06,3.186762842233293e-05,5.6235792726511136e-05
-4.3638709030346945e-05,3.351176928845234e-05,5.0600851864146534e-06,2.2820389858679846e-05,5.963095463812351e-05
-4.7062374505912885e-05,2.817358290485572e-05,5.1392780733294785e-06,1.0353906873206142e-05,5.8073590480489656e-05
-4.3942291085841134e-05,2.5230812752852216e-05,7.992770406417549e-06,-1.406697691663794e-07,5.176699414732866e-05
-4.215489752823487e-05,1.3185532225179486e-05,6.590530574612785e-06,-1.14717422547983e-05,4.8579266149317846e-05
-4.337993959779851e-05,-1.6186922948691063e-05,7.384237505903002e-07,-1.723776222206652e-05,4.66319324914366e-05
-3.990564800915308e-05,-3.80114397557918e-05,-1.598024255144992e-06,-7.0887308538658544e-06,4.6402135922107846e-05
-3.4129749110434204e-05,-2.9198097763583064e-05,2.618747430460644e-06,2.7945015972363763e-06,4.71161438326817e-05
-2.9346676456043497e-05,-7.701960385020357e-06,5.237463028606726e-06,8.348207813924091e-08,4.970937879988924e-05
-3.0474089726340026e-05,-9.7959184586216e-07,5.726536983274855e-06,-1.048831927619176e-05,5.2333256462588906e-05
-3.54443873220589e-05,4.490682385949185e-06,7.136751719372114e-06,-2.189131009799894e-05,5.234138370724395e-05
-3.342270429129712e-05,1.6602445612079464e-05,9.07193862076383e-06,-3.576446761144325e-05,5.430540113593452e-05
-2.779519672913011e-05,3.313791603432037e-05,1.2389187759254128e-05,-4.363473999546841e-05,5.153222809894942e-05
-2.003231020353269e-05,4.4715448893839493e-05,9.322124242316931e-06,-3.752058182726614e-05,4.792472827830352e-05
-1.1890369933098555e-05,4.2000065150205046e-05,6.494611625385005e-06,-2.7455176677904092e-05,4.944123065797612e-05
-6.326937182166148e-06,3.551950794644654e-05,6.594059868803015e-06,-2.091190435749013e-05,5.480672189150937e-05
-5.8212117437506095e-06,3.292641486041248e-05,4.4896592044096906e-06,-1.8625156371854246e-05,5.718403190257959e-05
-3.2760276553744916e-06,3.793463474721648e-05,5.731257715524407e-06,-1.5991870895959437e-05,5.748368494096212e-05
3.549248503986746e-06,4.628205715562217e-05,9.473474165133666e-06,-1.437282389815664e-05,5.9434849390527233e-05
4.52964650321519e-06,5.437988511403091e-05,8.942075510276482e-06,-1.4059798559173942e-05,6.214684253791347e-05
-4.851946414419217e-06,5.840712401550263e-05,2.1585540252999635e-06,-2.0283241610741243e-05,6.550067337229848e-05
-1.6739932107157074e-05,6.216818292159587e-05,-6.518097961816238e-06,-2.7874582883669063e-05,6.682072853436694e-05
-2.1196658053668216e-05,6.646118708886206e-05,-1.4076767001824919e-05,-2.6223195163765922e-05,6.639079947490245e-05
-2.294400655955542e-05,6.481158925453201e-05,-1.8286094928043894e-05,-1.834723661886528e-05,6.22339648543857e-05
-2.7921296350541525e-05,5.717505337088369e-05,-1.852898276410997e-05,-1.3632108675665222e-05,5.8892008382827044e-05
-3.462407403276302e-05,4.9418322305427864e-05,-1.548148793517612e-05,-1.7535319784656167e-05,5.898192830500193e-05
-3.554456270649098e-05,4.208090831525624e-05,-8.965537745098118e-06,-2.4392016712226905e-05,5.863900514668785e-05
-2.9616399842780083e-05,3.532056143740192e-05,-1.9418798729020637e-06,-2.7454656446934678e-05,5.427965152193792e-05
-2.360179860261269e-05,3.1951592973200604e-05,-1.6171210859283747e-07,-2.9209313652245328e-05,4.891686694463715e-05
-1.8993219782714732e-05,3.445844049565494e-05,-3.4950426197610795e-07,-3.3877655368996784e-05,4.819758760277182e-05
-1.1996959074167535e-05,4.23089113610331e-05,3.0073542802711017e-06,-3.45751250279136e-05,5.5170839914353564e-05
-5.287981366564054e-06,4.640746919903904e-05,8.887440344551578e-06,-2.6601384888635948e-05,6.469345680670813e-05
-6.095488970458973e-06,4.563937181956135e-05,1.3256816600915045e-05,-1.8499817088013515e-05,7.020991324679926e-05
-1.7857415514299646e-05,5.2574883738998324e-05,1.1330324923619628e-05,-1.512438029749319e-05,6.980738544370979e-05
-3.3627049560891464e-05,7.17622897354886e-05,6.190884505485883e-06,-1.2739370504277758e-05,6.393258809112012e-05
-4.3183645175304264e-05,8.374774915864691e-05,4.35490164818475e-06,-1.1519468898768537e-05,5.836031778017059e-05
-4.8916899686446413e-05,7.485062087653205e-05,3.224176452931715e-06,-2.713827143452363e-06,5.437987420009449e-05
-5.5238975619431585e-05,5.191751552047208e-05,3.1252238841261715e-06,1.2817662536690477e-05,5.653786865877919e-05
-5.625229823635891e-05,2.3713690097793005e-05,5.932716703682672e-06,2.9855398679501377e-05,6.172730354592204e-05
-5.198610597290099e-05,-8.838922553877637e-07,1.1896280739165377e-05,3.743775960174389e-05,6.311494507826865e-05
-5.155476537765935e-05,-2.5511408239253797e-05,1.786076245480217e-05,2.7842163035529666e-05,5.89176852372475e-05
-5.364384560380131e-05,-5.904693534830585e-05,1.9046132365474477e-05,1.4850106708763633e-05,5.318125113262795e-05
-4.714352326118387e-05,-8.130758942570537e-05,1.936557782755699e-05,6.911644959473051e-06,5.318996772984974e-05
-3.186667890986428e-05,-7.582867692690343e-05,2.2256537704379298e-05,4.146430455875816e-06,5.652605614159256e-05
-2.3663118554395624e-05,-5.8410983911016956e-05,2.3841101210564375e-05,-5.099707323097391e-06,6.25291868345812e-05
-2.7722398954210803e-05,-3.716520222951658e-05,1.853181493061129e-05,-1.888163751573302e-05,6.543230847455561e-05
-3.888195351464674e-05,-1.0689981536415871e-05,1.1894797353306785e-05,-3.059660957660526e-05,6.412216316675767e-05
-4.555957275442779e-05,2.1641382772941142e-05,9.898401913233101e-06,-3.402759102755226e-05,5.9364560001995414e-05
-4.13704474340193e-05,4.961193917552009e-05,1.217619046656182e-05,-2.648975896590855e-05,5.403903196565807e-05
-2.7688092814059928e-05,6.390517228282988e-05,1.4109810763329733e-05,-1.6231499103014357e-05,5.197853170102462e-05
-1.2355466424196493e-05,6.828352343291044e-05,1.339284881396452e-05,-1.0055603524961043e-05,5.339901690604165e-05
-1.0631806617311668e-06,7.343299512285739e-05,1.0935211321339011e-05,-1.0864062460314017e-05,5.902376142330468e-05
7.996665772225242e-06,8.151082874974236e-05,7.866923624533229e-06,-1.6092790247057565e-05,6.366531306412071e-05
1.5432942745974287e-05,8.699583122506738e-05,6.620880867558299e-06,-2.0879959265585057e-05,6.346820009639487e-05
1.4414711586141493e-05,9.362974378746003e-05,5.516565124707995e-06,-1.9380302546778694e-05,6.175804446684197e-05
-1.5317053794206004e-06,9.976363071473315e-05,2.6783113753481302e-06,-1.1558095138752833e-05,6.29262940492481e-05
-2.49414260906633e-05,8.777500625001267e-05,2.9293028092070017e-07,-3.756195383175509e-06,6.192636647028849e-05
-4.527165219769813e-05,5.4124946473166347e-05,1.6394415069953538e-06,-3.2933994589257054e-06,5.541948485188186e-05
-5.4304226068779826e-05,1.6590738596278243e-05,5.33495904164738e-06,-8.950079973146785e-06,4.683756924350746e-05
-4.827439261134714e-05,-1.3793204743706156e-05,8.698333658685442e-06,-1.428350242349552e-05,4.415242437971756e-05
-3.01858781313058e-05,-2.8117459805798717e-05,1.1625169463513885e-05,-1.73981625266606e-05,4.791552419192158e-05
-1.2365461770968977e-05,-1.6865373254404403e-05,1.3152681276551448e-05,-1.8039869246422313e-05,5.456386134028435e-05
-6.2248232097772416e-06,1.477814294048585e-05,1.304221495956881e-05,-1.2288107427593786e-05,5.922118725720793e-05
-1.2830162631871644e-05,3.984227805631235e-05,1.3132641470292583e-05,-9.429029432794778e-07,5.6137687352020293e-05
-2.588720053608995e-05,4.604851710610092e-05,1.5825733498786576e-05,8.044567039178219e-06,5.3933086746837944e-05
-3.7726324080722407e-05,4.73589934699703e-05,1.9243199858465232e-05,7.6146611718286294e-06,5.718156899092719e-05
-3.6663459468400106e-05,5.732734643970616e-05,2.1235748135950416e-05,4.9474751904199366e-06,6.147210660856217e-05
-2.9608163458760828e-05,6.860054418211803e-05,2.278213287354447e-05,-1.4035891808816814e-06,6.547132215928286e-05
-2.695944749575574e-05,7.062256918288767e-05,2.1559322703978978e-05,-8.577047083235811e-06,6.799255061196163e-05
-3.066264252993278e-05,7.07968429196626e-05,1.730113035591785e-05,-1.6030001006583916e-06,7.128214929252863e-05
-4.2988467612303793e-05,7.136772183002904e-05,1.1733588507922832e-05,1.518832505098544e-05,7.111152808647603e-05
-5.946312739979476e-05,6.107191438786685e-05,8.411013368458953e-06,2.4913400920922868e-05,6.799613038310781e-05
-7.42748670745641e-05,4.1557774238754064e-05,4.83099211123772e-06,2.12555933103431e-05,6.137049058452249e-05
-7.503465167246759e-05,1.6872920241439715e-05,-6.999382549111033e-07,9.805102308746427e-06,5.6831322581274435e-05
-5.349323328118771e-05,-1.3374707123148255e-05,-4.43001363237272e-06,-3.3551197020642576e-07,5.8728364820126444e-05
-9.404266165802255e-06,-3.400418063392863e-05,-6.776592726964736e-06,-1.0110908078786451e-05,6.311677134362981e-05
3.456630656728521e-05,-2.6744677597889677e-05,-1.3502699403034057e-05,-3.557003219611943e-05,6.823093281127512e-05
5.387221972341649e-05,1.6283647710224614e-06,-2.3007440177025273e-05,-8.480230462737381e-05,7.081446528900415e-05
4.707671541837044e-05,3.464860128588043e-05,-3.0011931812623516e-05,-0.00012934277765452862,6.866404874017462e-05
3.20534200000111e-05,6.981490878388286e-05,-3.20340295729693e-05,-0.00012932965182699263,6.481365562649444e-05
2.985615901707206e-05,0.00010396182187832892,-2.5439758246648125e-05,-8.91831805347465e-05,6.25214452156797e-05
4.200297553325072e-05,0.00011371140135452151,-1.2646055438381154e-05,-4.8978679842548445e-05,6.081594983697869e-05
4.5472064812202007e-05,7.854781142668799e-05,-3.1811803182790754e-06,-2.7798410883406177e-05,6.07869733357802e-05
2.299463449162431e-05,1.981726018129848e-05,-1.5659416021662764e-06,-1.2710598639387172e-05,5.8911318774335086e-05
-9.326211511506699e-06,-2.531031350372359e-05,-2.6305572191631654e-06,2.534865870984504e-06,5.55505721422378e-05
-2.8542503059725277e-05,-5.104101728647947e-05,3.990977575085708e-07,1.6835665519465692e-05,5.354906170396134e-05
-3.540203397278674e-05,-5.6425855291308835e-05,9.000244972412474e-06,3.379486224730499e-05,5.492853597388603e-05
-4.682457438320853e-05,-3.458429273450747e-05,1.5051481568661984e-05,4.9802660214481875e-05,5.695587969967164e-05
-6.369165203068405e-05,-2.2767192149331095e-06,1.688320298853796e-05,5.176862032385543e-05,5.751902790507302e-05
-6.946891517145559e-05,2.377827877353411e-05,1.8260025171912275e-05,4.227947283652611e-05,5.356079782359302e-05
-5.707432865165174e-05,4.647700552595779e-05,1.9210097889299504e-05,2.7817077352665365e-05,4.570801684167236e-05
-4.793705011252314e-05,7.099487993400544e-05,1.9349708964000456e-05,1.5462093870155513e-05,3.8007852708688006e-05
-4.587717558024451e-05,9.28446970647201e-05,1.9025412257178687e-05,1.028258429869311e-05,3.3720392821123824e-05
-3.5830798879032955e-05,0.00010936324542853981,1.789588168321643e-05,8.85009558260208e-06,3.6182187614031136e-05
-1.0595501407806296e-05,0.00010213688801741228,1.5606936358381063e-05,8.491258085996378e-06,4.6046105126151815e-05
1.7109005057136528e-05,5.653594053001143e-05,1.3343887985683978e-05,8.357519618584774e-06,5.8594992879079655e-05
3.225734690204263e-05,-2.3283771952264942e-05,7.593118880322436e-06,7.976013876032084e-06,6.707447755616158e-05
2.6922700271825306e-05,-0.00010520559590077028,-2.057131951005431e-06,3.823869064945029e-06,6.797639071010053e-05
-3.774956439883681e-06,-0.00015130128304008394,-7.0966093517199624e-06,-2.0194540866214084e-06,6.678038334939629e-05
-4.0347636968363076e-05,-0.0001630438637221232,-9.252258678316139e-06,-5.207303274801234e-06,6.593434227397665e-05
-6.713180482620373e-05,-0.00015020390856079757,-1.2070258890162222e-05,-1.674764462222811e-05,6.21301369392313e-05
-7.813831325620413e-05,-0.00010309441859135404,-1.65780456882203e-05,-4.347226058598608e-05,5.288368629408069e-05
-8.227442594943568e-05,-2.2167881979839876e-05,-2.167512684536632e-05,-6.52798917144537e-05,4.047281254315749e-05
-9.167595999315381e-05,5.077038804301992e-05,-2.4989958546939306e-05,-6.205395038705319e-05,3.173570803483017e-05
-9.86541053862311e-05,7.027401443338022e-05,-2.2848531443742104e-05,-4.323593384469859e-05,2.8145092073827982e-05
-8.099445403786376e-05,4.650459231925197e-05,-1.696965227893088e-05,-3.162241046084091e-05,2.967879299831111e-05
-3.367359022377059e-05,2.6995707230526023e-05,-1.2553886335808784e-05,-3.375135929672979e-05,3.650233702501282e-05
2.1500281945918687e-05,3.6751047446159646e-05,-1.185156997962622e-05,-4.48951541329734e-05,4.44247925770469e-05
6.290655437624082e-05,6.364758883137256e-05,-1.211926337418845e-05,-5.618221257464029e-05,4.9075086280936375e-05
8.688930392963812e-05,8.095330122159794e-05,-9.366241101815831e-06,-5.783597589470446e-05,5.1414623158052564e-05
9.509671508567408e-05,7.168101728893816e-05,-3.7843813061044784e-06,-4.351523966761306e-05,5.3754520195070654e-05
8.04651208454743e-05,4.328283102950081e-05,1.5366415482276352e-06,-1.0484444828762207e-05,5.655786662828177e-05
4.242312570568174e-05,3.113518323516473e-05,7.511445801355876e-06,3.57909630110953e-05,5.937965033808723e-05
-2.272722213092493e-06,3.886891863658093e-05,1.777892975951545e-05,8.096169040072709e-05,6.430424400605261e-05
-2.6545052605797537e-05,4.090020229341462e-05,2.6429763238411397e-05,0.00010975488839903846,6.761701661162078e-05
-1.530924600956496e-05,2.926590241258964e-05,3.0927290936233476e-05,0.00011361823999322951,6.462255987571552e-05
1.3755701729678549e-05,2.34439835367084e-06,2.835035957104992e-05,9.180616325465962e-05,6.244410906219855e-05
2.61193035839824e-05,-3.2489955628989264e-05,2.1132585970917717e-05,3.917051071766764e-05,6.793224747525528e-05
1.0414055395813193e-05,-3.9795722841518e-05,9.966421202989295e-06,-2.4557075448683463e-05,7.11686079739593e-05
-1.6570944353588857e-05,-1.7672457033768296e-05,4.841593636228936e-06,-5.3651718189939857e-05,6.548217788804322e-05
-3.451796146691777e-05,-3.936313532904023e-06,1.1565667591639794e-05,-3.876272603520192e-05,6.0677219153149053e-05
-4.434003494679928e-05,-3.248262373745092e-06,1.6196845535887405e-05,-1.258219162991736e-05,6.378841499099508e-05
-5.440704262582585e-05,-1.1382458069419954e-05,1.486598193878308e-05,-2.086941321977065e-06,6.664664397248998e-05
-6.214761378942057e-05,-1.346619137621019e-05,1.4169314454193227e-05,-6.11310360909556e-06,6.376668898155913e-05
-6.292363104876131e-05,6.664873808404082e-07,1.8835395167116076e-05,-1.1888034350704402e-05,6.13904558122158e-05
-5.89299997955095e-05,2.4738053980399854e-05,2.462064912833739e-05,-1.283459732803749e-05,6.607195973629132e-05
-5.560156932915561e-05,3.828794797300361e-05,2.6550786060397513e-05,-9.30239366425667e-06,7.186148286564276e-05
-5.838652214151807e-05,2.7928590498049743e-05,2.46885738306446e-05,-4.9288869377051014e-06,7.332298991968855e-05
-6.544088682858273e-05,1.7386149920639582e-05,1.8678279957384802e-05,-4.568718395603355e-06,6.976372242206708e-05
-7.25495265214704e-05,3.522034239722416e-05,9.740711902850308e-06,-8.914274076232687e-06,6.433184171328321e-05
-7.766815542709082e-05,8.162622543750331e-05,1.4409140476345783e-06,-1.540835182822775e-05,6.003945236443542e-05
-8.150906069204211e-05,0.00012636381143238395,-4.0385325519309845e-06,-2.1302610548445955e-05,5.535435047931969e-05
-8.161381265381351e-05,0.00015156420704443008,-6.1441846810339484e-06,-2.3945689463289455e-05,5.165248512639664e-05
-7.640426338184625e-05,0.0001588604791322723,-3.58377724296588e-06,-2.266002047690563e-05,5.107276956550777e-05
-7.343271863646805e-05,0.00015392436762340367,3.4209499517601216e-06,-2.2108877601567656e-05,5.1321378123247996e-05
-7.11985703674145e-05,0.00013340245641302317,8.0049030657392e-06,-2.447451879561413e-05,4.918285776511766e-05
-6.059727820684202e-05,0.00010220556578133255,8.357294973393437e-06,-2.6368927137809806e-05,4.848876051255502e-05
-4.382488623377867e-05,6.675582699244842e-05,1.029838495014701e-05,-2.4508492060704157e-05,5.111163045512512e-05
-3.3195286960108206e-05,2.7493659217725508e-05,1.5506961062783375e-05,-2.3261918613570742e-05,5.38913081982173e-05
-3.35011282004416e-05,-8.960120794654358e-06,1.8942195310955867e-05,-2.473687163728755e-05,5.517315003089607e-05
-4.068710040883161e-05,-2.9360653570620343e-05,1.8127118892152794e-05,-2.5111685317824595e-05,5.8759160310728475e-05
-4.786955832969397e-05,-2.5566298063495196e-05,1.673294354986865e-05,-2.147387567674741e-05,6.566497177118436e-05
-5.646460340358317e-05,-6.695186129945796e-06,1.31998003780609e-05,-1.8235945390188135e-05,7.366546924458817e-05
-6.849991041235626e-05,7.314307367778383e-06,7.698555236856919e-06,-2.2080888811615296e-05,8.212687680497766e-05
-8.584023453295231e-05,9.207548828271683e-06,5.395163952925941e-06,-2.7156920623383485e-05,8.990430069388822e-05
-9.686483099358156e-05,4.251484369888203e-06,6.456335995608242e-06,-2.1474437744473107e-05,9.064704499905929e-05
-8.93704200279899e-05,4.128108230361249e-06,1.1136978173453826e-05,-4.331016043579439e-06,8.30955759738572e-05
-7.25151039659977e-05,9.257447345589753e-06,1.2749940651701763e-05,2.576064616732765e-06,7.505867688450962e-05
-5.015369242755696e-05,1.0848605597857386e-05,4.0372106013819575e-06,-9.697828318167012e-06,7.269677735166624e-05
-3.1585292163072154e-05,1.678867010923568e-05,-6.102876341174124e-06,-2.484330252627842e-05,7.232251664390787e-05
-2.4779505110927857e-05,3.0095698093646206e-05,-9.66304651228711e-06,-3.019721043528989e-05,6.808631587773561e-05
-2.362651503062807e-05,4.789576996699907e-05,-1.0260851013299543e-05,-3.638979251263663e-05,6.113572453614324e-05
-1.9645163774839602e-05,6.454240065068007e-05,-1.5292040188796818e-05,-5.7893601479008794e-05,5.74002115172334e-05
-1.4552860193361994e-05,8.443146361969411e-05,-2.3568964024889283e-05,-8.991180948214605e-05,5.944615259068087e-05
-2.2950194761506282e-05,0.00010927933180937544,-2.777489680738654e-05,-9.857509576249868e-05,6.227786070667207e-05
-4.772879765368998e-05,0.00013011950068175793,-2.5326937247882597e-05,-6.764950376236811e-05,6.118333112681285e-05
-6.773559289285913e-05,0.00013592107279691845,-1.7424064935767092e-05,-2.5221183022949845e-05,6.055186167941429e-05
-6.39331919956021e-05,0.00012120733299525455,-7.702240509388503e-06,2.5635049496486317e-06,6.68075299472548e-05
-4.084990359842777e-05,9.531239629723132e-05,1.748649196997576e-06,1.2029129720758647e-05,7.674180960748345e-05
-1.2095386409782805e-05,7.98536348156631e-05,1.0313962775398977e-05,1.6278574548778124e-05,8.051890472415835e-05
1.122688627219759e-05,7.380210445262492e-05,1.7682048564893194e-05,2.3878779757069424e-05,7.582135731354356e-05
2.695838156796526e-05,4.926115434500389e-05,1.984992741199676e-05,3.188276241417043e-05,6.805972952861339e-05
4.056513716932386e-05,2.9985721994307823e-06,1.8061917216982692e-05,3.142400237265974e-05,6.217078771442175e-05
5.3155337809585035e-05,-3.7861536839045584e-05,1.7328608009847812e-05,2.4588209271314554e-05,5.819531361339614e-05
5.7825513067655265e-05,-5.497144957189448e-05,1.9004926798515953e-05,1.567207982589025e-05,5.5213458836078644e-05
5.413157123257406e-05,-5.212434916757047e-05,1.934985994012095e-05,5.3422354540089145e-06,5.34232021891512e-05
4.744547914015129e-05,-4.93467268825043e-05,1.3333406059246045e-05,-4.07220795750618e-06,5.3459607443073764e-05
4.825687574339099e-05,-5.286433224682696e-05,3.928867499780608e-06,-1.0297418157279026e-05,5.849935405422002e-05
4.5509168558055535e-05,-3.8025598769309e-05,-3.301229980934295e-06,-1.1825985893665347e-05,6.466877675848082e-05
1.9139586584060453e-05,9.102232070290484e-07,-6.106210548750823e-06,-8.661906576890033e-06,6.684698018943891e-05
-9.564026186126284e-06,2.7901469366042875e-05,-3.496164254102041e-06,-6.908362593094353e-06,6.270952872000635e-05
-1.2366649571049493e-05,2.243569542770274e-05,6.861120709800161e-06,-9.759070962900296e-06,5.096791574032977e-05
3.2781226764200255e-06,1.3964331628812943e-05,1.155654445028631e-05,-1.2266132216609549e-05,4.44437719124835e-05
8.076117410382722e-06,2.7159543606103398e-05,3.660908987512812e-06,-6.35752257949207e-06,4.6327619202202186e-05
-6.56625843475922e-06,5.4388950957218185e-05,-6.813153959228657e-06,4.5652159315068275e-06,4.953127063345164e-05
-3.709716838784516e-05,6.476850830949843e-05,-1.410469940310577e-05,1.0610320714476984e-05,5.313520523486659e-05
-6.49513749522157e-05,5.3539301006821916e-05,-1.625542063266039e-05,5.375161435949849e-06,5.226862049312331e-05
-7.024415390333161e-05,4.31568842031993e-05,-1.4897954315529205e-05,-8.086453817668371e-06,5.072021303931251e-05
-5.595998663920909e-05,3.876246773870662e-05,-7.319409633055329e-06,-1.8472499505151063e-05,5.2867391787003726e-05
-3.87625623261556e-05,3.7922080082353204e-05,3.3498822631372605e-06,-2.275192309753038e-05,5.6874214351410046e-05
-3.07261616399046e-05,3.5646226024255157e-05,1.2933080142829567e-05,-1.8781593098537996e-05,5.55082515347749e-05
-2.7626476367004216e-05,2.9063268812024035e-05,1.620209513930604e-05,-1.352599065285176e-05,4.8760135541670024e-05
-2.662411679921206e-05,2.389681503700558e-05,1.4969084077165462e-05,-1.22140900202794e-05,3.614891102188267e-05
-2.7023126676795073e-05,2.4624305297038518e-05,1.5814446669537574e-05,-1.5056600204843562e-05,2.268516800540965e-05
-3.367845783941448e-05,2.67967061517993e-05,1.8519947843742557e-05,-1.6812304238555953e-05,1.2941703971591778e-05
-4.189895116724074e-05,2.651580871315673e-05,2.2757010810892098e-05,-1.6033494830480777e-05,5.317440809449181e-06
-4.3720916437450796e-05,2.718503492360469e-05,2.3910411982797086e-05,-1.5600056940456852e-05,1.1746387826860882e-06
-4.171607724856585e-05,3.127338277408853e-05,1.7315385775873438e-05,-1.479409183957614e-05,2.713141839194577e-06
-4.0897321014199406e-05,3.3023126889020205e-05,7.781374733895063e-06,-1.2072167010046542e-05,5.921735009906115e-06
-3.6350309528643265e-05,2.807907367241569e-05,3.2202174224948976e-06,-9.715469786897302e-06,2.8104486773372628e-06
-2.4712311642360874e-05,2.013058474403806e-05,1.8694803429752938e-06,-1.1952461136388592e-05,-2.9601594633277273e-06
-1.5320350939873606e-05,1.9334458556841128e-05,3.481871317490004e-06,-1.656671338423621e-05,-4.558572072710376e-06
-1.6803753169369884e-05,3.452708187978715e-05,9.214748388330918e-06,-1.6770685761002824e-05,-3.878137704305118e-06
-2.153478817490395e-05,5.3195843065623194e-05,1.8207314496976323e-05,-1.213484301842982e-05,-3.7801610233145766e-06
-2.3420629077008925e-05,5.4593685490544885e-05,2.5108745830948465e-05,-9.697096174932085e-06,1.3051250107309897e-06
-2.7369329473003745e-05,4.247530523571186e-05,2.467478952894453e-05,-1.0201677469012793e-05,1.0563871910562739e-05
-3.0717164918314666e-05,3.119183020316996e-05,1.9648990928544663e-05,-8.158489436027594e-06,2.0256617062841542e-05
-2.853001387848053e-05,2.3130980480345897e-05,1.7132115317508578e-05,-5.4796259973954875e-06,2.441085052851122e-05
-2.3853392121964134e-05,2.022900116571691e-05,1.4241605640563648e-05,-5.893883098906372e-06,2.429832238703966e-05
-3.4871831303462386e-05,2.6211342628812417e-05,1.3909675544709899e-05,-7.21549349691486e-06,1.9087581677013077e-05
-5.794247772428207e-05,3.0973926186561584e-05,1.6448590031359345e-05,-8.064987923717126e-06,1.3810508789902087e-05
-8.048855670494959e-05,2.7557180146686733e-05,1.5031602742965333e-05,-7.189052212197566e-06,1.4213347640179563e-05
-0.00010176486830459908,1.9801944290520623e-05,1.228190194524359e-05,-7.326234936044784e-06,1.7936714357347228e-05
-0.00011797144543379545,1.3623026461573318e-05,1.000797055894509e-05,-8.288565368275158e-06,2.413905349385459e-05
-0.00010891779675148427,1.6631722246529534e-05,6.676856628473615e-06,-1.5805013390490785e-05,3.1426578061655164e-05
-6.241683149710298e-05,2.1567197109106928e-05,5.541238351725042e-06,-2.4531858798582107e-05,4.103719402337447e-05
-7.975409062055405e-06,2.7183030397281982e-05,7.535629720223369e-06,-2.807706914609298e-05,4.939313294016756e-05
2.541178218962159e-05,3.37028868671041e-05,7.310652563319309e-06,-3.084580021095462e-05,5.4017233196645975e-05
4.099374928046018e-05,2.0557396055664867e-05,6.997279342613183e-06,-2.941024831670802e-05,5.58048122911714e-05
5.880358366994187e-05,-9.758756277733482e-06,4.20316428062506e-06,-1.8828770407708362e-05,5.5014399549691007e-05
7.492865552194417e-05,-2.4699662390048616e-05,1.4280835785029922e-06,-4.195272140350426e-06,5.3082247177371755e-05
5.673478153767064e-05,-1.035682998917764e-05,2.402769268883276e-06,7.891698260209523e-06,5.14389066665899e-05
1.0841799849004019e-05,6.979114914429374e-06,5.967753168079071e-06,1.315251847699983e-05,4.7929272113833576e-05
-4.050999450555537e-06,1.1711669685610104e-05,5.487067028298043e-06,1.3486527677741833e-05,4.5998109271749854e-05
2.2029042156646028e-05,1.9878207240253687e-05,1.6272515495074913e-06,1.1160870599269401e-05,5.451545803225599e-05
4.234374864608981e-05,4.0148093830794096e-05,3.388394418379903e-07,4.7558851292706095e-06,7.14549096301198e-05
3.746564834727906e-05,5.9732072259066626e-05,-2.2250439712934167e-07,-1.3295323242346058e-06,8.84568871697411e-05
2.0276274881325662e-05,5.914295252296142e-05,-3.3916505799425067e-06,-4.269872079021297e-06,9.769843018148094e-05
-9.751216566655785e-06,2.8757520340150222e-05,-6.62989987176843e-06,-1.1847670066345017e-05,9.651485015638173e-05
-5.735665399697609e-05,-1.0042632311524358e-05,-9.594574294169433e-06,-2.498343565093819e-05,8.791816071607172e-05
-0.0001034404631354846,-2.767654586932622e-05,-1.2495947885327041e-05,-2.9333024940569885e-05,7.765193731756881e-05
-0.00012093671830371022,-2.225805292255245e-05,-1.1967897989961784e-05,-2.4017001123866066e-05,7.479170744773e-05
-0.00010398367885500193,9.050630069395993e-06,-9.685542863735463e-06,-1.629383405088447e-05,7.605364953633398e-05
-6.784204015275463e-05,7.287530024768785e-05,-8.011237696337048e-06,-1.1264533895882778e-05,7.74792570155114e-05
-3.128902244498022e-05,0.00012426146713551134,-6.2201415857998654e-06,-1.310111656493973e-05,8.383802196476609e-05
-1.1022062608390115e-05,0.00012064519978594035,-4.127212378080003e-06,-2.0068642697879113e-05,9.213552402798086e-05
-2.1486121113412082e-05,9.89706240943633e-05,-4.0028289731708355e-06,-2.3041046006255783e-05,9.585588122718036e-05
-4.037557664560154e-05,9.376060916110873e-05,7.875640903876047e-07,-2.6090183382621035e-05,9.841381688602269e-05
-5.020843309466727e-05,9.05753331608139e-05,5.625999619951472e-06,-3.106459917034954e-05,0.00010188020678469911
-6.364789442159235e-05,7.250988710438833e-05,4.285564955353038e-06,-3.130326876998879e-05,0.00010147687135031447
-7.856004231143743e-05,5.136912295711227e-05,3.729569016286405e-06,-2.7638598112389445e-05,9.75960138021037e-05
-8.680423343321308e-05,3.668091812869534e-05,4.698585598816862e-06,-2.3465618141926825e-05,9.3472859589383e-05
-7.875112351030111e-05,1.7457374269724824e-05,4.528269073489355e-06,-1.648209581617266e-05,9.136889275396243e-05
-5.943687938270159e-05,-3.595181624405086e-05,4.863175945502007e-06,-1.1664520570775494e-05,9.17972793104127e-05
-3.587453829823062e-05,-0.00011933416681131348,-4.27611070108469e-07,-1.7780004782252945e-05,9.159313776763156e-05
-2.30624464165885e-05,-0.00015950208762660623,-5.270987003314076e-06,-2.4698578272364102e-05,8.728297689231113e-05
-1.6798829165054485e-05,-0.00012016705295536667,-5.454618531075539e-06,-2.2351094230543822e-05,8.126788452500477e-05
-7.795656529197004e-06,-5.272465932648629e-05,-4.9228624448005576e-06,-1.557741779834032e-05,7.776333950459957e-05
-3.6928463487129193e-06,-1.302960572502343e-05,-4.809379333892139e-06,-9.259926628146786e-06,7.80495029175654e-05
-1.868129038484767e-05,-2.9862112569389865e-06,-3.5464317988953553e-06,-3.1095698886929313e-06,7.831599214114249e-05
-5.3054671298014e-05,6.454741196648683e-06,-6.070461040508235e-07,3.526550244714599e-06,7.569469744339585e-05
-8.045246067922562e-05,2.5964911401388235e-05,2.5140006982837804e-06,1.2711941053566989e-05,7.373902190010995e-05
-8.428852743236348e-05,4.1584506107028574e-05,7.581848876725417e-06,2.281718116137199e-05,7.245499728014693e-05
-7.096993795130402e-05,4.410529800225049e-05,1.43639799716766e-05,2.5533276129863225e-05,7.096063200151548e-05
-5.587123814621009e-05,3.9718212065054104e-05,2.3194948880700395e-05,1.6854581190273166e-05,6.957619189051911e-05
-4.342883767094463e-05,3.388892218936235e-05,2.732087523327209e-05,2.2143694877740927e-06,6.963738997001201e-05
-3.3373380574630573e-05,2.7971096642431803e-05,2.313422373845242e-05,-1.1749889381462708e-05,7.09328887751326e-05
-2.479479917383287e-05,2.3555636289529502e-05,1.6651709302095696e-05,-2.3709415472694673e-05,7.339871808653697e-05
-2.2747211914975196e-05,1.462730870116502e-05,1.1872210052388255e-05,-3.327191370772198e-05,7.790130621287972e-05
-2.1982194084557705e-05,3.894655037584016e-06,8.917229934013449e-06,-3.792240022448823e-05,8.283583883894607e-05
-1.6516587493242696e-05,2.2127369447844103e-06,8.884422641131096e-06,-3.484776243567467e-05,8.809167047729716e-05
-7.972329512995202e-06,1.089031411538599e-05,8.910332326195203e-06,-2.780245449685026e-05,9.157414024230093e-05
1.444291456209612e-06,2.7410640541347675e-05,1.1486211406008806e-05,-2.4126482458086684e-05,9.572941053193063e-05
1.1409745638957247e-05,5.0637223466765136e-05,1.0872972779907286e-05,-1.3363863217819016e-05,0.00010820082388818264
1.8500837541068904e-05,7.608911255374551e-05,8.726980013307184e-06,2.2860106128064217e-06,0.00012372282799333334
2.2065061784815043e-05,8.661912579555064e-05,1.1406500561861321e-05,1.7219856090378016e-05,0.0001296275295317173
2.0329309336375445e-05,6.268044671742246e-05,1.375618467136519e-05,2.7824053177027963e-05,0.000126784696476534
1.1924225873372052e-05,2.362780833209399e-05,1.643826180952601e-05,2.793317435134668e-05,0.00012454278476070613
4.986606654711068e-06,1.3596420103567652e-05,2.1493822714546695e-05,2.1230162019492127e-05,0.0001249066408490762
-2.1909565930400277e-06,3.700491652125493e-05,2.417858377157245e-05,1.0347920579079073e-05,0.0001239757111761719
-1.595102366991341e-05,6.214681343408301e-05,2.221022623416502e-05,5.544150099012768e-06,0.00012124894419685006
-3.1270075851352885e-05,7.433033897541463e-05,1.7083508282667026e-05,7.787886715959758e-06,0.00011690213432302698
-3.8416299503296614e-05,7.423796341754496e-05,1.176129899249645e-05,1.054404037859058e-05,0.00011213768448214978
-3.7538942706305534e-05,7.525327964685857e-05,9.408749974681996e-06,9.178581422020216e-06,0.00010877991007873788
-4.155347778578289e-05,8.240333409048617e-05,9.196371138386894e-06,5.11285998072708e-06,0.00010558253416093066
-5.084505392005667e-05,9.173908620141447e-05,8.982546205515973e-06,2.5618699055485195e-06,0.00010216881491942331
-5.827001587022096e-05,9.965545177692547e-05,7.815565368218813e-06,4.9453483370598406e-06,0.00010122622188646346
-5.8323035773355514e-05,0.00010351555829402059,6.71260931994766e-06,7.387137884506956e-06,0.00010778879368444905
-5.254242569208145e-05,0.00010196583025390282,4.8555934881733265e-06,1.4124931340120384e-06,0.0001163180495495908
-4.311092561692931e-05,9.523872722638771e-05,1.4413510598387802e-06,-9.045099432114512e-06,0.0001183675994980149
-2.985209721373394e-05,8.973864169092849e-05,-1.8879218259826303e-06,-1.7632504750508815e-05,0.00011648504005279392
-1.6578658687649295e-05,8.744782826397568e-05,-1.3327256738193682e-06,-2.3584032533108257e-05,0.00011684677156154066
-9.366452104586642e-06,7.963205280248076e-05,4.050621100759599e-06,-2.5408851797692478e-05,0.00011993686348432675
-1.2605698429979384e-05,6.059251245460473e-05,1.0569070582278073e-05,-1.7792644939618185e-05,0.00012261768279131502
-2.0250730813131668e-05,4.7103967517614365e-05,1.2426120520103723e-05,-1.8262288676851313e-06,0.00012047401833115146
-2.2450296455645002e-05,4.138594522373751e-05,1.055383836501278e-05,1.5058395547384862e-05,0.00011332017311360687
-1.7719359675538726e-05,4.21152581111528e-05,9.784039320948068e-06,2.5143997845589183e-05,0.0001022081560222432
-1.806584987207316e-05,5.962662908132188e-05,8.565732059651054e-06,2.0178260456304997e-05,8.747947867959738e-05
-3.3147702197311446e-05,8.232512482209131e-05,6.376221790560521e-06,4.640502879738051e-07,7.588511653011665e-05
-5.828552457387559e-05,9.471097291680053e-05,7.237252702907426e-06,-1.838827483879868e-05,6.857926928205416e-05
-7.628070306964219e-05,7.513898162869737e-05,1.0833082342287526e-05,-3.891731466865167e-05,6.833172665210441e-05
-9.21499595278874e-05,6.785450295865303e-06,1.4678711522719823e-05,-6.605148519156501e-05,7.452107820427045e-05
-0.00010688302427297458,-8.57854392961599e-05,1.2141651495767292e-05,-7.796451245667413e-05,7.641073898412287e-05
-0.0001089485886041075,-0.00015432095096912235,2.7886028419743525e-06,-6.810319609940052e-05,7.228508911794052e-05
-9.662317461334169e-05,-0.000161561620188877,-6.2459598666464444e-06,-5.698022141586989e-05,6.604610098293051e-05
-7.119408110156655e-05,-0.00012002718722214922,-1.2188643268018495e-05,-4.928905764245428e-05,5.886707003810443e-05
-4.2899588152067736e-05,-7.253959483932704e-05,-1.7313655916950665e-05,-3.6216864828020334e-05,5.3144754929235205e-05
-1.7435562767786905e-05,-5.525134110939689e-05,-1.7484127965872176e-05,-2.496155684639234e-05,4.9213613237952814e-05
1.110197354137199e-05,-5.2228482672944665e-05,-1.2392515600367915e-05,-2.603095163067337e-05,4.719691787613556e-05
4.043770968564786e-05,-3.1344068702310324e-05,-6.4845121414691675e-06,-3.180303247063421e-05,4.59330331068486e-05
5.633719774778001e-05,1.6507245163666084e-05,1.7610046825211612e-06,-2.7514499379321933e-05,4.32467604696285e-05
4.746355989482254e-05,7.844662468414754e-05,9.550946742820088e-06,-1.8709235519054346e-05,3.695808118209243e-05
2.750815292529296e-05,0.00013234159268904477,1.4175245269143488e-05,-1.5929490473354235e-05,2.952923568955157e-05
2.3699079974903725e-05,0.00016410362150054425,1.5812147466931492e-05,-1.5578747479594313e-05,2.8172071324661374e-05
3.8719677831977606e-05,0.00016493657312821597,1.7616381228435785e-05,-1.3226372175267898e-05,3.5227676562499255e-05
5.259228419163264e-05,0.00013823506014887244,1.8912518498837017e-05,-1.0638905223459005e-05,4.419371907715686e-05
5.96656282141339e-05,9.389511251356453e-05,1.5803561836946756e-05,-9.757565749168862e-06,4.4784035708289593e-05
6.957566074561328e-05,4.46842641395051e-05,7.883657417551149e-06,-1.0674096301954705e-05,3.6736950278282166e-05
8.041442924877629e-05,5.3905118875263724e-06,-2.9177305904681816e-08,-1.2579751455632504e-05,3.232889866922051e-05
7.972095772856846e-05,-4.891957360086963e-06,-3.88445369026158e-06,-1.1687940059346147e-05,3.869055217364803e-05
5.6480294006178156e-05,8.934091056289617e-06,-6.039967047399841e-06,-1.1327392712701112e-05,4.499904389376752e-05
2.1270783690852113e-05,8.134390554914717e-06,-8.62810429680394e-06,-1.62541437020991e-05,4.0321709093404934e-05
2.5688589175842935e-06,-1.2498346222855616e-05,-1.0419791578897275e-05,-2.1043109882157296e-05,2.7730024157790467e-05
4.650699338526465e-06,4.5383484348349157e-07,-1.1303771316306666e-05,-2.1976557036396116e-05,1.8353041014051996e-05
8.506824997311924e-06,4.551485471893102e-05,-1.0540898074395955e-05,-2.227321601822041e-05,1.9852423065458424e-05
2.993624775626813e-06,7.72719577071257e-05,-1.0286865290254354e-05,-2.1740115698776208e-05,2.849862903531175e-05
-1.3463853065331932e-05,7.9363162512891e-05,-1.1087036000390071e-05,-2.2706912204739638e-05,3.4976921597262844e-05
