4.5085726014804095e-05,-0.00010066122194984928,8.868940312822815e-06,-6.990289693931118e-05,3.966210351791233e-05
8.339682608493604e-06,-6.038839273969643e-05,1.9662231352413073e-05,-6.719404336763546e-05,3.36971424985677e-05
-1.51849699250306e-05,-6.18562480667606e-05,2.0794488591491245e-05,-3.81457430194132e-05,3.0059707569307648e-05
-2.909820068452973e-05,-5.9393292758613825e-05,1.1526328307809308e-05,1.2648856682062615e-05,3.3006752346409485e-05
-4.346741843619384e-05,-4.744623583974317e-05,4.325728241383331e-06,4.6665238187415525e-05,4.009340773336589e-05
-5.562873411690816e-05,-1.2709978364000563e-05,4.39960331277689e-06,2.7263960873824544e-05,4.4704840547638014e-05
-5.872230394743383e-05,2.5957817342714407e-05,1.0995439652106143e-06,-1.7722975826472975e-05,4.8798312491271645e-05
-5.04526324220933e-05,4.978822835255414e-05,-3.194049043031555e-07,-4.551267556962557e-05,6.089144881116226e-05
-4.6778732212260365e-05,6.354207289405167e-05,6.2589365370513406e-06,-4.4593496568268165e-05,7.71153936511837e-05
-5.622415119432844e-05,9.921657328959554e-05,1.7603357264306396e-05,-3.170483614667319e-05,8.854022598825395e-05
-6.017832856741734e-05,0.00014816067414358258,2.757278343779035e-05,-1.783910920494236e-05,9.089682134799659e-05
-4.75441302114632e-05,0.00014780298806726933,3.3599564631003886e-05,-9.773315468919463e-06,8.382379019167274e-05
-4.8632904508849606e-05,7.143761467887089e-05,3.727554576471448e-05,-8.729223736736458e-06,7.084581011440605e-05
-8.38535706861876e-05,3.2155778626474785e-06,3.794294752879068e-05,-1.4138960978016257e-05,6.102648330852389e-05
-0.00012288696598261595,2.7491503715282306e-05,3.7614132452290505e-05,-2.2865608116262592e-05,5.9873800637433305e-05
-0.00013038459292147309,8.325617818627506e-05,3.887045386363752e-05,-2.8954031222383492e-05,6.705939449602738e-05
-0.00010702566214604303,7.921930955490097e-05,3.992862912127748e-05,-3.306484722997993e-05,7.079303759383038e-05
-7.220753468573093e-05,2.938579382316675e-05,3.589674815884791e-05,-3.084538911934942e-05,6.355339428409934e-05
-3.737783481483348e-05,-6.892649707879173e-06,2.8893404305563308e-05,-1.786419488780666e-05,5.5414100643247366e-05
-2.8551683044497622e-06,-2.6904939659289084e-05,2.5128438210231252e-05,4.51087487363111e-07,5.48184325452894e-05
3.5630553611554205e-05,-4.438972973730415e-05,2.4924111130530946e-05,1.3534636309486814e-05,5.617207716568373e-05
7.319667201954871e-05,-5.2025159675395116e-05,2.223705996584613e-05,2.4475173631799407e-05,5.8230267313774675e-05
9.760178363649175e-05,-3.0778661312069744e-05,1.4523534446198028e-05,2.8543738153530285e-05,6.301975372480229e-05
0.00011142779112560675,4.442675617610803e-06,6.97144878358813e-06,1.539471122669056e-05,6.630981806665659e-05
0.00011519389954628423,4.742806777358055e-05,5.059986960986862e-06,-1.305833302467363e-05,6.800605478929356e-05
9.524993220111355e-05,0.00010098957136506215,4.588135652738856e-06,-3.534246934577823e-05,6.830493657616898e-05
5.04911040479783e-05,0.0001341460447292775,3.2305858894687844e-06,-3.486065179458819e-05,6.864099123049527e-05
-1.582875665917527e-05,0.00012153087300248444,4.284881015337305e-06,-2.7921634682570584e-05,7.126011769287288e-05
-7.420455222018063e-05,8.143008017214015e-05,7.532175004598685e-06,-2.393974136793986e-05,7.337537681451067e-05
-0.00010239295079372823,4.0100836486089975e-05,9.376473826705478e-06,-2.3744976715533994e-05,7.223153079394251e-05
-0.00010714914969867095,2.748949555098079e-05,5.030856755183777e-06,-4.9544789362698793e-05,6.959318125154823e-05
-9.643671364756301e-05,4.7470704885199666e-05,-6.639284492848674e-06,-9.719633817439899e-05,6.54025498079136e-05
-8.684940985403955e-05,6.0719608882209286e-05,-1.596731090103276e-05,-0.00012544104538392276,5.7692515838425606e-05
-7.609697058796883e-05,3.935340282623656e-05,-2.03508825507015e-05,-0.00011163885210407898,5.146112744114362e-05
-5.3712177759734914e-05,-2.492918611096684e-05,-1.9475715816952288e-05,-6.716530333505943e-05,4.934596654493362e-05
-1.55038451339351e-05,-0.00011670711683109403,-1.3834679521096405e-05,-1.708919990051072e-05,5.100419366499409e-05
2.3895119738881476e-05,-0.00018443056615069509,-7.098568858054932e-06,2.0526840671664104e-05,5.503025386133231e-05
3.416603067307733e-05,-0.00017806874529924244,-5.695824711438036e-06,4.845999865210615e-05,5.4020911193219945e-05
7.853020179027226e-06,-9.460641740588471e-05,-7.733277016086504e-06,6.834396481281146e-05,4.630639887182042e-05
-2.2099613488535397e-05,1.9175733541487716e-05,-5.5218702073034365e-06,7.506100519094616e-05,4.0285041905008256e-05
-2.1337473299354315e-05,0.00010351425589760765,7.403442054965126e-07,7.867427484598011e-05,4.1690895159263164e-05
-3.1217236937663984e-06,0.0001360040478175506,9.764552487467881e-06,9.577822493156418e-05,4.597114457283169e-05
-1.0513159395486582e-05,0.00012812158092856407,1.6391171811847016e-05,0.00011300355254206806,4.800326132681221e-05
-6.143466453067958e-05,8.688826346769929e-05,1.6572406821069308e-05,0.0001029892373480834,4.894287485512905e-05
-0.00012549788516480476,2.4273993403767236e-05,9.79129890765762e-06,6.714182381983846e-05,5.5270760640269145e-05
-0.00015855768288020045,-2.2867214283905923e-05,1.8332226545680896e-06,2.3784252334735356e-05,6.898749415995553e-05
-0.0001510204456280917,-4.276485196896829e-05,-2.345497023270582e-06,-1.5908324712654576e-05,7.968235877342522e-05
-0.00012517257709987462,-7.672797073610127e-05,-1.462429736420745e-06,-4.030610580230132e-05,7.890610868344083e-05
-9.442728332942352e-05,-0.00013761383888777345,2.1479254428413697e-06,-4.056328543811105e-05,7.242450374178588e-05
-6.315040081972256e-05,-0.00015802828420419246,5.612335371552035e-06,-2.5641425963840447e-05,6.736571958754212e-05
-3.3213713322766125e-05,-0.00011965604790020734,5.835287993249949e-06,-1.0968930837407243e-05,6.474864494521171e-05
-9.75690272753127e-06,-5.3421379561768845e-05,5.769782092102105e-06,-9.893688002193812e-06,5.916618829360232e-05
-2.0129539279878372e-06,6.38852798147127e-05,4.593970970745431e-06,-1.6526742911082692e-05,4.768334110849537e-05
-7.008882221271051e-06,0.00021527563512790948,3.229944468330359e-06,-2.2938755137147382e-05,3.8615064113400877e-05
-8.036354302021209e-06,0.00032495521008968353,6.624699381063692e-06,-2.999970456585288e-05,4.1705174226081e-05
9.472770216234494e-06,0.0003509599482640624,1.0726591426646337e-05,-3.378559631528333e-05,5.0610229664016515e-05
5.089077239972539e-05,0.0003401246794965118,1.1232379620196298e-05,-3.5477194614941254e-05,5.381134178605862e-05
9.952281106961891e-05,0.0002842136600520462,6.0949710132263135e-06,-4.125232226215303e-05,5.226065331953578e-05
0.0001256019895663485,0.00016051715647336096,-4.2426174218235246e-07,-4.820200410904363e-05,5.1482995331753045e-05
0.00013119222421664745,8.46812836243771e-05,-3.683338945847936e-06,-4.70977793156635e-05,5.4446816648123786e-05
0.0001277775299968198,8.490418986184523e-05,-2.2087588149588555e-06,-4.0707949665375054e-05,5.5742137192282826e-05
0.00012255655019544065,9.405789751326665e-05,1.1778661246353295e-06,-3.934151754947379e-05,5.350606079446152e-05
9.234406024916098e-05,5.1526651077438146e-05,6.604257123399293e-06,-3.704826667672023e-05,5.1263210480101407e-05
2.8752187063219026e-05,-5.041811164119281e-05,1.1830185940198135e-05,-2.7918433261220343e-05,5.1266179070807993e-05
-8.054834324866533e-06,-0.00013298128033056855,1.0029549230239354e-05,-1.4848877981421538e-05,5.1193437684560195e-05
-3.9201231629704125e-06,-0.0001484428212279454,6.562213911820436e-06,1.1420036116760457e-06,4.926841575070284e-05
3.107725774498249e-07,-0.0001262527657672763,2.426850187475793e-06,1.3204272363509517e-05,4.515181353781372e-05
-1.3795319318887778e-05,-8.885341958375648e-05,-1.2195839644846274e-06,1.2974775017937645e-05,3.715524508152157e-05
-3.4568751289043576e-05,-6.054379991837777e-05,-2.3311217773880344e-06,8.947325113695115e-06,2.6898353098658845e-05
-5.4651551181450486e-05,-6.295582716120407e-05,-3.657175966509385e-06,1.7672338799457066e-05,2.030158975685481e-05
-7.51049883547239e-05,-8.778896881267428e-05,-5.812898507429054e-06,4.258296394255012e-05,2.2094980522524565e-05
-9.1527595941443e-05,-0.0001212525530718267,-7.5414359343994875e-06,6.811692583141848e-05,2.7918053092435002e-05
-0.00010538535570958629,-0.00013811627286486328,-8.909803909773473e-06,7.33375345589593e-05,3.283587648184039e-05
-0.00012338273518253118,-9.591868001734838e-05,-6.187172857607948e-06,4.8913745558820665e-05,3.9023172575980425e-05
-0.00013892879360355437,3.260687435613363e-06,-4.4829874923379975e-07,-1.92435686585668e-06,5.128532575326972e-05
-0.00013423306518234313,9.067717473953962e-05,1.0603646849460802e-09,-7.264457235578448e-05,6.77762072882615e-05
-0.00010936034232145175,0.00013310357462614775,-2.9220777264526987e-07,-0.00013776692503597587,8.290169353131205e-05
-7.619982352480292e-05,0.00014051242033019662,1.3236190170573536e-06,-0.0001479395286878571,9.249266440747306e-05
-3.680597001221031e-05,0.00011855225602630526,-1.9889564555342076e-06,-0.00010344746988266706,9.417146065970883e-05
4.544765943137463e-06,6.950696842977777e-05,-1.0537383786868304e-05,-5.3282554290490225e-05,8.803160017123446e-05
2.5719438781379722e-05,2.365067666687537e-05,-1.2162096936663147e-05,-2.2901949705556035e-05,7.946461118990555e-05
-3.6048036236024927e-06,4.0660970626049675e-06,-7.382175681414083e-06,-8.781297765381169e-06,6.777510861866176e-05
-5.731465353164822e-05,5.045205853093648e-06,-2.89220770355314e-06,-5.362426804822462e-07,5.844759289175272e-05
-8.238962618634105e-05,1.3892394235881511e-05,-2.038109130353405e-07,4.499074748309795e-06,5.6464396038791165e-05
-7.717203698121011e-05,3.4174569009337574e-05,2.046159579549567e-06,2.586295750006684e-06,5.4601478041149676e-05
-5.7997251133201644e-05,6.395807577064261e-05,8.308707037940621e-06,-3.1158012916421285e-06,5.143684757058509e-05
-3.7569425330730155e-05,7.134002953534946e-05,1.5865309251239523e-05,-3.3750125112419482e-06,4.9339276301907375e-05
-2.0322173440945335e-05,5.130605859449133e-05,1.979281114472542e-05,-2.1791865947307087e-06,5.309794141794555e-05
-1.0134596777788829e-05,3.142313289572485e-05,1.9618541045929305e-05,-5.1242741392343305e-06,6.0028862208127975e-05
-7.234154054458486e-06,1.728444294712972e-05,1.9674302166095003e-05,-9.838662663241848e-06,6.50386864435859e-05
-1.0360660780861508e-05,-9.107970072363969e-06,1.8519715013098903e-05,-1.4801542420173064e-05,6.532476982101798e-05
-1.9215172869735397e-05,-5.296591916703619e-05,1.3862475498171989e-05,-1.4235772141546477e-05,6.440267316065729e-05
-3.302121695014648e-05,-7.879387703724205e-05,8.538055226381402e-06,-8.788338163867593e-06,6.618119368795305e-05
-4.3899748561671004e-05,-6.221004878170788e-05,2.4269227196782595e-06,-2.4532130282750586e-06,6.992380076553673e-05
-4.860464468947612e-05,-2.1381581973400898e-05,-6.657976427959511e-07,-8.299450087179139e-07,7.259594713104889e-05
-5.6913220760179684e-05,1.661507849348709e-05,2.806490101647796e-06,-6.664381544396747e-06,7.11331085767597e-05
-7.385025674011558e-05,4.201374758849852e-05,9.331509318144526e-06,-1.2801770026271697e-05,6.65426705381833e-05
-9.065750782610849e-05,6.526923971250653e-05,1.4110735719441436e-05,-1.1738352441170719e-05,6.302992551354691e-05
-0.00010102728265337646,9.949083323590457e-05,1.7103022400988266e-05,-6.589662916667294e-06,5.997220068820752e-05
-0.00011282286141067743,0.0001281021977774799,1.749454349919688e-05,-4.424472535902169e-06,5.682462142431177e-05
-0.00012329375022090971,0.00012589831021614373,1.4850712432235014e-05,-6.7068394855596125e-06,5.643069016514346e-05
-0.00011832019663415849,0.00010454495350131765,1.2161661288700998e-05,-9.415911335963756e-06,5.7282984926132485e-05
-9.532266267342493e-05,8.965393499238417e-05,1.264174443349475e-05,-1.0332269994250964e-05,5.853677066625096e-05
-6.913347897352651e-05,8.240074384957552e-05,1.3687210412172135e-05,-1.2906790288980119e-05,6.306725117610767e-05
-5.2539544412866235e-05,6.190011481521651e-05,1.3648322237713728e-05,-1.5332983821281232e-05,6.837028195150197e-05
-3.741438558790833e-05,3.191541327396408e-05,1.1921124496439006e-05,-1.4642762835137546e-05,6.997694435995072e-05
-1.6204356143134646e-05,1.3440925613394938e-05,6.587247753486736e-06,-1.2861240065831225e-05,7.059243944240734e-05
4.248682671459392e-06,9.061317541636527e-06,4.325757345213788e-06,-1.5792640624567866e-05,7.385213393718004e-05
2.909225986513775e-05,1.1926591469091363e-05,8.70547319209436e-06,-2.7337440769770183e-05,7.279257260961458e-05
4.299512875149958e-05,1.3402222975855693e-05,1.136767150455853e-05,-3.508748341118917e-05,5.91547905059997e-05
4.4185890146763995e-05,3.991929042967968e-05,1.1045507562812418e-05,-3.1150928407441825e-05,4.500010618357919e-05
4.2133324313908815e-05,9.422947186976671e-05,1.4751972230442334e-05,-2.1364114218158647e-05,4.002313653472811e-05
3.0093964596744627e-05,0.00013480722554959357,1.7798709450289607e-05,-4.767172413266962e-06,4.215529406792484e-05
1.0032975296780933e-05,0.0001466599787818268,1.669826997385826e-05,2.5694902433315292e-05,4.7578807425452396e-05
-9.483912435825914e-06,0.00013097001647111028,6.5727572291507386e-06,5.903306737309322e-05,5.193684410187416e-05
-1.8052796804113314e-05,0.00010370347445132211,-7.4305366979388054e-06,6.31795555818826e-05,4.855509541812353e-05
-1.707360934233293e-05,7.0674141170457e-05,-1.2915595107187983e-05,3.44295367540326e-05,4.5285130909178406e-05
-1.1003724466718268e-05,4.720743527286686e-05,-1.0854730135179125e-05,1.4935327499188134e-06,4.9701611715136096e-05
-2.5995168471126817e-06,2.714160109462682e-05,-6.841629328846466e-06,-1.5508576325373724e-05,5.9725145547417924e-05
8.879947927198373e-06,1.0322335128876148e-06,-1.902250801322225e-06,-2.2218579033506103e-05,6.968188972678035e-05
1.5240019820339512e-05,-1.8857761460822076e-05,4.04681486543268e-06,-2.6015995899797417e-05,7.370840467046946e-05
9.822064384934492e-06,-1.92733987205429e-05,1.2329329365456942e-05,-2.8042664780514315e-05,6.889034557389095e-05
-6.9558623181364965e-06,4.9591708375373855e-06,2.0989049517083913e-05,-3.337993621244095e-05,6.014010068611242e-05
-2.684832907107193e-05,4.6854398533469066e-05,2.521878013794776e-05,-3.998418469564058e-05,5.7316170568810776e-05
-3.653072053566575e-05,6.479690637206659e-05,2.383530772931408e-05,-3.4126522223232314e-05,6.357025995384902e-05
-3.0551371310139075e-05,4.586166141962167e-06,1.7604197637410834e-05,-1.1137841283925809e-05,7.23951161489822e-05
-1.9612498363130726e-05,-9.624268568586558e-05,9.512501492281444e-06,1.0220740477961954e-05,7.682689465582371e-05
-1.7678561562206596e-05,-0.0001286203769268468,3.749993311430444e-06,4.9820055210147984e-06,7.811129034962505e-05
-2.4684299205546267e-05,-6.166070670587942e-05,1.0587953056528931e-06,-2.979858618346043e-05,7.360640302067623e-05
-2.953994226118084e-05,2.5563713279552758e-05,-1.4731393775946344e-06,-6.139582546893507e-05,6.368421600200236e-05
-3.079919406445697e-05,6.410561763914302e-05,-7.436111673086998e-07,-6.598172330996022e-05,5.565391984418966e-05
-3.495065902825445e-05,5.739156040363014e-05,3.5817436128127156e-06,-5.8018766139866784e-05,5.603115641861223e-05
-3.4607743145897985e-05,4.860665285377763e-05,7.3543956204957794e-06,-4.863780486630276e-05,5.946726378169842e-05
-2.5972585717681795e-05,2.9429678761516698e-05,5.936685283813858e-06,-2.8452333936002105e-05,5.974397936370224e-05
-1.482735387980938e-05,-2.904670850512048e-07,3.3319511203444563e-06,8.82168114912929e-06,6.007506453897804e-05
-1.7211035810760222e-05,2.3899119128145685e-07,2.5115773496509064e-06,4.2473908251849934e-05,6.014838072587736e-05
-3.666521661216393e-05,2.0453462639125064e-05,2.770983883237932e-06,4.8582682211417705e-05,5.251225229585543e-05
-6.17386176600121e-05,2.9001990696997382e-05,7.456489129253896e-06,3.486933928797953e-05,4.377541699795984e-05
-8.234837878262624e-05,2.6213274395558983e-05,1.0073798875964712e-05,5.877300736756297e-06,4.154400448896922e-05
-7.738472049823031e-05,2.5471552362432703e-05,1.159406474471325e-05,-1.9326998881297186e-05,4.400203033583239e-05
-4.768418875755742e-05,3.0181206966517493e-05,1.5816713130334392e-05,-1.6157529898919165e-05,4.616384831024334e-05
-2.3243333998834714e-05,4.4331118260743096e-05,1.5021932995296083e-05,3.747601795112132e-06,4.871627243119292e-05
-1.7633767129154876e-05,7.872015703469515e-05,7.737793566775508e-06,1.6635211068205535e-05,5.218549267738126e-05
-2.5846959033515304e-05,0.00012083597539458424,1.58680029471725e-06,1.0051637218566611e-05,5.6256772950291634e-05
-3.2034615287557244e-05,0.00015550498210359365,4.50210279723251e-07,-6.1994619500183035e-06,6.28389316261746e-05
-2.5658680897322483e-05,0.00016189739108085632,4.28745750014059e-07,-2.0418954591150396e-05,7.095358159858733e-05
-1.4922576156095602e-05,0.00012049572251271456,-4.4791340769734234e-07,-2.533356200729031e-05,7.497523620259017e-05
-1.082462040358223e-05,1.906298530229833e-05,-4.152528617851203e-06,-2.3277843865798786e-05,6.933499389560893e-05
-1.7596719771972857e-05,-0.00010844336793525144,-7.720107532804832e-06,-1.8284566976944916e-05,5.8432990044821054e-05
-2.763379416137468e-05,-0.00018283653480466455,-8.101179446384776e-06,-1.3459785805025604e-05,5.066901940153912e-05
-2.779297392407898e-05,-0.00016420442261733115,-4.335403446020791e-06,-1.0638090316206217e-05,5.497117672348395e-05
-1.7463717085774988e-05,-9.296646021539345e-05,1.306517901866755e-06,-8.639439329272136e-06,6.980507168918848e-05
-9.145969670498744e-06,-1.4403811292140745e-05,4.285858722141711e-06,-7.087274298100965e-06,7.754348189337179e-05
-4.296631686884211e-06,8.369614079128951e-05,3.066304770982242e-06,-7.87243880040478e-06,6.790832412661985e-05
7.417095275741303e-06,0.00018096687563229352,1.2816619801014895e-06,-1.0624350579746533e-05,5.184315887163393e-05
2.6200859792879783e-05,0.0001552306639496237,1.8666814867174253e-06,-1.3648085769091267e-05,4.263905793777667e-05
4.708513733930886e-05,-3.243621904402971e-05,1.1189289352842025e-06,-1.673971382842865e-05,4.25205726060085e-05
6.323544948827475e-05,-0.00014859966177027673,-1.237166543432977e-06,-1.5540859749307856e-05,4.60030059912242e-05
6.519268936244771e-05,-7.399942114716396e-05,2.2646258912573103e-07,-8.75050864124205e-06,5.177811181056313e-05
5.6466196838300675e-05,3.334469874971546e-05,6.611841854464728e-06,-3.365962811585632e-06,5.94247248955071e-05
4.7995697968872264e-05,5.031654654885642e-05,1.0150139132747427e-05,-7.170097887865268e-06,6.244338146643713e-05
3.209335409337655e-05,-6.875195595057448e-07,7.512717274948955e-06,-1.5057342352520209e-05,5.5576732847839594e-05
2.1628788999805693e-06,-2.3691471142228693e-05,4.7482817677746425e-08,-1.868533217930235e-05,4.996773350285366e-05
-2.4593868147348985e-05,2.5639239993324736e-06,1.7633378774917219e-06,-1.551712011860218e-05,5.282516576698981e-05
-3.345516961417161e-05,2.9382357752183452e-05,1.1918647032871377e-05,-1.4341302630782593e-05,5.691204569302499e-05
-2.3259597583091818e-05,2.6389805498183705e-05,1.642636016185861e-05,-1.2273363608983345e-05,6.007933188811876e-05
-6.827797278674552e-06,-1.132999045694305e-06,1.5050312867970206e-05,-6.121088972577127e-06,6.219201168278232e-05
-2.368184141232632e-06,-2.4655902961967513e-05,8.371476724278182e-06,-1.9104602415609406e-06,6.264031981118023e-05
-1.3160794878785964e-05,-2.3287317162612453e-05,5.998235508286598e-08,-4.934591288474621e-06,6.639859930146486e-05
-2.5166207706206478e-05,9.56593794398941e-07,-6.616305199713679e-06,-1.4744354302820284e-05,6.844736344646662e-05
-3.310208558104932e-05,4.797261499334127e-05,-7.235627435875358e-06,-3.1613450119039044e-05,6.183166988193989e-05
-3.4390737710054964e-05,0.00010413092240924016,-2.783392574201571e-06,-5.964842421235517e-05,5.478791717905551e-05
-2.9945695132482797e-05,0.00013089987623970956,4.0668860492587555e-06,-9.789778414415196e-05,5.2350682381074876e-05
-2.5201346943504177e-05,0.00011489639291539788,1.1274662028881721e-05,-0.0001353222905891016,5.0650760385906324e-05
-3.562678102753125e-05,8.122175495373085e-05,1.3752895029028878e-05,-0.00013756378029938787,4.9167967517860234e-05
-9.01305684237741e-05,4.4405522203305736e-05,1.3284574379213154e-05,-8.60932341311127e-05,4.73898253403604e-05
-0.00018032951629720628,1.0926344202744076e-06,1.3792946447210852e-05,1.7468709074819344e-06,4.17344672314357e-05
-0.00024894619127735496,-3.392950020497665e-05,1.3960380783828441e-05,8.342103683389723e-05,3.786903835134581e-05
-0.0002466764417476952,-3.015449874510523e-05,1.1100101801275741e-05,0.00010895131708821282,4.4217813410796225e-05
-0.00018183421343564987,2.7242898795520887e-05,5.791044259240152e-06,6.355635559884831e-05,5.7620665756985545e-05
-9.889394277706742e-05,0.00011796286707976833,1.0804909607031732e-06,-9.059463991434313e-06,7.154985360102728e-05
-3.921232564607635e-05,0.00020460024825297296,6.774096732442558e-07,-5.668414814863354e-05,8.380839426536113e-05
-1.1054396964027546e-05,0.0002441754040773958,5.755527581641218e-06,-6.0241280152695253e-05,8.988827903522179e-05
9.36414744501235e-06,0.000224008530494757,1.189677004731493e-05,-3.355009539518505e-05,8.737593452678993e-05
3.7954450817778707e-05,0.0001719286956358701,1.1103701581305359e-05,4.0568917825112294e-07,7.864726649131626e-05
7.12754626874812e-05,0.00012642845103982836,9.43073882808676e-06,3.2869764254428446e-05,7.047240069368854e-05
0.00010476342868059874,8.349069685209543e-05,1.2420084203768056e-05,6.40121434116736e-05,7.173758058343083e-05
0.0001286551560042426,1.1630151675490197e-05,1.2252316992089618e-05,8.837170025799423e-05,7.618855306645855e-05
0.00013784784823656082,-7.546477718278766e-05,5.704482646251563e-06,9.633284207666293e-05,7.278662815224379e-05
0.00013234623475000262,-0.00010344320617150515,4.465409347176319e-06,8.802369120530784e-05,6.189157284097746e-05
0.00010046415263786912,-4.925575194647536e-05,1.4364189155458007e-05,7.54656721255742e-05,5.4272968554869294e-05
4.757825445267372e-05,8.103914296953008e-06,2.270139339088928e-05,6.936835416126996e-05,5.409468576544896e-05
3.157240371365333e-07,1.2207707186462358e-05,2.2589170839637518e-05,6.334090721793473e-05,5.3505500545725226e-05
-5.5670887377345935e-05,-2.5114813979598694e-05,1.5331963368225843e-05,4.462007200345397e-05,5.088561010779813e-05
-0.00014092079072725028,-6.410407513612881e-05,7.37932214178727e-06,8.200298907468095e-06,4.9318899982608855e-05
-0.00018659557099454105,-6.166291132103652e-05,7.649302460777108e-06,-2.959258563350886e-05,5.104706360725686e-05
-0.00014976240345276892,-5.3366751672001556e-05,1.1320285921101458e-05,-5.307785249897279e-05,5.21686342835892e-05
-8.662079198984429e-05,-9.3853595899418e-05,9.573450370226055e-06,-5.649192098644562e-05,5.4173371609067544e-05
-4.767071004607715e-05,-0.00011580006685107946,4.532587638550467e-07,-4.4810629333369434e-05,5.439547749119811e-05
-4.4216561946086586e-05,-6.043578468961641e-05,-9.665302968642209e-06,-3.0078759664320387e-05,4.9916681746253744e-05
-5.948073521722108e-05,2.4763277906458825e-05,-1.4942567759135272e-05,-1.8766155335470103e-05,5.1112827350152656e-05
-7.546199776697904e-05,8.15386010799557e-05,-1.6985599359031767e-05,-8.1920425145654e-06,5.9567468269960955e-05
-7.412504783133045e-05,9.476388368057087e-05,-1.3986731573822908e-05,1.9563362911867443e-06,6.359495455399156e-05
-5.250579852145165e-05,7.483301305910572e-05,-4.706106210505823e-06,7.649233339179773e-06,5.534474257729016e-05
-2.220008900621906e-05,3.96837895095814e-05,7.285811079782434e-06,9.78948355623288e-06,4.106002961634658e-05
2.1239331999822753e-06,2.7065058020525612e-05,1.5124497622309718e-05,8.392855306738056e-06,3.148059477098286e-05
1.3846389265381731e-05,6.956086144782603e-05,1.4133261174720246e-05,6.123979801486712e-06,3.0733328458154574e-05
1.978855289053172e-05,0.00013150949962437153,1.009580500976881e-05,9.191575372824445e-06,3.73633301933296e-05
2.7026811949326657e-05,0.00014588313933927566,1.058567977452185e-05,2.1887444745516405e-05,4.441020428203046e-05
2.982537989737466e-05,0.00010684792505344376,1.2812492059310898e-05,3.280203964095563e-05,4.6234992623794824e-05
1.9163631804985926e-05,5.85747002332937e-05,1.1390698091418017e-05,2.9137056117178872e-05,4.654276563087478e-05
3.488163201836869e-06,3.0293844247353263e-05,9.62768081080867e-06,1.7032336472766474e-05,4.979301229468547e-05
-9.020694051287137e-06,3.00928222713992e-05,9.482967470830772e-06,-5.17690159540507e-06,5.947993486188352e-05
-1.1818382517958526e-05,4.988499858882278e-05,6.942404979781713e-06,-4.025538873975165e-05,7.914294837974012e-05
-6.587570169358514e-06,5.416081694420427e-05,3.723916051967535e-06,-6.046875205356628e-05,0.00010211862536380067
-6.821566330472706e-06,-1.0945127542072441e-05,1.1749972372854245e-06,-5.788485941593535e-05,0.00011384980462025851
-2.2554379029315896e-05,-0.00013906390813644975,-2.0114407561777625e-06,-5.092865467304364e-05,0.00010145904525415972
-4.0752718632575125e-05,-0.00015748954319860786,-7.609855401824461e-06,-4.3838841520482674e-05,7.596581417601556e-05
-5.737908213632181e-05,-5.420886373030953e-05,-9.63704769674223e-06,-3.500905222608708e-05,6.305154965957627e-05
-8.050684846239164e-05,2.2274287402979098e-05,-8.357726983376779e-06,-3.2570998882874846e-05,6.308876618277282e-05
-0.00010252189531456679,4.916757097817026e-05,-7.308022304641781e-06,-3.36982193402946e-05,6.559983012266457e-05
-0.00010350007505621761,3.529664900270291e-05,-7.3966875788755715e-06,-3.152938370476477e-05,6.381636194419116e-05
-8.292303391499445e-05,1.2984817658434622e-05,-9.702520401333459e-06,-2.856269566109404e-05,6.187009421410039e-05
-4.9628422857495025e-05,-2.1729403670178726e-05,-1.058746966009494e-05,-2.997139199578669e-05,6.293974729487672e-05
-1.051823710440658e-05,-6.178020703373477e-05,-1.1829811228381004e-05,-3.2642928999848664e-05,6.569225661223754e-05
2.2309804990072735e-05,-9.17085781111382e-05,-9.338382369605824e-06,-3.313057095510885e-05,6.84094411553815e-05
4.092655217391439e-05,-8.785334648564458e-05,-5.6448811847076286e-06,-3.315301000839099e-05,6.751016189809889e-05
4.7495861508650705e-05,-5.6067910918500274e-05,-5.7595134421717376e-06,-3.1604617106495425e-05,6.282843241933733e-05
4.50937841378618e-05,4.452502707863459e-06,-7.844407264201436e-06,-3.220755752408877e-05,6.037439015926793e-05
2.4147419026121497e-05,9.618982585379854e-05,-9.64210630627349e-06,-3.5343760828254744e-05,6.304318230831996e-05
-1.936598891916219e-05,0.00016109083662740886,-1.1531605196068995e-05,-3.411524448893033e-05,6.557151937158778e-05
-6.070486779208295e-05,0.0001269882923224941,-1.1620838449744042e-05,-2.4653983928146772e-05,6.555747677339241e-05
-6.478396971942857e-05,1.0993607247655746e-05,-8.974865522759501e-06,-1.1801192158600315e-05,6.559805478900671e-05
-3.651340011856519e-05,-6.356791709549725e-05,-5.299910753819859e-06,2.6955140128848143e-06,6.748069426976144e-05
-1.2412589057930745e-05,-3.087160439463332e-05,1.4575339264411014e-06,2.0024604964419268e-05,7.12442270014435e-05
-1.5780307876411825e-05,7.031251152511686e-05,9.08994388737483e-06,3.7568774132523686e-05,7.499863568227738e-05
-4.102227831026539e-05,0.0001559806551085785,1.48683520819759e-05,3.944909985875711e-05,7.528560672653839e-05
-6.61939920973964e-05,0.00020541268168017268,1.8298049326403998e-05,1.3519314961740747e-05,7.264877058332786e-05
-7.385647768387571e-05,0.00023238835274241865,1.770665039657615e-05,-1.8756267309072427e-05,6.151149136712775e-05
-6.795435911044478e-05,0.0002365215914323926,1.2361773769953288e-05,-2.8097356334910728e-05,4.1538583900546655e-05
-5.134284947416745e-05,0.0002137922856491059,6.9240759330568835e-06,-4.387623266666196e-05,2.3334083380177617e-05
-2.969192610180471e-05,0.00019764890021178871,8.752765097597148e-06,-6.791349005652592e-05,1.6202571714529768e-05
-2.4112719984259456e-05,0.00018811078916769475,1.7128841136582196e-05,-3.4663884434849024e-05,2.0091671103728004e-05
-3.7517638702411205e-05,0.00012688356218859553,2.4673085135873407e-05,4.501644070842303e-05,2.716889139264822e-05
-3.849379572784528e-05,2.2784910470363684e-05,2.3394864911097102e-05,7.501168147427961e-05,3.640730938059278e-05
-1.1486320545373019e-05,-3.843922968371771e-05,1.3852388292434625e-05,4.993247421225533e-05,4.4158681703265756e-05
1.843682366597932e-05,-3.7834292015759274e-05,5.81307085667504e-06,1.6892008716240525e-05,5.019783566240221e-05
2.816929918481037e-05,-1.6240499462583102e-05,5.007336312701227e-06,-1.5194728803180624e-05,6.69460350763984e-05
2.5773113520699553e-05,1.0467874744790606e-05,1.0537729394854978e-05,-3.7625013646902516e-05,8.960541163105518e-05
2.259737993881572e-05,1.029876216307457e-06,1.2014879757771268e-05,-5.476204751175828e-05,0.0001071971928467974
1.4016005479788873e-05,-4.156585782766342e-05,4.994479695596965e-06,-5.66467315366026e-05,0.0001080617803381756
3.9651749261793157e-07,-3.3131567761301994e-05,1.269106917334284e-07,-6.187428516568616e-05,9.189667616738006e-05
-1.8000615455093794e-05,-5.651864739775192e-06,1.9918809357477585e-06,-8.278765017166734e-05,7.158824882935733e-05
-3.591498898458667e-05,-2.5199504307238385e-05,-1.2436465794962714e-06,-0.00010507198021514341,5.848405271535739e-05
-4.9008653149940073e-05,-9.020419383887202e-05,-1.229732242791215e-05,-0.00010678141552489251,5.474823774420656e-05
-6.149359978735447e-05,-0.00013712365762330592,-2.1956771888653748e-05,-8.616301056463271e-05,5.5315191275440156e-05
-7.22507102182135e-05,-0.00013307176413945854,-2.0002989913336933e-05,-5.530744238058105e-05,5.790471550426446e-05
-7.440456829499453e-05,-0.00012398760009091347,-9.806928574107587e-06,-1.7054831914720125e-05,5.972667713649571e-05
-6.654022581642494e-05,-0.00014728243695572019,-7.320775239350041e-07,2.1682586520910263e-05,5.964636875432916e-05
-5.0458471378078684e-05,-0.0001402876223437488,4.496609108173288e-06,5.0431150157237425e-05,5.929515464231372e-05
-3.19471291732043e-05,-3.284714694018476e-05,7.774006917316001e-06,6.253767787711695e-05,5.6654946092749014e-05
-1.9463392163743265e-05,0.00011337066098349169,1.2548362974484917e-05,7.075218309182674e-05,5.054863140685484e-05
-7.69742200645851e-06,0.00020504483836703002,1.9522602087818086e-05,7.821156759746373e-05,4.718927448266186e-05
1.1500061191327404e-05,0.00022027679369784892,2.5211647880496457e-05,7.442575588356704e-05,4.795622226083651e-05
2.355043397983536e-05,0.00020744831999763846,2.5184648620779626e-05,4.9858324928209186e-05,5.239876554696821e-05
3.5928878787672147e-06,0.00020552051137201488,2.101249629049562e-05,1.3739283531322144e-05,6.093354750191793e-05
-3.989852120866999e-05,0.00020756901358254254,1.3315475371200591e-05,-2.0203282474540174e-05,6.83655816828832e-05
-7.541029481217265e-05,0.00016680519911460578,1.0294279491063207e-05,-4.0896658902056515e-05,7.078148337313905e-05
-9.069676889339462e-05,5.704792056349106e-05,1.4596429537050426e-05,-4.8699315811973065e-05,7.234204531414434e-05
-9.745528222993016e-05,-0.00012382974091451615,2.179198054363951e-05,-4.367465226096101e-05,7.453063881257549e-05
-0.00010855324944714084,-0.00030848520691506565,2.8533540898934007e-05,-3.518105222610757e-05,7.657302194274962e-05
-0.00013127368583809584,-0.0003644433163572103,3.220805956516415e-05,-2.90969546767883e-05,7.817607547622174e-05
-0.0001519563520560041,-0.00027241252246312797,3.591003769543022e-05,-2.4010907509364188e-05,7.693056249991059e-05
-0.0001526883279439062,-0.0001263508020201698,3.994357030023821e-05,-2.0045914425281808e-05,6.658277561655268e-05
-0.00011228689982090145,-2.265025841552415e-06,3.927571015083231e-05,-1.619176873646211e-05,5.552071161218919e-05
-3.405019378988072e-05,4.8115158278960735e-05,3.787186506087892e-05,-5.955862889095442e-06,5.2909836085746065e-05
3.997300882474519e-05,3.942985495086759e-05,3.497421130305156e-05,8.656465070089325e-06,5.4988144256640226e-05
8.963975415099412e-05,1.5892197552602738e-05,2.7276299078948796e-05,1.9814831830444746e-05,5.258121382212266e-05
0.00012081433669663966,3.615326568251476e-05,2.3176131435320713e-05,2.706769919313956e-05,4.71397397632245e-05
0.00015207062824629247,9.497826977167279e-05,2.213120023952797e-05,2.846070856321603e-05,4.61274066765327e-05
0.00017048773588612676,0.00014775604358874261,1.8876435206038877e-05,1.914045787998475e-05,4.9374939408153296e-05
0.00015798312961123884,0.00014718968304805458,1.2461384358175565e-05,1.5205274621621356e-06,5.709849938284606e-05
0.0001284981262870133,0.00010677414684323594,3.888511855620891e-06,-1.0866066986636724e-05,6.628238770645112e-05
9.934260015143082e-05,9.213152952725068e-05,-1.7754153986970778e-06,-1.3920333913119975e-05,7.189211464719847e-05
4.801631439477205e-05,0.00012177210010122508,-3.197007345079328e-06,-1.2605668416654225e-05,7.148926670197397e-05
-4.382440238259733e-05,0.00014729209942743182,-9.028288332046941e-06,-1.2299301488383207e-05,6.733892223564908e-05
-0.00011629709479166195,0.00011872673348989338,-2.1084291802253574e-05,-1.1393975000828505e-05,6.216867041075602e-05
-0.00010651787306414917,4.8924153816187754e-05,-3.0266131943790242e-05,-9.278377547161654e-06,5.8374022046336904e-05
-5.3430700063472614e-05,-1.4912294318492059e-05,-3.106391886831261e-05,-7.9390865721507e-06,5.761599095421843e-05
-2.7663800210575573e-05,-1.866403727035504e-05,-2.596690501377452e-05,-9.160651643469464e-06,5.844505358254537e-05
-3.6586556234396994e-05,2.805004987749271e-05,-1.4883063158777077e-05,-1.1329930202919059e-05,6.073403710615821e-05
-6.250793376239017e-05,5.967731704004109e-05,1.548947807350487e-06,-1.6131722077261657e-05,6.44745523459278e-05
-9.667770791566e-05,1.9836495994240977e-05,1.5274685210897587e-05,-2.1885714886593632e-05,6.554852006956935e-05
-0.00013683925499208272,-2.3799333575880155e-05,2.1060970539110713e-05,-2.4898619813029654e-05,6.044109977665357e-05
-0.0001607682934263721,1.32042632685625e-05,2.4341497919522226e-05,-2.689826396817807e-05,4.934678509016521e-05
-0.00014847269630990922,9.804646106204018e-05,2.8075697628082708e-05,-2.748555561993271e-05,4.4007374526700005e-05
-0.00011680248280754313,0.0001559925585752353,3.0496215913444757e-05,-2.3514829081250355e-05,4.6133543946780264e-05
-8.807772974250838e-05,0.000178986054379493,2.919510006904602e-05,-1.8550186723587103e-05,4.7638488467782736e-05
-7.278943667188287e-05,0.00020886889251414686,2.356262666580733e-05,-1.8605329387355596e-05,5.018533192924224e-05
-6.62936654407531e-05,0.0002382165112067014,2.0611840227502398e-05,-2.1663010556949303e-05,5.313242945703678e-05
-5.2335861255414784e-05,0.0001782076433300972,1.5132395674299914e-05,-1.819777571654413e-05,5.262471313471906e-05
-2.354339449084364e-05,4.4701348087983206e-05,1.0354418009228539e-05,-8.884258932084776e-06,5.250303729553707e-05
1.647074896027334e-05,-7.703633309574798e-05,1.0282394214300439e-05,-9.315042461821577e-07,5.4233521950664e-05
4.19481766584795e-05,-0.00011852030729642138,7.250134785863338e-06,2.762734538919176e-06,5.4534219088964164e-05
4.169308522250503e-05,-5.783152300864458e-05,-1.7842376109911129e-06,4.436699327925453e-06,5.1567658374551684e-05
2.7423815481597558e-05,2.6738023734651506e-05,-7.928460945549887e-06,3.0651178803964285e-06,5.0835940783144906e-05
1.3171404134482145e-05,4.459947012946941e-05,-6.7884961936215404e-06,-5.187067472434137e-06,5.537980541703291e-05
2.8691058560070815e-06,-2.1977337382850237e-05,-5.433172646007733e-06,-2.0468765796977095e-05,5.792555384687148e-05
1.0941672599074082e-06,-0.00013380487507674843,-8.513125976605806e-06,-3.4856959246098995e-05,5.5017077102093026e-05
4.813267878489569e-06,-0.0002262921625515446,-1.8806040316121653e-05,-5.12937294843141e-05,5.035263529862277e-05
1.5607619161528419e-06,-0.0002331027208128944,-2.977017720695585e-05,-7.930478022899479e-05,5.0071092118741944e-05
-9.279291589336935e-06,-0.0001777228753780946,-3.300941898487508e-05,-0.00010734024544944987,5.232702460489236e-05
-1.930797952809371e-05,-0.00011532097414601594,-2.5541834475006908e-05,-0.00011373889719834551,5.071971463621594e-05
-2.5108598492806777e-05,-5.541841528611258e-05,-1.4321795788418967e-05,-9.159019100479782e-05,4.122851532883942e-05
-4.0348615584662184e-05,1.534545299364254e-05,-5.288169631967321e-06,-5.610350126517005e-05,2.7571992177399807e-05
-5.9943700762232766e-05,7.491394353564829e-05,1.743633237794029e-09,-1.925115611811634e-05,1.7946371372090653e-05
-5.213464464759454e-05,0.0001021783536998555,3.4225524814246455e-06,2.876404505514074e-05,1.7495787687948905e-05
-4.097701548744226e-06,0.00011599555000429973,5.895820322621148e-06,9.294387564295903e-05,2.458665767335333e-05
4.9636553740128875e-05,0.00011207314673811197,1.0059169653686695e-05,0.00012756773503497243,3.4080399927916005e-05
6.349111936287954e-05,6.054856567061506e-05,1.6566165868425742e-05,9.854800737230107e-05,4.467008329811506e-05
1.71689080161741e-05,1.4473993360297754e-05,2.3240114387590438e-05,4.5709686673944816e-05,5.998871711199172e-05
-5.0416914746165276e-05,2.6500068997847848e-05,2.9451664886437356e-05,1.344630254607182e-05,7.783603359712288e-05
-8.362870721612126e-05,5.637333379127085e-05,3.465899499133229e-05,3.7884258290432626e-06,9.376793605042621e-05
-8.418803918175399e-05,7.545272819697857e-05,3.325896250316873e-05,8.911475561035331e-06,0.00010292115621268749
-6.617508915951476e-05,8.80803054315038e-05,2.622835927468259e-05,1.9338664060342126e-05,9.05465058167465e-05
-3.5433200537227094e-05,0.00011736647866200656,1.888756378320977e-05,2.1100106096128002e-05,6.784953438909724e-05
-1.3874997421225999e-05,0.00016846971993800253,1.343899202765897e-05,1.4626992197008803e-05,6.034797479514964e-05
-1.232204886036925e-05,0.00018869669293053448,1.517781856819056e-05,1.249294655281119e-05,6.871960067655891e-05
-2.9824865123373456e-05,0.00015477303531952202,1.5997640730347484e-05,9.092076652450487e-06,8.033211634028703e-05
-5.383075767895207e-05,8.950957271736115e-05,1.3247266906546429e-05,-7.122607144083304e-07,8.399539365200326e-05
-7.519812061218545e-05,2.6895582777797244e-05,1.14470158223412e-05,-7.244727839861298e-06,8.081648411462083e-05
-9.473784302826971e-05,-7.588423613924533e-06,7.653717148059513e-06,-7.913777153589763e-06,7.41040930734016e-05
-0.00010904251394094899,-1.7850694348453544e-05,2.2102281036495697e-06,-1.0954056961054448e-05,6.601996574318036e-05
-9.434700041310862e-05,-3.19204009429086e-05,-2.936789996965672e-06,-1.8693746824283153e-05,5.8580208133207634e-05
-4.7003439249238e-05,-6.29244459560141e-05,-9.517467333353125e-06,-2.747845610429067e-05,5.327575854607858e-05
1.1059762073273305e-05,-6.34552925475873e-05,-1.7392259906046093e-05,-3.3901560527738184e-05,5.1862320106010884e-05
5.468376912176609e-05,-1.6544494428671896e-05,-2.365721229580231e-05,-3.5224460589233786e-05,5.3178504458628595e-05
6.770714389858767e-05,3.0966857593739405e-05,-2.1896634279983118e-05,-3.581677083275281e-05,5.375643013394438e-05
5.611003507510759e-05,4.5450327888829634e-05,-1.1863985491800122e-05,-3.858163836412132e-05,5.11534781253431e-05
3.5354369174456224e-05,5.4499356338055804e-05,1.1226271681152866e-06,-4.011548662674613e-05,4.810808241018094e-05
1.913126470753923e-05,6.729516462655738e-05,1.3772893908026163e-05,-3.766463851206936e-05,5.118234912515618e-05
9.21536502573872e-06,5.683573544956744e-05,2.3879405489424244e-05,-3.5470802686177194e-05,6.0243681218707934e-05
5.6397584557998925e-06,1.6191919712582603e-05,2.5981551516451873e-05,-3.7932037230348215e-05,6.689887231914327e-05
4.315595845127973e-07,-3.653109888546169e-05,2.0296740331104957e-05,-4.219086986267939e-05,6.667201523669064e-05
-1.1381161129975226e-05,-6.197673792485148e-05,1.558039730298333e-05,-4.395295763970353e-05,6.526242214022204e-05
-3.0286488254205324e-05,-2.6518078811932355e-05,1.1356122740835417e-05,-3.785788794630207e-05,6.864573515485972e-05
-5.9094239986734465e-05,3.589272455428727e-05,4.628775059245527e-06,-1.9352652088855393e-05,7.23753692000173e-05
-9.28655790630728e-05,5.883928679395467e-05,-1.5466888498849585e-06,-3.7692748264817055e-06,7.325146725634113e-05
-0.00011496060324134305,3.4258140658494085e-05,-3.6911044389853487e-06,-4.733569767267909e-06,6.672123708995059e-05
-0.00012638687621802092,4.729040938400431e-06,-5.4354154599423055e-06,-1.0862360795727e-05,5.183482062420808e-05
-0.00013201379624661058,1.560832060931716e-05,-7.176044164225459e-06,-3.4636025247891666e-06,4.0351154893869534e-05
-0.00012644236267078668,7.42827178328298e-05,-6.953319370950339e-06,1.8167131202062592e-05,3.9030339394230396e-05
-0.00010400135943200439,0.00013243372086435556,-2.1428288619063096e-06,4.034806988784112e-05,4.7779514716239646e-05
-7.008886313997209e-05,0.00014667630603071302,5.303736998030217e-06,4.7207515308400616e-05,5.908136154175736e-05
-4.116198397241533e-05,0.00011295406147837639,6.935561486898223e-06,2.9403616281342693e-05,6.305600254563615e-05
-2.4023178411880508e-05,4.3625961552606896e-05,5.0616590669960715e-06,-8.479898497171234e-06,6.172892608447e-05
-3.0108287774055498e-06,-1.926296863530297e-05,1.8446231706548133e-06,-4.284345413907431e-05,5.599904397968203e-05
2.2597505449084565e-05,-6.990326073719189e-05,-2.4538926481909584e-06,-5.4005686251912266e-05,5.189534567762166e-05
4.591496326611377e-05,-9.780268010217696e-05,-8.064891517278738e-06,-4.448007530299947e-05,5.192894604988396e-05
5.886708459001966e-05,-8.721895574126393e-05,-7.204208941402612e-06,-2.412461253697984e-05,5.3362200560513884e-05
4.833191633224487e-05,-5.1824255933752283e-05,-4.5329113618208794e-07,-5.634441095025977e-06,5.532360592042096e-05
1.3547350135922898e-05,-1.617664202058222e-05,3.360451273692888e-06,3.9378228393616155e-06,5.2913212130079046e-05
-2.774716449494008e-05,1.92466723092366e-05,3.292335804871982e-06,2.5555134470778285e-06,4.640110273612663e-05
-4.341273597674444e-05,5.9682963183149695e-05,1.875183329502761e-06,-2.7499997941049514e-06,4.093688039574772e-05
-3.682911119540222e-05,8.91711752046831e-05,4.069674560014391e-06,-1.9373953819012968e-06,4.264668677933514e-05
-3.314379500807263e-05,0.00010150815796805546,7.631994776602369e-06,5.599294581770664e-06,4.914445162285119e-05
-4.373557385406457e-05,0.00011180981528013945,1.0557517271081451e-05,7.545338121417444e-06,5.49939795746468e-05
-6.53105162200518e-05,0.0001379459718009457,1.2353650163277052e-05,-3.0699065973749384e-06,5.790072464151308e-05
-9.451508958591148e-05,0.0001729255454847589,1.2389170478854794e-05,-1.7831087461672723e-05,5.8341109252069145e-05
-0.00011800646461779252,0.000205871561774984,7.0130222411535215e-06,-3.0106171834631823e-05,5.806386252515949e-05
-0.00012150194379501045,0.00022562462254427373,3.2480136269441573e-07,-4.5438453526003286e-05,5.859298471477814e-05
-0.00010505503450985998,0.000222559945541434,-5.257227257970953e-07,-5.650225648423657e-05,6.114696589065716e-05
-7.575831841677427e-05,0.00018075354455504566,1.174166754935868e-06,-5.098769906908274e-05,6.593270518351346e-05
-3.257820208091289e-05,0.00010907038085861132,-2.396164518359001e-06,-3.4162309020757675e-05,6.823063449701294e-05
1.3081365068501327e-05,4.1268063796451315e-05,-7.527311936428305e-06,-1.718837665976025e-05,6.109447713242844e-05
4.7655776143074036e-05,-3.685711635625921e-05,-1.1701441508193966e-05,-1.1641034689091612e-05,4.8542551667196676e-05
6.714649498462677e-05,-8.595029794378206e-05,-1.4681393622595351e-05,-1.1283352250757162e-05,4.50907573394943e-05
7.244592416100204e-05,-3.388386176084168e-05,-6.106192358856788e-06,-8.09447647043271e-06,5.17540356668178e-05
8.581178553868085e-05,6.535022839671001e-05,6.5375947997381445e-06,-1.948639692272991e-06,5.662424155161716e-05
0.00010685288725653663,9.314292401541024e-05,6.945362201804528e-06,6.914995537954383e-06,5.185136978980154e-05
0.0001139438827522099,-1.2905083167424891e-05,3.785590706684161e-06,1.0541150913923047e-05,4.5673870772589e-05
0.0001041565410559997,-0.00013713238877244294,2.7955625228059944e-06,1.1912611626030412e-05,4.540683585219085e-05
8.433692710241303e-05,-0.00019891343254130334,1.596593222075171e-07,1.4181588085193653e-05,4.4273940147832036e-05
3.107359952991828e-05,-0.00024715924519114196,-5.740658252761932e-06,1.6420615793322213e-05,3.876670962199569e-05
-5.360836803447455e-05,-0.0002512875653337687,-9.49498553382e-06,3.590101914596744e-05,3.3655833249213174e-05
-8.760562195675448e-05,-0.00015685563266742975,-3.925034434359986e-06,5.4759217164246365e-05,3.8373542338376865e-05
-5.104033334646374e-05,-3.495937926345505e-05,1.4097178109295783e-06,4.386538785183802e-05,5.21257497894112e-05
-1.7052678231266327e-05,2.341008439543657e-05,1.9492733827064512e-06,1.658703331486322e-05,6.840583228040487e-05
-3.24669417750556e-05,2.4270875655929558e-05,1.6087859933122672e-07,-1.3558419595938176e-05,7.881849160185084e-05
-9.16222925297916e-05,4.137303403695114e-05,1.086663701244106e-06,-5.807277193525806e-05,8.209911175072193e-05
-0.00014950479089748114,9.913199755828828e-05,4.7389826249855105e-06,-0.00010490485146874562,8.30474600661546e-05
-0.00016990858421195298,0.0001390821998938918,1.037511810864089e-05,-0.00011464913404779509,8.704002539161593e-05
-0.0001492126757511869,0.0001368584780720994,1.641140624997206e-05,-8.424708357779309e-05,8.874314517015591e-05
-0.0001060917493305169,0.00012904340110253543,1.9610439267125912e-05,-4.551147503661923e-05,8.033616904867813e-05
-5.839170262333937e-05,0.00012021278962492943,1.8730579540715553e-05,-2.489519647497218e-05,6.477791612269357e-05
-2.0610470528481528e-05,7.284000457730144e-05,1.7232572645298205e-05,-2.4349705199711025e-05,4.735507536679506e-05
-3.91091862184112e-06,-2.860034328477923e-06,1.7254335034522228e-05,-2.912960189860314e-05,3.6082918086322024e-05
-1.9361168597242795e-06,-6.852152000647038e-05,1.6907204553717747e-05,-2.884763125621248e-05,3.3555883419467136e-05
1.124524624174228e-05,-0.00010897598986048251,1.7001229934976436e-05,-2.5642426408012398e-05,3.942475814255886e-05
4.426393206813373e-05,-0.00012681688531301916,1.645706652197987e-05,-1.1950190128118265e-05,5.054872599430382e-05
7.234309305204079e-05,-0.00010672119242371991,1.5489191355300136e-05,2.307766226294916e-05,6.289606244536117e-05
7.9845885920804e-05,-4.046103640575893e-05,1.8925846234196797e-05,5.21586298418697e-05,7.536831981269643e-05
6.920962186995894e-05,4.514437387115322e-05,2.5449453460169025e-05,3.975048821303062e-05,8.626811904832721e-05
4.399323006509803e-05,0.00010751633817562833,2.569056596257724e-05,3.535345513228094e-06,8.70093863341026e-05
2.1633213691529818e-06,0.00013415540161076933,2.2873475245432928e-05,-1.9861969121848233e-05,7.941485819173977e-05
-4.973615432390943e-05,0.0001264073944184929,2.1919369828538038e-05,-2.2739955966244452e-05,7.728491618763655e-05
-8.951462950790301e-05,6.875736289657652e-05,1.7872491298476234e-05,-1.590935244166758e-05,8.717419405002147e-05
-0.00010454563016537577,-1.6700218111509457e-05,8.939341569202952e-06,-9.581359336152673e-06,9.643062367103994e-05
-9.643551311455667e-05,-6.649917486356571e-05,4.0566609982306545e-07,-8.771383363637142e-06,9.132109698839486e-05
-7.219981489470229e-05,-7.711890793871135e-05,-8.13618771644542e-06,-8.50100059324177e-06,7.530308357672766e-05
-5.776160105597228e-05,-6.256435881368816e-05,-1.5155515939113684e-05,-5.525527285499265e-06,6.0923943237867206e-05
-5.944895383436233e-05,-4.994134087610291e-06,-1.4436769561143592e-05,-7.863534392527072e-07,5.820922160637565e-05
-7.091109728207812e-05,7.106327393557876e-05,-1.1741253729269374e-05,-1.524312210676726e-06,6.086394932935946e-05
-8.203356264857575e-05,0.0001083530078176409,-1.092424281523563e-05,-7.800222192599904e-06,5.9766724007204175e-05
-7.393940904876217e-05,0.00010331919474992901,-7.426936008414486e-06,-1.1582559636735823e-05,5.516334204003215e-05
-4.423333302838728e-05,7.755999104119837e-05,-3.4549980227893684e-06,-1.0850999387912452e-05,5.303491707309149e-05
-1.810545290936716e-05,6.880835280753672e-05,-3.2424939035990974e-06,-8.248195626947563e-06,5.3028521506348625e-05
-1.3538568055082578e-05,9.678919013822451e-05,-3.4825728079113105e-08,-6.677984856651165e-06,5.083018550067209e-05
-2.477478119544685e-05,0.00012815471563953906,9.011639122036286e-06,-2.0440099888219265e-06,4.606038419296965e-05
-4.147430809098296e-05,0.00014781586651224643,1.4956773156882264e-05,1.0515172107261606e-05,4.490007268032059e-05
-5.646002682624385e-05,0.0001704114256426692,1.513048027845798e-05,2.790140570141375e-05,4.789272497873753e-05
-6.849043711554259e-05,0.00019089734996668994,1.7906711946125142e-05,3.6240478948457167e-05,4.9255540943704545e-05
-6.909444346092641e-05,0.00019602203974500299,2.5986812033806928e-05,3.166299939039163e-05,4.8994530516210943e-05
-4.9452297389507294e-05,0.00020454355399124324,2.9179880584706552e-05,1.895049172162544e-05,5.254174902802333e-05
-1.7134021618403494e-05,0.00021226663375273347,2.60295291809598e-05,-3.2300740713253617e-06,5.925459845457226e-05
1.4595443644793704e-05,0.00019342884479556233,2.317701728316024e-05,-3.8297348510241136e-05,6.428511551348493e-05
4.287437332095578e-05,0.00014901728718541563,2.0328432583482936e-05,-6.619533087359741e-05,6.784688594052568e-05
5.584125392488204e-05,9.514005796518177e-05,1.640068512642756e-05,-6.630527786910534e-05,6.767339073121548e-05
4.3462358007673174e-05,3.986975207226351e-05,1.1594222087296657e-05,-4.699993951362558e-05,6.739857053617015e-05
1.4444897715293337e-05,-3.262498285039328e-05,7.093182375683682e-06,-2.45708943111822e-05,6.788755854358897e-05
-1.0593465049169026e-05,-0.00017801264766603708,3.3928092761925654e-06,-7.898299372754991e-06,6.491993553936481e-05
-2.9587114113382995e-05,-0.0003337507077958435,2.398825017735362e-06,1.791932731975976e-06,6.155424489406869e-05
-5.873586633242667e-05,-0.000358963297912851,8.089302355074324e-06,3.96913310396485e-06,6.018495696480386e-05
-9.503654291620478e-05,-0.0002316212048754096,1.1767349860747345e-05,2.9125044420652557e-06,5.889985550311394e-05
-0.00011355771130183712,-6.447893974836916e-05,1.1087513485108502e-05,4.723803613160271e-06,6.159424083307385e-05
-0.00011318374163238332,6.242979725357145e-05,1.1377509508747607e-05,6.438176569645293e-06,6.619987834710628e-05
-0.0001075461259461008,0.00017784094961825758,1.213871655636467e-05,7.976459528435953e-06,6.464061880251393e-05
-0.00010151506285183132,0.00025285838637501,4.0913869270298164e-06,6.168221716507105e-06,5.74115983908996e-05
-0.00010954096796922386,0.00025825700140558183,-1.3578994185081683e-05,-1.5684045138186775e-06,5.064290962764062e-05
-0.00012478791177272797,0.0002453766646794975,-2.3177641196525656e-05,-8.485337275487836e-06,5.001835961593315e-05
-0.00011896502110175788,0.00018846422608476132,-1.4679055311717093e-05,-1.1095927220594604e-05,5.446945215226151e-05
-8.452098700217903e-05,2.661762664502021e-05,3.909827682946343e-06,-1.157240603788523e-05,5.7255616411566734e-05
-4.472947330214083e-05,-0.00013454360305331647,2.035738179984037e-05,-1.4325427400763147e-05,5.6591048632981256e-05
-1.8156057194573805e-05,-0.0002231595281045884,3.205097891623154e-05,-2.1451092834468e-05,5.541999780689366e-05
-2.990523171320092e-06,-0.000310956354951486,3.646287223091349e-05,-3.185146124451421e-05,5.1801285735564306e-05
9.91345223155804e-06,-0.00038940345984883606,3.5546367143979296e-05,-4.088348214281723e-05,4.809136225958355e-05
3.028769242519047e-05,-0.0003707348951138556,3.0312559829326347e-05,-4.477699985727668e-05,4.844038267037831e-05
5.806469562230632e-05,-0.00023686987697146833,2.412426874798257e-05,-4.268556585884653e-05,5.099389090901241e-05
9.479992877459154e-05,-6.040047082933597e-05,1.855933624028694e-05,-3.711320459842682e-05,5.279449760564603e-05
0.00013675846275873482,9.979143214877695e-05,1.2451104339561425e-05,-3.510414171614684e-05,5.30501056346111e-05
0.00015777949010953307,0.00021521076268982142,4.34319008491002e-06,-4.130887464270927e-05,5.2746268920600414e-05
0.00014154917153064162,0.0002552287478465587,-4.378518497105688e-06,-4.680662095779553e-05,5.1413459004834294e-05
0.00010764021862996742,0.00021846398885827512,-8.875897947291378e-06,-4.080661528860219e-05,4.939818609273061e-05
8.193022949853912e-05,0.00016404464258812368,-9.483717803959735e-06,-2.8510898118838668e-05,4.950405491399579e-05
7.17454167897813e-05,0.00012930738739669323,-7.958204150781967e-06,-1.888267433969304e-05,5.189853618503548e-05
7.78324538259767e-05,0.00010153052426176146,-4.647262812795816e-06,-4.079160135006532e-06,5.211470852373168e-05
9.777356899576262e-05,7.420573092531413e-05,3.021860663920961e-07,1.5751958926557563e-05,4.885454472969286e-05
0.00011236108548473567,4.026242459076457e-05,6.339113042486133e-06,3.240829028072767e-05,4.1973773477366194e-05
0.00011503448331495747,-2.3002068701316603e-05,1.297135077038547e-05,4.297916530049406e-05,3.2286068744724616e-05
9.399326518177986e-05,-0.00010780573938973248,1.6391843018936925e-05,4.646275192499161e-05,2.7199237592867576e-05
2.8005784770357423e-05,-0.0001347271609120071,1.8166936570196413e-05,5.014167254557833e-05,2.8289814508752897e-05
-7.022343925200403e-05,-8.602326124673709e-05,2.3948961825226434e-05,5.1813232857966796e-05,3.188380287610926e-05
-0.00013414341083262116,-2.620253508212045e-05,2.7775950002251193e-05,5.0500264478614554e-05,3.641522926045582e-05
-0.00013595883501693606,2.293853867740836e-05,2.0055822460562922e-05,3.692888640216552e-05,4.3824944441439584e-05
-0.00013427104568108916,6.775659130653366e-05,4.617980266630184e-06,1.5592391946483986e-06,5.309275729814544e-05
-0.0001517401251476258,0.00011358834308339283,-9.646694707043935e-06,-4.1041876102099195e-05,6.142463826108724e-05
-0.00017247266077902168,0.00015012115181889385,-1.3037308235652745e-05,-6.620035856030881e-05,6.745042628608644e-05
-0.0001777633442543447,0.0001675064122537151,-4.481843461690005e-06,-5.438163861981593e-05,6.716197822242975e-05
-0.00016156345373019576,0.00018149563402403146,6.223359832802089e-06,-2.3514101485488936e-05,6.565844523720443e-05
-0.00012493210670072585,0.00020948184828739613,7.766248927509878e-06,2.0105485418753233e-06,6.91382956574671e-05
-8.091110794339329e-05,0.00023858992790337652,-2.1963397500712745e-07,1.5198654182313476e-05,7.669908518437296e-05
-4.996973802917637e-05,0.00021714532340411097,-7.66037373978179e-06,1.869778316176962e-05,8.158650598488748e-05
-4.6292017941595986e-05,0.00014365556125994772,-6.5949911913776305e-06,1.8320661183679476e-05,8.101721323328093e-05
-6.466403283411637e-05,8.066587179200724e-05,-1.1156933510392264e-07,1.5403404177050106e-05,7.684907905058935e-05
-8.710584370419383e-05,2.6390225684735924e-05,3.5092477901343955e-06,1.1676242138491943e-05,7.086106052156538e-05
-9.808798495214432e-05,-6.074538760003634e-05,2.7138703444506973e-06,6.727790605509654e-06,6.721734825987369e-05
-9.154363942798227e-05,-0.000125215869047679,1.1498140111143584e-06,-1.241185032085923e-06,6.780377589166164e-05
-7.261043356265873e-05,-9.421657159691676e-05,1.1653419278445654e-06,-1.0726602340582758e-05,7.172826008172706e-05
-5.543418228626251e-05,-1.697066363703925e-05,2.922074827438337e-06,-1.3197352927818429e-05,7.419718895107508e-05
-5.5005632020765916e-05,1.2148172572779004e-05,4.805158823728561e-06,-8.87829446583055e-06,7.297825504792854e-05
-5.686373697244562e-05,-3.5922239476349205e-05,2.8237261631147703e-06,-6.050152933312347e-06,6.939966988284141e-05
-3.6472836654866114e-05,-0.00014339789049699903,-4.888271178060677e-06,-7.698529771005269e-06,6.371389463311061e-05
8.994824383989908e-06,-0.00017662072787061334,-1.18956259029801e-05,-1.060137765307445e-05,5.785757093690336e-05
6.079510421841405e-05,-4.7838308091741055e-05,-1.4206552805262618e-05,-1.3635200048156548e-05,5.1263286877656356e-05
9.69695538515225e-05,5.445209899335168e-05,-1.6382977264584042e-05,-2.019019848376047e-05,4.8926343879429623e-05
0.00010235727677354589,6.602078883588547e-06,-1.806619911803864e-05,-2.6956900910590775e-05,5.4064941650722176e-05
9.112371481023729e-05,-0.00010634463978931308,-1.8753804397420026e-05,-2.6822584914043546e-05,5.6100583606166765e-05
8.041364344535396e-05,-0.00015345844440162182,-1.5243665075104218e-05,-2.0176616089884192e-05,5.5189600971061736e-05
7.735071994829923e-05,-0.00011045501014450565,-1.1251972864556592e-05,-1.1081790944444947e-05,5.711344419978559e-05
7.854650903027505e-05,-5.537787365028635e-05,-1.1171585356350988e-05,-6.979768841119949e-06,5.933935972279869e-05
7.385102071566507e-05,-2.546440919104498e-05,-1.198363952426007e-05,-1.1471913239802234e-05,5.784728637081571e-05
5.05923198943492e-05,-2.12757022381993e-05,-1.305448040511692e-05,-2.0777815734618343e-05,5.6374756240984425e-05
1.2541627256723586e-05,-9.268507710658014e-06,-9.436904292670079e-06,-3.283342448412441e-05,5.516294186236337e-05
-3.980339897680096e-05,1.512770995759638e-05,-3.188107029927778e-06,-4.7004345105960965e-05,5.0158643716713414e-05
-0.00010089748684549704,8.000870002433658e-05,3.7563365822279593e-06,-5.62581408303231e-05,4.112151873414405e-05
-0.00013706105528399348,0.00017710411339066923,1.0595586900308263e-05,-5.4149204515852034e-05,3.2057792850537226e-05
-0.0001369810343021527,0.0002539744018577039,1.418080682924483e-05,-3.166165333823301e-05,2.7179990865988657e-05
-0.00012057941785315052,0.00027022790163755417,1.6517125914106146e-05,1.5350386092904955e-05,2.806115480780136e-05
-0.00010879373439820483,0.00021216126333456486,1.9059438272961415e-05,5.4761279898229986e-05,3.520074096741155e-05
-0.00010472737631062046,0.00011623485625023022,2.1393128918134607e-05,5.023701669415459e-05,4.778500442625955e-05
-0.00010334128455724567,3.120844849036075e-05,2.2734580852556974e-05,1.578830233484041e-05,6.255620974116027e-05
-9.329872409580275e-05,-1.8413209545542486e-05,1.9228160454076715e-05,-7.009025921433931e-06,7.80721748014912e-05
-6.527309597004205e-05,-3.928503065253608e-05,8.561195500078611e-06,-4.904595243715448e-06,9.369341569254175e-05
-2.4881430363166146e-05,-3.3565753255970776e-05,-1.5663182466596481e-06,7.216775429697009e-06,0.00010215958172921091
5.378037258196855e-06,3.350023689563386e-06,-6.037817456672201e-06,1.420609260094352e-05,9.614280133973807e-05
3.795050815824652e-06,5.509456605068408e-05,-6.253742867556866e-06,9.427346412849147e-06,7.644538709428161e-05
-2.749104351096321e-05,6.25764369033277e-05,-2.986659865200636e-06,-4.140054443269037e-06,5.6472777941962704e-05
-5.958348629064858e-05,-4.7061107579793315e-06,2.7146172669745283e-06,-1.847424755396787e-05,4.514945248956792e-05
-6.31340008112602e-05,-6.999957986408845e-05,8.983230145531707e-06,-3.506270513753407e-05,4.21617878600955e-05
-3.812554132309742e-05,-1.5427289326908067e-05,1.502131544839358e-05,-5.4192270908970386e-05,4.3122574425069615e-05
-1.5163406715146266e-05,0.00010259225382469594,2.118200973200146e-05,-5.923374556005001e-05,5.0672661018325016e-05
-1.613024141988717e-05,0.0001735356345307082,2.628466063470114e-05,-4.34574976679869e-05,6.366219895426184e-05
-3.480960731394589e-05,0.00017792261496651918,2.6413654268253595e-05,-2.6021883968496695e-05,7.294066745089367e-05
-6.739795935573056e-05,0.00012707036512438208,2.311508433194831e-05,-1.98623620235594e-05,7.658459799131379e-05
-0.00010194697824772447,5.065154982730746e-05,1.7332586139673367e-05,-2.031007534242235e-05,7.512918818974867e-05
-0.00011021124373655766,-5.590954242506996e-05,1.4335963896883186e-05,-2.006413160415832e-05,7.574811752419919e-05
-9.245863475371152e-05,-0.0001644693547859788,1.9259612599853426e-05,-1.8361211914452724e-05,7.905076199676841e-05
-6.355207733577117e-05,-0.00018216784519609064,2.3047927243169397e-05,-9.796453923627269e-06,8.157496631611139e-05
-4.770176747115329e-05,-0.00010984602704411373,2.0162993678241037e-05,3.809828058365383e-06,8.21906651253812e-05
-6.744295387761667e-05,-2.8984895834582858e-05,1.5825969967409037e-05,1.3979995856061578e-05,7.793655822752044e-05
-0.00010127228597411886,-2.6244193577440456e-05,1.3910936104366556e-05,2.4784407287370414e-05,7.322787132579833e-05
-0.00010206877050222829,-9.205158858094364e-05,1.1345162420184352e-05,1.990074997593183e-05,6.814557855250314e-05
-5.09884994244203e-05,-0.00010556719644227996,5.955525466561085e-06,-1.045542649080744e-05,6.290373858064413e-05
2.851410499715712e-05,-1.629839971428737e-05,1.5512840434439568e-07,-3.578939868020825e-05,5.768067421740852e-05
0.00010256034875055775,9.43682825891301e-05,-5.580822289630305e-06,-4.3487110815476626e-05,5.251374750514515e-05
0.00014979243860580027,0.00014495862706098706,-1.2672071534325369e-05,-5.315803355188109e-05,5.2042549214093015e-05
0.00016287701146211475,0.0001435772137483582,-1.669915218371898e-05,-6.344066059682518e-05,5.6453762226738036e-05
0.00014350337733048946,0.00013210189354140311,-1.5217762665997725e-05,-5.717513704439625e-05,6.041985398042016e-05
0.00010776644194265828,0.0001180189719889313,-9.410381608176976e-06,-3.239751822547987e-05,6.107740773586556e-05
7.729450589977205e-05,0.00010103669774252921,-2.0646825760195497e-06,-5.009103006159421e-06,6.18070043856278e-05
6.895308615639806e-05,0.00010678677062969655,2.457264827171457e-06,1.1737760360119864e-05,6.183807272464037e-05
9.047103958437219e-05,0.00012971865362487733,2.3801173938409192e-06,1.7277074221055955e-05,6.279150693444535e-05
0.00012362611596472561,0.00013381466851569712,3.536587428243365e-06,1.811432775866706e-05,6.311874312814325e-05
0.00013127127022016793,0.00010471428686287254,8.803253876976669e-06,1.9518998669809662e-05,5.891668115509674e-05
9.800960833672434e-05,5.5623266234761104e-05,1.1011755304934923e-05,2.142384255421348e-05,5.2842937293462455e-05
4.3087173253297806e-05,-2.140113792847842e-07,7.461252607754432e-06,1.883844379335642e-05,4.794125197804533e-05
-1.4994750927144196e-05,-4.609668394550681e-05,3.630546189015149e-06,-5.422580215963535e-06,4.7993959015002474e-05
-7.813399861333892e-05,-4.555202031042427e-05,4.1141541373690416e-07,-3.8073627365520224e-05,5.1986982725793496e-05
-0.00013331540685612708,9.886978659778833e-06,-2.0904947177768918e-06,-5.276537194731645e-05,5.485826113726944e-05
-0.0001528746506664902,7.199020183179528e-05,8.598337899456965e-07,-4.576371793518774e-05,6.146034138510004e-05
-0.00012847619655076414,0.0001021785574266687,4.049208655487746e-06,-2.8126803954364732e-05,6.671859591733664e-05
-8.283537317765877e-05,0.00011392882879590616,4.290873221179936e-06,-1.5857949620112777e-05,6.377321551553905e-05
-4.5809410949004814e-05,0.00015552129480056465,4.675985110225156e-06,-1.000256361294305e-05,6.114710413385183e-05
-3.9264508814085275e-05,0.0002241335023427382,6.996334832365392e-06,-5.736899311159505e-06,5.961729766568169e-05
-6.992585258558393e-05,0.0002633953117765486,8.731721209187526e-06,-2.8483832466008607e-06,5.9879632317461073e-05
-0.00011724207433871925,0.00017727381782606244,6.712718914059224e-06,-3.7936788430670276e-06,6.368656613631174e-05
-0.00014542137796524912,-2.2017804440110922e-05,3.5033792755712057e-06,-3.971712430939078e-06,6.786912854295224e-05
-0.0001388667442370206,-0.00014185317559167743,1.7679409438642324e-06,-4.506645382207353e-06,6.81814199197106e-05
-0.00011734582221833989,-9.453239908907562e-05,2.7763792331825243e-06,-2.467132617312018e-06,6.552370177814737e-05
-9.205895912600681e-05,1.0644836947903968e-05,5.6622802730998956e-06,8.691015978001815e-07,6.363951251842082e-05
-6.107817898737267e-05,6.44283281872049e-05,1.1300990991003346e-05,5.238082394498633e-06,6.512131949421018e-05
-2.974492235807702e-05,6.676482735201716e-05,1.5192202226899099e-05,1.0441610356792808e-05,6.531996768899262e-05
-6.469000254583079e-06,6.857664266135544e-05,1.1896360774699133e-05,1.281048753298819e-05,6.212666630744934e-05
1.8895507309935056e-05,8.684427302796394e-05,5.806871740787756e-06,1.2768305168719962e-05,5.955189044470899e-05
5.846770727657713e-05,0.00010626750736264512,2.8014389954478247e-06,1.0023116374213714e-05,5.759220584877767e-05
0.00010143715917365626,0.00010784871119540185,1.6628628145554103e-06,6.0615266193053685e-06,5.666367360390723e-05
0.00012370265903882682,8.373591845156625e-05,1.4663320371255395e-06,6.770677373424405e-06,5.822016464662738e-05
0.00011143863957840949,4.975537012796849e-05,3.2730461043684045e-06,2.1886864487896673e-05,5.8188448747387156e-05
6.685686093987897e-05,3.375066808075644e-05,6.117595148680266e-06,4.3065720092272386e-05,5.1054550567641854e-05
-8.8157867139671e-06,3.672866660053842e-05,8.839012480166275e-06,4.832914055441506e-05,4.304845060687512e-05
-9.850958304014057e-05,3.122959242318757e-05,1.0771424058475532e-05,3.293806003057398e-05,4.4433745642891154e-05
-0.00012437622353900224,8.973656804300845e-06,1.1768864169425797e-05,1.1441125934652518e-05,5.3154362831264734e-05
-4.5295200834516436e-05,-2.896941987273749e-05,8.869234079611488e-06,-2.659751771716401e-05,5.931226769462228e-05
5.2306528232293203e-05,-6.140048208180815e-05,3.888129413098795e-06,-7.908944826340303e-05,6.221755756996572e-05
7.567413558717817e-05,-3.7696903746109456e-05,6.982903641983285e-07,-9.670487634139135e-05,5.514112490345724e-05
1.5707308193668723e-05,6.138288881629705e-05,-3.1120046060095774e-06,-7.332579116337001e-05,3.5773082345258445e-05
-7.461539644282311e-05,0.0001958843058673665,-6.062684860808076e-06,-4.621529296855442e-05,1.639374931983184e-05
-0.0001523846440250054,0.00028208037838339806,-5.738709205616033e-06,-1.337972116743913e-05,1.05674425867619e-05
-0.00017115974333137274,0.0001770587550709024,-2.3610280095454073e-06,2.947002212749794e-05,1.9797738787019625e-05
-0.00012768179294653237,-0.00010704469605116174,2.472467713232618e-06,4.396343865664676e-05,3.443051900831051e-05
-8.895427890820429e-05,-0.0002979589917231351,2.3811332994227996e-06,8.568626981286798e-06,4.987467036698945e-05
-7.511544390581548e-05,-0.00026193351368419826,1.5655167544537107e-06,-3.1234114430844784e-05,6.071459938539192e-05
-6.131578265922144e-05,-0.00013734809181187302,1.8256484963785624e-06,-4.380246173241176e-05,6.888643838465214e-05
-3.209530405001715e-05,-7.943392847664654e-05,-1.3502872207027394e-06,-3.828030457952991e-05,7.536422344855964e-05
2.587500148365507e-06,-0.00011346364772180095,-5.832540864503244e-06,-3.402133006602526e-05,8.157438423950225e-05
2.3319365936913528e-05,-0.0001648279430810362,-4.66641995444661e-06,-3.592667781049386e-05,8.585171599406749e-05
2.1850264602107927e-05,-0.00018268279382027686,1.2481037856559851e-06,-3.634961831266992e-05,8.125930617097765e-05
7.099891945472336e-07,-0.00017824808310251683,5.648419573844876e-06,-2.5373978132847697e-05,6.856982508907095e-05
-3.4655800845939666e-05,-0.00014234193076845258,8.689048627275042e-06,-7.214841389213689e-06,5.261069964035414e-05
-7.039259071461856e-05,-5.847618740517646e-05,1.0634425962052774e-05,5.7327183640154544e-06,4.249702033121139e-05
-9.15530399652198e-05,2.830092125805095e-05,1.5970406820997596e-05,1.0259933333145455e-05,4.368496229290031e-05
-9.314420458395034e-05,5.536920070881024e-05,2.4371111067011952e-05,-9.262656703867833e-07,5.2642204536823556e-05
-7.933528831927106e-05,1.1951247870456427e-05,2.9157316021155566e-05,-2.541951289458666e-05,5.871678513358347e-05
-5.726576273445971e-05,-3.5110755561618134e-05,3.01886993838707e-05,-3.824537998298183e-05,5.954515654593706e-05
-3.4826462069759145e-05,-2.0146639144513756e-05,3.174976882291958e-05,-1.9629127564257942e-05,5.5229920690180734e-05
-1.8919688955065794e-05,3.261111123720184e-05,3.086890501435846e-05,1.0642930647009052e-05,5.1039402023889124e-05
-1.5173726751527283e-05,5.736473758588545e-05,2.746512291196268e-05,2.6353409339208156e-05,4.997022915631533e-05
-2.8245392968528904e-05,4.0767990867607296e-05,2.5440480385441333e-05,2.2722091671312228e-05,4.958684803568758e-05
-5.1175622502341866e-05,1.564548620081041e-05,2.369548565184232e-05,1.4164548701955937e-05,4.9404225137550384e-05
-6.480583397205919e-05,2.4169185053324327e-05,2.197844150941819e-05,7.044786343612941e-06,4.944734973832965e-05
-5.8751531469170004e-05,6.716778443660587e-05,1.901005998661276e-05,2.027828486461658e-06,5.061829142505303e-05
-4.716818148153834e-05,0.0001100944573408924,1.5559402527287602e-05,-7.895284284131776e-07,5.273228089208715e-05
-3.98463052988518e-05,0.00011494656064314768,1.2886378499388229e-05,-1.5864891338424059e-06,5.553916344069876e-05
-3.2864587410585955e-05,6.759889947716147e-05,1.4525027836498339e-05,-2.378146973569528e-06,5.899877578485757e-05
-2.39298096857965e-05,1.0670325536921155e-05,1.9037895981455222e-05,-5.201795374887297e-06,6.093001502449624e-05
-1.9748231352423318e-05,7.283200375240995e-06,1.8675080355023965e-05,-9.999375834013335e-06,6.033916361047886e-05
-2.7417447199695744e-05,7.049308624118567e-05,1.9096500182058662e-05,-1.2185696505184751e-05,6.104401836637408e-05
-3.922412361134775e-05,0.00014622806338593364,1.870012783911079e-05,-9.398670044902246e-06,5.930657789576799e-05
-4.464835728867911e-05,0.0001897464826470241,1.4606497643399052e-05,-1.6370560160794412e-06,5.5596545280423015e-05
-4.015087688458152e-05,0.0001971800666069612,1.2287939171073958e-05,8.696533768670633e-06,5.316233728080988e-05
-2.669189780135639e-05,0.00020127040625084192,1.0767838830361143e-05,1.6692825738573447e-05,5.134531238581985e-05
-1.1880896636284888e-05,0.00021676075994037092,1.2311365026107524e-05,1.8079215806210414e-05,4.760340743814595e-05
8.201507625926752e-06,0.00022815543343313038,1.3797945030091796e-05,1.2853052794525865e-05,4.6233926696004346e-05
4.197276211925782e-05,0.00017811772704590112,1.1151078069815412e-05,7.183306024671765e-06,4.701891521108337e-05
6.72044261591509e-05,7.781958629493602e-06,4.834501851291861e-06,5.220904313318897e-06,4.5605087507283315e-05
6.444881728384644e-05,-0.0001619933609617874,-3.233940560676274e-06,-2.4948899408627767e-06,4.605905633070506e-05
4.6302451664814726e-05,-0.00017550944176036865,-7.193562851171009e-06,-1.5955771232256666e-05,4.9881542508956045e-05
2.8951410058652982e-05,-9.28796362131834e-05,-5.312715074978769e-06,-2.8820128136430867e-05,5.6004239013418555e-05
1.794307718228083e-05,-4.3552023271331564e-05,-4.954820269631455e-07,-4.1460378270130605e-05,6.597212632186711e-05
7.641987394890748e-06,-4.637090751202777e-05,2.496091610737494e-06,-4.9392328946851194e-05,8.060123218456283e-05
-1.2121847248636186e-05,-4.703190643340349e-05,7.712262686254689e-07,-4.8424230044474825e-05,9.327841689810157e-05
-4.3327396269887686e-05,-2.7038317057304084e-05,-4.462600827537244e-06,-3.6668789107352495e-05,9.683782263891771e-05
-6.850920908618718e-05,-9.009308996610343e-06,-1.2916853847855236e-05,-2.108896296704188e-05,9.007671178551391e-05
-6.916927668498829e-05,-1.2466923180909362e-05,-2.4838340323185548e-05,-1.1517148777784314e-05,7.702363654971123e-05
-5.4517156968358904e-05,-2.5599334549042396e-05,-3.340400508022867e-05,-1.6378080545109697e-05,6.433443195419386e-05
-4.741782686323859e-05,-5.991190391796408e-06,-3.2510106393601745e-05,-2.8388738428475335e-05,5.8512981922831386e-05
-4.940296275890432e-05,5.223035623203032e-05,-3.0052915462874807e-05,-3.5739809391088784e-05,6.094600394135341e-05
-4.235140295349993e-05,0.00010585487325442955,-3.435446342336945e-05,-3.566347368177958e-05,6.960859172977507e-05
-2.048870737780817e-05,0.00012124364002374932,-3.858959098579362e-05,-2.567681258369703e-05,8.032516780076548e-05
-7.066209491313202e-06,0.000104908125649672,-3.295778878964484e-05,-1.6687234165146947e-05,8.773939043749124e-05
-9.527192560199182e-06,9.396475797984749e-05,-2.1933787138550542e-05,-2.153651621483732e-05,9.000683348858729e-05
-6.470249900303315e-06,0.00010787085921037942,-8.131825779855717e-06,-2.786260301945731e-05,8.87861242517829e-05
1.854584525062819e-06,0.00012353347847238183,4.164605343248695e-06,-2.709200452954974e-05,8.655055717099458e-05
-6.75265346217202e-06,0.00011398820061003789,1.3860744729754515e-05,-2.0260789824533276e-05,8.134152449201792e-05
-1.1345887287461665e-05,0.00011415597691666335,2.27296695811674e-05,-1.1305318366794381e-05,6.952531839488074e-05
1.0930257303698454e-05,0.00013817285071127117,2.781377588689793e-05,-3.2447885587316705e-06,5.619143121293746e-05
2.9345885195652954e-05,7.997085776878521e-05,3.098359957220964e-05,6.386967470461968e-07,5.295773735269904e-05
2.1428457330330275e-05,-7.128266588551924e-05,3.040089359274134e-05,9.219349976774538e-07,5.640946619678289e-05
-1.3025928637944162e-05,-0.00014702000771649182,2.7914546080864966e-05,-3.204458607797278e-06,5.3109779400983825e-05
-5.705130388378166e-05,-7.356372952926904e-05,2.75223828793969e-05,-1.1125567652925383e-05,3.945334901800379e-05
-0.00010463375656399876,6.614653102587909e-05,2.9923354304628447e-05,-1.896548565127887e-05,2.5542716684867628e-05
-0.00013780102017335594,0.00014910183381289244,2.9716864446527325e-05,-2.358852361794561e-05,2.805986878229305e-05
-0.0001245385647052899,7.095299224602059e-05,2.9579096008092165e-05,-7.5632965490513016e-06,4.472590808290988e-05
-6.18223421042785e-05,-9.863980812951922e-05,2.7013194994651712e-05,3.604588346206583e-05,6.163716898299754e-05
1.0608187949401326e-05,-0.00020164722809568048,2.0058707377756946e-05,6.451064109569415e-05,7.229323091451079e-05
4.573816477204673e-05,-0.00018760524108074605,1.459116356272716e-05,4.1805789805948734e-05,7.393839041469619e-05
3.849617132800631e-05,-0.0001002590506686829,1.1220835403946694e-05,-5.187707756704185e-06,6.777668750146404e-05
1.7965752704185434e-05,1.096633877750719e-05,5.915578640269814e-06,-4.3082382035208866e-05,6.218658381840214e-05
6.856743311800528e-06,0.00010018572356784716,-1.6994067664199974e-06,-6.465137266786769e-05,6.415134703274816e-05
1.3430396393232513e-05,0.00013989397848490626,-6.55520352665917e-06,-6.60736914142035e-05,7.142688991734758e-05
4.582822657539509e-05,0.00015977208386175334,-6.008177479088772e-06,-4.930942304781638e-05,7.526633999077603e-05
8.369942952413112e-05,0.00019282491120975465,-3.443971081651398e-06,-3.482594547676854e-05,7.226267916848883e-05
9.742542169988155e-05,0.000208510275115259,-3.802416813414311e-06,-3.5015262255910784e-05,6.71659508952871e-05
8.532726496923715e-05,0.00016571888409089297,-5.858408258063719e-06,-3.931988976546563e-05,6.63200844428502e-05
6.385204324033111e-05,7.939689385239035e-05,-5.274544946587412e-06,-3.066584758926183e-05,7.276285032276064e-05
2.9971466574352235e-05,-8.416366654273588e-06,4.960239152751456e-07,-1.671615245868452e-05,8.203661855077371e-05
-3.508428198983893e-05,-4.412856651470065e-05,-5.363717718864791e-07,-1.1425912816775963e-05,8.190067455871031e-05
-7.590165478177369e-05,-2.5768837076611817e-05,-6.089846920076525e-06,-8.279029316327069e-06,7.444462971761823e-05
-3.2379575714003295e-05,1.7253671103389934e-05,-2.602680069685448e-06,-3.806750555668259e-06,6.735630449838936e-05
1.643032555875834e-05,5.022877667215653e-05,2.6949132916342933e-06,-7.458334948751144e-06,5.715576480724849e-05
1.2327476724749431e-05,4.875289596384391e-05,-3.5851630855177063e-06,-2.045088513114024e-05,4.4864391384180635e-05
-2.1377090888563544e-05,6.27839399385266e-05,-1.4388323506864253e-05,-3.52632996509783e-05,3.893607572535984e-05
-7.069547427818179e-05,0.00012392074859235436,-1.717440136417281e-05,-3.536423173500225e-05,4.495446046348661e-05
-0.00014201011799741536,0.00018453355005476624,-9.167530151898973e-06,-1.4204513718141243e-05,5.331723514245823e-05
-0.0002059801045106724,0.00020493281772360206,1.460926910112903e-06,9.77765375864692e-06,5.295348455547355e-05
-0.00021011500211898237,0.0001598053058842197,9.669731298345141e-06,2.5230172468582168e-05,4.2587525967974216e-05
-0.00016098334162961692,4.549455115920864e-05,1.4472425391431898e-05,3.6089058994548395e-05,3.839188866550103e-05
-9.841447899816558e-05,-6.924657645868137e-05,1.5019402781035751e-05,4.342223110143095e-05,4.3023952457588166e-05
-5.577799674938433e-05,-0.00016180930833797902,1.1867966350109782e-05,4.475310197449289e-05,4.748437277157791e-05
-3.214165917597711e-05,-0.0002574367681518197,5.385404165281216e-06,4.326004273025319e-05,4.226078817737289e-05
-2.2386835553334095e-05,-0.00032358846510760486,-2.3471081931347726e-06,4.23200945078861e-05,2.8500549888121895e-05
-3.0209950637072325e-05,-0.0003129680117126554,-4.1732596400834154e-06,4.1663173760753125e-05,2.1122781618032604e-05
-5.341142968973145e-05,-0.00020905079145450145,3.7766938021377428e-06,4.0045870264293626e-05,2.1958023353363387e-05
-7.332493260037154e-05,-6.763199053239077e-05,1.1633467693172861e-05,3.5133794881403446e-05,2.488998325134162e-05
-7.41854018997401e-05,1.7398180716554634e-05,1.2296515706111677e-05,2.781913281069137e-05,2.771012623270508e-05
-5.576309922616929e-05,2.59215448750183e-05,1.0373623808845878e-05,1.5400772099383175e-05,3.1014293199405074e-05
-2.953797775262501e-05,3.265693158027716e-05,9.293400580645539e-06,-1.139577307185391e-05,3.300898242741823e-05
-1.2042298294545617e-05,7.455844024661928e-05,5.715311999665573e-06,-3.961494076065719e-05,3.368900797795504e-05
-3.173992126903613e-06,0.00011043545964639634,3.383803004908259e-06,-4.5447097363648936e-05,3.519156962283887e-05
4.831541900784941e-06,0.00011505046131787822,4.2019014472316485e-06,-3.1103245419217274e-05,4.120106314076111e-05
3.483770342427306e-06,0.00012597003660630435,3.4431725453032413e-06,-1.8352271581534296e-05,5.109129415359348e-05
-1.394370792695554e-05,0.0001722055021673441,-1.9622168565547327e-06,-2.539269371482078e-05,6.691160524496809e-05
-2.800251604639925e-05,0.00019984155369456857,-3.5917366858484456e-06,-4.876742968917824e-05,7.94870502431877e-05
-2.766043326118961e-05,0.00012842084106523544,-2.509235400793841e-06,-6.116896111052483e-05,7.287518383236602e-05
-2.6160883862758055e-05,1.5826488379389048e-05,-6.884961749165086e-06,-4.419430115376599e-05,5.5680557125015184e-05
-2.481887895555701e-05,-3.424399983487092e-05,-1.1836859812319744e-05,-1.6184467312996276e-05,4.441125929588452e-05
-1.8643966541276313e-05,-3.7541929486906156e-05,-1.2568769307108596e-05,-6.5825101955852006e-06,4.4934378820471466e-05
-2.0830912035307847e-05,-1.8486196495359764e-05,-1.2022215742035769e-05,-9.763945854501799e-06,4.8641788453096524e-05
-3.1579387723468244e-05,1.9469020116957836e-05,-3.4793051781889517e-06,4.457266641111346e-06,4.870575139648281e-05
-3.796938108280301e-05,5.4328244004864246e-05,9.002883416542318e-06,3.336426743771881e-05,5.121628782944754e-05
-3.471818126854487e-05,8.335994789376855e-05,1.534043622086756e-05,4.9425565521232784e-05,5.45009970664978e-05
-2.5361603547935374e-05,9.591039270162582e-05,1.7725449652061798e-05,4.755694681080058e-05,6.050260708434507e-05
-2.0916773792123422e-05,3.772017589653842e-05,1.696356230240781e-05,2.6189272830379196e-05,6.259742076508701e-05
-2.2311482098302804e-05,-3.930924867745489e-05,1.9336344848852605e-05,-3.313916749903001e-05,5.8672747400123626e-05
-1.6143198081408627e-05,-2.765248245850671e-05,2.2397502107196487e-05,-0.00010126329289050773,5.471388794831e-05
-5.411881375039229e-06,5.877320290892385e-05,2.1749110601376742e-05,-0.00012274610344320536,5.772079020971432e-05
5.202868123888038e-06,0.00012518312723841518,1.694328420853708e-05,-9.376156231155619e-05,6.737904186593369e-05
1.3365875020099338e-05,0.00014898112567607313,1.55690449901158e-05,-4.547705248114653e-05,8.134355448419228e-05
6.259856036194833e-06,0.00017377159383613616,1.918553425639402e-05,-1.9722472643479705e-05,9.289265290135518e-05
-3.243359242333099e-05,0.00020534626673907042,2.2223857740755193e-05,-2.644150663400069e-05,9.260021761292592e-05
-9.435985703021288e-05,0.00020804343512281775,1.9124438040307723e-05,-4.024712325190194e-05,8.447076106676832e-05
-0.00014571294013876468,0.00017607393965590745,1.252221227332484e-05,-3.49025140167214e-05,7.815101707819849e-05
-0.0001617289672140032,0.0001460126950405538,1.1255930985498708e-05,-1.5320247257477604e-05,7.935130270197988e-05
-0.00013706799654755741,0.00012322237307671458,1.333708223683061e-05,-1.573855001879565e-06,8.23709779069759e-05
-8.527082536602393e-05,5.168545612832531e-05,1.3302525985636748e-05,-6.084448614274152e-06,8.039364183787256e-05
-3.1819232390262187e-05,-8.89988150447607e-05,7.151360023271991e-06,-2.3265551135409623e-05,7.198219100246206e-05
9.154773010777717e-07,-0.00018203612125944346,-4.043323315272573e-06,-3.0235971280490048e-05,6.471623055404052e-05
1.7906133962242166e-06,-0.00013501431385520846,-1.1802632798207924e-05,-1.889857776404824e-05,5.803902240586467e-05
-1.0743600796558894e-05,9.047817911778111e-06,-8.822690688248258e-06,-4.096114935236983e-06,4.958368663210422e-05
1.4265357094700448e-05,0.00014444172848016024,-2.217644578195177e-06,-1.981327386602061e-06,4.282411828171462e-05
6.759097595931962e-05,0.00017479565576650202,-2.096624029945815e-06,-8.186249033315107e-06,4.355253986432217e-05
8.671065006637946e-05,9.949572995537892e-05,-5.996221261739265e-06,-1.2950353266205639e-05,4.122221071156673e-05
5.767645052401349e-05,3.664824544102885e-05,-7.233669293782441e-06,-1.6358666471205652e-05,3.608520273701288e-05
2.3590650016558357e-05,6.345506699290127e-05,-6.127435881353449e-06,-1.2457203411031514e-05,3.854484384646639e-05
1.317113742516085e-06,0.00010173994087381288,-3.291605935373809e-06,-3.732656296051573e-06,4.987315332982689e-05
-2.5186596758430824e-05,0.00011614755203481764,-1.958793745870935e-06,-9.638555411584093e-07,6.467488128691912e-05
-5.52413948753383e-05,0.00012526918726507574,8.470383363601286e-07,-3.28459373122314e-06,7.621785334777087e-05
-7.063266093609855e-05,8.365126996068284e-05,2.8365955131448573e-06,-7.82128881837707e-06,8.56983897392638e-05
-5.2065188356209546e-05,-5.2636776672443375e-05,2.4757846404099837e-06,-1.7516020989205572e-07,9.025345207192004e-05
-7.10057338437764e-06,-0.0002462825214024633,9.107379810302518e-07,1.283089386561187e-05,8.790669380687177e-05
3.812370414379984e-05,-0.0003326880978420377,-1.5898118590484955e-06,1.4059895875107031e-05,8.18868720671162e-05
6.557839515153319e-05,-0.0002744494122453034,-4.211696705169743e-06,4.113217983103823e-06,7.480249769287184e-05
7.823981286492199e-05,-0.0002159332507289946,-5.869689175597159e-06,-9.104461241804529e-06,6.853514059912413e-05
6.3209721702151e-05,-0.00022017789888195693,-2.84366842606687e-06,-2.7219286494073458e-05,6.431806104956195e-05
1.6562775272177532e-05,-0.00021786607976537198,2.00968497665599e-06,-4.063521191710606e-05,6.4140695030801e-05
-3.637219197116792e-05,-0.00017338564794044942,2.0829304503422463e-06,-3.574396760086529e-05,6.491642125183716e-05
-7.463417568942532e-05,-0.00010486451355973259,-4.123936378164217e-06,-2.1897119950153865e-05,6.125214713392779e-05
-8.395376789849252e-05,-2.9280283342814073e-05,-7.684750016778708e-06,-1.4243127225199714e-05,5.30905308551155e-05
-6.552577542606741e-05,2.386070082138758e-05,-5.395248535933206e-06,-1.3724782547797076e-05,4.8946931201498955e-05
-3.071422906941734e-05,2.8943471988895908e-05,6.63864398120495e-07,-1.1987701327598188e-05,5.336197864380665e-05
5.6746212067082524e-06,-2.2982669179327786e-05,5.267381766316248e-06,-4.17864839619142e-06,6.26013643341139e-05
2.642138861119747e-05,-0.00011570927745196968,4.919669208902633e-06,6.890835265949136e-06,6.86084313201718e-05
1.0933760677289683e-05,-0.00018094899132847786,1.612800247130508e-06,1.0658932296792045e-05,6.627556285820901e-05
-4.703226295532659e-05,-0.00013928519911132753,-1.0921096915694761e-08,8.691912626090925e-06,5.8375899243401363e-05
-0.00010091609146911651,-2.3354115910478868e-05,1.1040547178708948e-06,5.788659109384753e-06,5.057937960373238e-05
-9.264343680115417e-05,8.043761772569269e-05,1.81319956027437e-06,1.0324233699066099e-06,4.8570436774753034e-05
-6.091575414757244e-05,0.00012839246483054012,-3.6488268051471096e-06,-8.135176358337048e-06,4.784479096997529e-05
-5.025142672820948e-05,0.0001593243214301765,-7.773376637487672e-06,-1.4010367522132583e-05,4.879690823145211e-05
-3.327912781969644e-05,0.00021349497546907514,-5.494066044775536e-06,-1.262635942111956e-05,5.293313006404787e-05
-1.3926975952927023e-05,0.0002463605778757483,3.3488793178548804e-06,-4.77103912999155e-06,5.6629403843544424e-05
-2.432006294839084e-05,0.00022182239626999944,1.0819017006724607e-05,6.889695669087814e-06,6.124258652562276e-05
-4.34905850852374e-05,0.00017406282131560147,1.3393731933319941e-05,1.7935495634446852e-05,6.955114804441109e-05
-4.5285531086847186e-05,0.00012664620589930564,1.9878420062013902e-05,2.230392419733107e-05,7.561938400613144e-05
-3.595919770305045e-05,8.838266512611881e-05,2.655107709870208e-05,2.227953154942952e-05,7.497777551179752e-05
-3.886569174937904e-05,7.228347385535017e-05,3.2099949748953804e-05,3.065855707973242e-05,7.036037277430296e-05
-6.278540968196467e-05,8.243940101237968e-05,3.324820863781497e-05,3.743628985830583e-05,6.659299833700061e-05
-0.00010166377614950761,0.00010882493370445445,3.4304488508496433e-05,3.549337270669639e-05,6.17060431977734e-05
-0.0001633287756703794,0.00013713019143324345,3.619405106292106e-05,2.8731945349136367e-05,5.693346247426234e-05
-0.0002209805534221232,0.00017154488887172192,3.620167262852192e-05,1.6430973118986003e-05,5.4795957112219185e-05
-0.00024526857305318117,0.000175978901097551,3.4775024687405676e-05,-2.6762190827867016e-06,5.218973456067033e-05
-0.00022535142488777637,0.00014668989751953632,3.258244032622315e-05,-1.8869770428864285e-05,4.7054192691575736e-05
-0.00016755351680330932,0.0001441879867343232,2.7294094252283685e-05,-2.3379114281851798e-05,4.489401544560678e-05
-8.602192247053608e-05,0.00018923095194622874,2.2192816686583683e-05,-2.149516330973711e-05,5.214185148361139e-05
-8.045790309552103e-06,0.00021931475203018636,2.0472340111155063e-05,-1.5184283256530762e-05,6.432618101825938e-05
3.528570960042998e-05,0.0001612341875443235,2.0855595721513964e-05,-6.124342689872719e-06,7.276568067027256e-05
4.671944407164119e-05,3.936346547561698e-05,2.0655026673921384e-05,-9.077205618268636e-07,7.511533476645127e-05
6.0162106819916517e-05,-3.684602415887639e-05,1.655731648497749e-05,-8.470168722851668e-06,7.579436351079494e-05
9.13669791771099e-05,-3.627623664215207e-05,7.719924724369776e-06,-2.418475560261868e-05,7.767008355585858e-05
0.00011771432036766782,-3.496149292914197e-05,7.124783110157296e-07,-3.553090209607035e-05,7.468764670193195e-05
0.00012494104157667607,-3.8262711314018816e-05,5.431964837043779e-06,-3.758600723813288e-05,6.318736268440261e-05
0.00011663573968689889,-5.010554559703451e-06,1.1652502507786267e-05,-3.458783612586558e-05,5.0299793656449765e-05
9.995830623665825e-05,4.3150568671990186e-05,9.18992100196192e-06,-3.086487777181901e-05,4.493929009186104e-05
7.473689765902236e-05,5.8960391470463946e-05,2.1949024358036695e-06,-3.135137740173377e-05,4.719035132438876e-05
4.245055970386602e-05,1.2605107258423232e-05,-7.215326149889734e-06,-3.27409798046574e-05,4.729805368697271e-05
1.769864684320055e-05,-2.4265276806545444e-05,-1.5428740880452096e-05,-1.937315028044395e-05,4.554969564196654e-05
1.8506902051740326e-05,1.392674312228337e-05,-1.2957108083355706e-05,7.879028999013826e-06,4.293877645977773e-05
3.41086633852683e-05,3.843787271762267e-05,-7.65806544222869e-06,2.3147704268922098e-05,4.0937928133644164e-05
3.180478961439803e-05,3.293479312560521e-05,-9.088311344385147e-06,1.432477802154608e-05,4.2351693991804495e-05
1.4081665540288668e-05,7.298962736967951e-05,-7.801801075402182e-06,-5.808153218822554e-06,5.025575956096873e-05
7.26574080545106e-06,8.664761844556779e-05,1.3786080899080844e-06,-2.1744557670899667e-05,5.718789543607272e-05
6.902802738295577e-07,2.343502637813799e-05,1.0694247066567186e-05,-2.333513657504227e-05,5.489688555826433e-05
-1.181401967187412e-05,-3.308042141725309e-05,1.7608141206437722e-05,-1.8289474610355683e-05,4.590703611029312e-05
-1.4540355550707318e-05,-7.051056309137493e-05,1.5430961866513826e-05,-3.2570076200499898e-06,3.481752355583012e-05
-1.2341560250206385e-05,-6.83965627104044e-05,8.33654121379368e-06,3.348010068293661e-05,2.963735460070893e-05
-1.8555316273705103e-05,-6.119662430137396e-05,4.758635895996122e-06,5.7083929277723655e-05,3.4132150176446885e-05
-3.349746111780405e-05,-7.581695535918698e-05,4.786648332810728e-06,3.9130685763666406e-05,5.082125426270068e-05
-5.794528260594234e-05,-6.012687663314864e-05,5.768105438619386e-06,-1.2852112831751583e-06,7.097567868186161e-05
-8.126473403535783e-05,-3.215077958884649e-05,6.211354957486037e-06,-3.4594144381117076e-05,8.600253204349428e-05
-7.999211811693385e-05,-1.776407407305669e-05,3.3444559903728077e-06,-4.62055868410971e-05,9.13777039386332e-05
-4.935285687679425e-05,-1.5928593711578287e-05,2.8194645551593567e-07,-4.288617492420599e-05,8.853596955304965e-05
-1.6050267731770873e-05,-2.6985955628333613e-05,2.7476014565763762e-06,-3.7490091926883906e-05,8.154512761393562e-05
-1.1767325304390397e-05,-5.549154957407154e-05,5.500744009623304e-06,-4.028085095342249e-05,7.165060378611088e-05
-3.9948787161847576e-05,-7.64004435040988e-05,3.1080269309313735e-06,-4.458390685613267e-05,6.077386569813825e-05
-7.273990195244551e-05,-9.230180876329541e-05,-1.0635905027811532e-06,-3.7646845157723874e-05,4.933681702823378e-05
-7.445475785061717e-05,-0.0001085160329239443,7.464066129614366e-07,-1.9469249309622683e-05,4.1964489355450496e-05
-4.2717834730865434e-05,-0.00010929349809885025,6.7414453042147215e-06,-2.293392071806011e-06,4.0887163777370006e-05
-5.6728263189143036e-06,-8.073738717939705e-05,9.956903340935241e-06,7.731004188826773e-06,4.5215696445666254e-05
8.166195584635716e-06,-2.9356689992710017e-05,7.018532414804213e-06,8.338040061062202e-06,4.8966241593007e-05
-7.758772881061304e-06,3.1436207791557536e-05,7.921612450445537e-07,-5.724364200432319e-06,5.029396925237961e-05
-4.0046921640168875e-05,9.259323996957392e-05,-9.044956641446333e-06,-1.879251612990629e-05,5.066652374807745e-05
-7.10229724063538e-05,0.00015271811571437865,-1.8252843801747076e-05,-1.2819123185181525e-06,5.048857565270737e-05
-8.727367094252259e-05,0.00018606943194754422,-2.1378042220021598e-05,2.8332182409940287e-05,5.4388900025514886e-05
-8.915659418562427e-05,0.00015717216592747718,-1.471217274229275e-05,3.743665001820773e-05,5.843179678777233e-05
-8.104345033643767e-05,8.086240268312395e-05,-3.1961103559297044e-06,1.9891209376510233e-05,4.834624633076601e-05
-6.84144688420929e-05,-1.342601899523288e-05,4.4551097744260915e-06,-1.951607919181697e-05,3.859875869238749e-05
-3.5947068681707606e-05,-6.7045351897832e-05,9.512013093626592e-06,-5.354141831048764e-05,4.5274435251485556e-05
2.08467899938114e-05,-2.520781163184438e-05,1.7915730495587923e-05,-5.6058092013699934e-05,5.8490622905083e-05
4.881315180682577e-05,4.249000994605012e-05,2.6002209779107943e-05,-3.392269354662858e-05,6.620219210162759e-05
2.772991865640506e-05,4.5510143536375836e-05,3.0493920348817483e-05,-1.9409768356126733e-05,6.46723055979237e-05
-3.4418881114106625e-06,6.717587893945165e-06,3.149354597553611e-05,-2.6597621399560012e-05,6.054873301764019e-05
-1.3005599612370133e-05,-5.585572125710314e-06,2.8723270588670857e-05,-3.1597624911228195e-05,5.417095962911844e-05
-2.79532571312302e-07,2.367558226978872e-05,2.6451543817529455e-05,-2.0353954823804088e-05,4.6267090510809794e-05
2.291824966960121e-05,5.9968493587803096e-05,2.563953421486076e-05,-1.293027071369579e-05,4.157301373197697e-05
3.971098340116441e-05,8.140803402056918e-05,2.587844392110128e-05,-1.646538294153288e-05,4.472295768209733e-05
4.5307271648198366e-05,9.257790952688083e-05,2.3644364773645066e-05,-2.3033830075291917e-05,5.160651926416904e-05
4.285278919269331e-05,0.00011638732394203544,1.819992576201912e-05,-2.5118801204371266e-05,5.659824819304049e-05
1.5073006579768844e-05,0.00015005961176939309,1.3953226698504295e-05,-2.371594018768519e-05,5.499395410879515e-05
-5.2433329983614385e-05,0.00017761181516107172,1.1854225704155397e-05,-1.7968968677450903e-05,5.1233892008895054e-05
-0.00011907550651812926,0.00018957193242385983,9.958389455277938e-06,-1.1510419426485896e-05,5.209023584029637e-05
-0.00012154261639807373,0.00016094731108751148,7.529413323936751e-06,-1.1600212019402534e-05,5.730892007704824e-05
-5.738985419156961e-05,8.535230153938755e-05,6.596762432309333e-06,-1.7453086911700666e-05,6.341946573229507e-05
1.6412917830166407e-05,3.864254176733084e-05,5.486886493599741e-06,-2.413819674984552e-05,6.666847912129015e-05
5.10106619913131e-05,7.223391003208235e-05,8.088049980869982e-07,-2.658963785506785e-05,6.206823309184983e-05
4.075899050803855e-05,0.00012447468179743737,-2.5367585294588935e-06,-2.3765667719999328e-05,5.027333099860698e-05
-2.194558419432724e-06,0.00014116542297415435,-3.0434009090640757e-07,-1.737638194754254e-05,4.0434213588014245e-05
-6.364247383316979e-05,0.00012833614891860634,2.8217682483955286e-06,-1.3608459994429722e-05,3.400972127565183e-05
-0.00012356523075141013,9.188343392452225e-05,-9.07362618818297e-07,-1.1720760994649027e-05,2.5227303922292776e-05
-0.00015338545199483633,4.4730819354299456e-05,-9.568632776790764e-06,-6.522779585793614e-06,1.6150164810824208e-05
-0.00013334263348951936,-3.163641395076411e-06,-1.5898844139883295e-05,-1.0042820122180274e-06,1.7951768313650973e-05
-9.267681161873043e-05,-5.4059950343798846e-05,-1.8471606381353922e-05,8.03435432317201e-06,2.98228351311991e-05
-7.276499673025683e-05,-0.00011603892198763788,-1.6168702131835744e-05,3.152163480990566e-05,5.020574826630764e-05
-9.21399041544646e-05,-0.00014976071543060243,-1.3778987522528041e-05,4.201331103104167e-05,7.211813499452546e-05
-0.00013425467477645725,-9.658093767939135e-05,-1.8881266441894695e-05,1.915267603180837e-05,9.302118996856734e-05
-0.00014606652257498354,2.944464904430788e-05,-2.5840832677204162e-05,-1.2365382644929923e-05,0.00010445995576446876
-9.776382648851722e-05,0.00015163914940785617,-2.3317839804803953e-05,-3.6300250940257683e-05,0.0001093764221877791
-1.4729514987266157e-05,0.00014064836432226002,-1.2393459655868355e-05,-4.633986100088805e-05,0.00011455477942945436
4.866129893343896e-05,6.666642002528533e-05,-5.014891485188855e-06,-5.153264646651223e-05,0.00011089564941357821
8.277382585220039e-05,0.00010434472642373294,-1.6199439869524213e-06,-6.128823588369414e-05,0.00010039495100500062
8.78928549354896e-05,0.0001719654246699065,4.730104137706803e-06,-6.083504922571592e-05,8.786190301179886e-05
6.821861461503431e-05,0.00010662437125574797,1.2875075299234595e-05,-4.415200601215474e-05,7.737738633295521e-05
4.095437179785222e-05,-5.4774627642473206e-05,1.5862326108617708e-05,-2.03154359041946e-05,7.058319897623733e-05
2.5818251742748544e-05,-0.0001393890706822276,1.2418277037795633e-05,1.600766950105026e-06,6.791890336899087e-05
2.2486741727334447e-05,-9.081314783543348e-05,8.349744348379318e-06,2.2514923330163583e-05,6.426933396141976e-05
1.2783500096702483e-05,-1.1561323844944127e-05,3.963653853134019e-06,3.7183683161856607e-05,6.127987580839545e-05
-3.0212972887966316e-06,-1.6881767805898562e-05,5.026167855248787e-07,4.1045990656130016e-05,5.9370810049586e-05
-2.1762502001365647e-05,-6.978115561651066e-05,1.634193722566124e-07,3.8329060771502554e-05,5.831534872413613e-05
-4.680077108787373e-05,-4.311542579671368e-05,2.025823732765275e-06,2.88581068161875e-05,5.9713311202358454e-05
-7.583422120660543e-05,6.614386074943468e-05,4.9152167775901034e-06,-6.012601261318196e-06,6.418531847884879e-05
-8.806729601928964e-05,0.00014703732449561357,6.198609298735391e-06,-6.538451998494565e-05,6.766091973986477e-05
-7.71864943089895e-05,0.00015288134454749525,3.998333795607323e-06,-0.00010047657269751653,6.659045902779326e-05
-5.065418008598499e-05,0.00012221632641740143,2.933544919869746e-06,-8.329926640726626e-05,6.392045179381967e-05
-2.7508873245096765e-05,8.006650023162365e-05,6.541076800203882e-06,-5.1592349336715415e-05,6.410800415324047e-05
-2.4225115339504555e-05,8.223202712542843e-06,8.712897397344932e-06,-3.6499055568128824e-05,6.796493835281581e-05
-3.116232619504444e-05,-9.721222886582837e-05,8.60962609294802e-06,-1.1021765203622635e-05,7.06674691173248e-05
-1.7413374735042453e-05,-0.00018076557898893952,8.897259249351919e-06,3.152147473883815e-05,7.401943003060296e-05
1.291718945140019e-05,-0.0001875473972177133,1.2797866588698525e-07,5.599977885140106e-05,7.339911098824814e-05
3.1330680940300226e-05,-0.00013505731476470828,-1.3826138456352055e-05,4.5804230467183515e-05,6.52105882181786e-05
3.840202043647878e-05,-7.794956036377698e-05,-1.783249717846047e-05,1.6837790099089034e-05,5.374985994421877e-05
5.9856476582353935e-05,-3.6311681469669566e-05,-1.111602432501968e-05,-6.7045207288174424e-06,5.099731060909107e-05
9.837117249844596e-05,-7.53047470425372e-06,2.830090124916751e-06,-1.2510370652307756e-05,6.321232649497688e-05
0.00012211270222906023,-4.4021471694577485e-06,1.5021739272924606e-05,-2.1343892058212077e-06,7.735030521871522e-05
0.00011201243614777923,-1.888172118924558e-05,2.4409251636825502e-05,7.735995495750103e-06,7.800619641784579e-05
7.979087968124077e-05,-7.110637852747459e-06,3.5128181480104104e-05,5.208683887758525e-06,6.0833928728243336e-05
3.951664621126838e-05,1.7968781321542338e-05,3.720236782100983e-05,-2.4078590286080725e-06,3.9564987673657015e-05
9.261018021788914e-06,3.7623602111125365e-05,2.451949694659561e-05,-1.0236304660793394e-05,2.5882856789394282e-05
1.0354322512284853e-05,6.322051922325045e-05,7.62543959353934e-06,-1.0278823538101278e-05,2.761538235063199e-05
2.208061960118357e-05,0.00011205106420675293,-3.1882991606835276e-06,-4.245043498940504e-07,3.727248986251652e-05
1.052593142958358e-05,0.0001497910125181079,-2.750023213593522e-06,8.664376764500048e-06,4.645749504561536e-05
-1.8889493730966933e-05,0.0001267187763005495,4.689836259785807e-06,6.636220859945752e-06,5.884570055059157e-05
-3.629038474173285e-05,6.030744407325983e-05,1.1832997188321315e-05,-5.598230018222239e-06,7.031696441117674e-05
-3.6729634302901104e-05,2.330913230252918e-05,1.354710548184812e-05,-1.641328890400473e-05,7.31562395230867e-05
-4.05611572205089e-05,3.695857594721019e-05,1.1167357115482446e-05,-1.6755800970713608e-05,6.224695971468464e-05
-6.326094444375485e-05,5.420365778263658e-05,8.19474007585086e-06,-8.209080078813713e-06,4.9156369641423225e-05
-0.0001024879893520847,4.899755367659964e-05,6.053229299141094e-06,2.0848424355790485e-06,4.3244599510217085e-05
-0.0001479046477470547,1.3552982636610977e-05,7.322457804548321e-06,1.0341073902964126e-05,4.312302189646289e-05
-0.000179151029442437,-5.335872992873192e-05,9.58434338826919e-06,1.533603426651098e-05,4.4637392420554534e-05
-0.0001809384411899373,-0.00011199778964510188,8.365989742742386e-06,1.548565887787845e-05,4.7866640670690686e-05
-0.0001609743048902601,-8.496261580148712e-05,4.209726284898352e-06,1.1965486010012683e-05,5.233476258581504e-05
-0.00013938442862126976,6.394350748450961e-06,-5.70687291201466e-07,7.3391352088947315e-06,5.65215086680837e-05
-0.00012730233720503747,5.995961691951379e-05,-5.2596860768971965e-06,-3.645546030384139e-06,6.0068778111599386e-05
-0.00011923797137569636,3.8429170672316104e-05,-6.766120804968523e-06,-2.080347803712357e-05,5.964376759948209e-05
-0.00011057675146730617,-7.226315574371256e-06,-5.914513167226687e-06,-3.553422720870003e-05,5.4284675570670515e-05
-9.697311179479584e-05,-9.863226324569041e-08,-4.9721638788469136e-06,-4.619554238161072e-05,4.909776907879859e-05
-7.834711868781596e-05,6.524487253045663e-05,-2.2772326246922603e-06,-4.9560523621039465e-05,4.2401741666253656e-05
-5.953674190095626e-05,7.786376227159053e-05,4.567096311802743e-06,-4.772851389134303e-05,3.2627667678752914e-05
-4.1077702917391434e-05,8.241546311182901e-06,7.377187557722209e-06,-4.070777868037112e-05,3.127682430204004e-05
-2.7454583687358536e-05,-5.571799192694016e-05,5.43895748705836e-06,-1.976093335542828e-05,3.505519634927623e-05
-3.157480387017131e-05,-6.481201853603125e-05,2.8303602448431775e-06,2.2119531422504224e-05,3.926912177121267e-05
-4.917376645607874e-05,-1.6461352061014622e-05,1.497040898357227e-06,5.547040927922353e-05,4.55537810921669e-05
-5.0814800488296896e-05,5.7515891967341304e-05,3.472554908512393e-06,4.093761890544556e-05,5.141831934452057e-05
-2.807211239996832e-05,8.623925532447174e-05,5.450365733850049e-06,2.6975887976732338e-06,6.0923983255634084e-05
-8.284849172923714e-06,6.342696724459529e-05,3.5115604077873286e-06,-2.4483886591042392e-05,7.214213837869465e-05
-8.003570656001102e-06,3.471671516308561e-05,-4.0823354652275157e-07,-3.102063783444464e-05,8.338530460605398e-05
-2.0760529878316447e-05,1.8822205674950965e-05,-2.658134917510324e-06,-2.65048147412017e-05,8.959827391663566e-05
-1.1945661753998138e-05,2.2573653041035868e-05,-3.7300137591955718e-06,-2.0909972590743564e-05,8.634381083538756e-05
5.200999657972716e-05,5.723059075535275e-05,-3.7166728361626156e-06,-2.039254286501091e-05,7.50426625018008e-05
0.00013619297533296049,0.00012801038974430412,2.03902999373895e-07,-2.584142202977091e-05,6.122177001088858e-05
0.00017590876086615026,0.00019273094949312508,8.46530656417599e-06,-2.3731608962407336e-05,5.2311919716885313e-05
0.00015263629029504955,0.00018469808856025338,1.6704110748833045e-05,-7.068831564538414e-06,4.533202081802301e-05
8.730239642318338e-05,0.00011648701183730736,1.962325222848449e-05,9.784540452528745e-06,3.616670801420696e-05
-1.774439078872092e-05,6.90546294208616e-05,1.9532804799382575e-05,8.426939530181699e-06,2.6275136406184174e-05
-0.00014007579011376947,6.08652553637512e-05,2.0829385903198272e-05,-5.733787929784739e-06,2.1347865185816772e-05
-0.00019082799553871155,5.2831928769592196e-05,2.1202422431088053e-05,-2.135688191629015e-05,2.4228071197285317e-05
-0.00013417127775028348,3.540653779054992e-05,2.179256989620626e-05,-3.7428511859616265e-05,3.735483551281504e-05
-6.654411845374852e-05,2.8367372578941286e-05,2.4202945496654138e-05,-4.6179487981135026e-05,5.689101089956239e-05
-6.995983858359978e-05,3.730532625922933e-05,2.6847417757380754e-05,-4.2523544834693894e-05,7.510931027354673e-05
-0.00012412792420946062,5.7860277593135834e-05,3.0386479920707643e-05,-4.106991764274426e-05,8.565648749936372e-05
-0.00017743496573530138,8.142167644109577e-05,3.468435534159653e-05,-4.102175444131717e-05,8.848455036059022e-05
-0.00019653391791507602,0.00012430516653694212,3.440118598518893e-05,-3.523507257341407e-05,8.66825066623278e-05
-0.00018201133934780955,0.00019937328761443496,2.7858013709192164e-05,-3.011468106706161e-05,8.284788054879755e-05
-0.00014321734488476068,0.0002817772328853607,2.1940635633654892e-05,-3.02960688713938e-05,7.674613880226389e-05
-7.627256854902953e-05,0.0003573302528820932,2.171778578485828e-05,-2.9041450034128502e-05,7.171487231971696e-05
-1.8383501810603775e-05,0.00036907251342199743,2.0801435312023386e-05,-1.3174116247682832e-05,6.856512482045218e-05
-4.031857770314673e-06,0.00017827183182816952,1.546748899272643e-05,1.440500909666298e-05,6.631352152908221e-05
-4.305492893763585e-06,-0.00010938425839412957,1.0429283975099679e-05,4.131780224270187e-05,6.20483624516055e-05
1.1811294825747609e-05,-0.00021472475782502443,7.705133612034842e-06,5.658972077071667e-05,5.7323351938975975e-05
3.974567152909003e-05,-0.00013828286319039762,8.52927678351989e-06,5.782620792160742e-05,5.5888016504468396e-05
5.012634574086405e-05,-5.35376530024223e-05,1.3049765584582929e-05,5.237115692580119e-05,5.5663029343122616e-05
5.4021136747905985e-05,-6.751808541594073e-05,1.3656913324666675e-05,4.838667155127041e-05,5.794955723104067e-05
6.356652011163533e-05,-0.00014279343304224312,1.1942129276576452e-05,3.6465269658947363e-05,6.197061884449795e-05
5.9725105529651046e-05,-0.00020763336215168238,9.358800525660627e-06,3.2440145787404617e-06,7.048031693557277e-05
2.801026676024776e-05,-0.0002506478922441602,1.764070475474e-06,-3.4073618735419586e-05,7.828291563782841e-05
-5.125006282469258e-06,-0.00024245826352853328,-8.231246283685323e-06,-5.662001785822213e-05,8.124177111312747e-05
-3.96746054320829e-06,-0.00015304544649552554,-1.1554145203263033e-05,-5.520182094187476e-05,8.350487041752785e-05
2.388218490523286e-05,-1.5709591025370173e-05,-6.39673044133815e-06,-3.703264883370139e-05,8.560011337976903e-05
4.071709918207489e-05,0.00010023916547652334,-1.8950759113067761e-06,-2.255044637422543e-05,7.925320096546784e-05
3.090481550316326e-05,0.00017643043247517198,-5.590271143773862e-07,-2.2380301743396558e-05,6.401316204573959e-05
1.1474709026515484e-05,0.00022789629292674363,-8.321295297264442e-08,-2.8888744054711424e-05,4.89321791974362e-05
-9.395806955581065e-06,0.0002550707140471786,7.221328957029982e-08,-3.2622414437355474e-05,3.798829857259989e-05
-3.741450927918777e-05,0.0002400531229795888,-6.205247871093889e-08,-3.0729424906894565e-05,3.404153903829865e-05
-8.16783431218937e-05,0.00018049514619633555,-5.42853229035245e-07,-2.5485212972853333e-05,3.7155088648432866e-05
-0.0001279542630072683,0.00010024836228694767,-2.6866891857935116e-06,-2.6399295165902004e-05,3.9008711610222235e-05
-0.00015232160512823611,2.0095443687750958e-05,-4.5623278310813475e-06,-3.3037511457223445e-05,3.518577432259917e-05
-0.00013573550677392632,-7.311984518310055e-05,-4.842604994337307e-06,-3.2906966225709766e-05,3.365062366356142e-05
-8.646288915770128e-05,-0.00017178879352286458,-8.256226919911569e-07,-2.387200584053062e-05,4.2877622036030516e-05
-2.9091730539221317e-05,-0.00019724095182027668,2.4887888230296085e-06,-1.6232032066909596e-05,5.327614417183213e-05
2.961514655908104e-05,-0.00010815051791723818,2.44860189013707e-06,-1.4676145838166121e-05,5.78267099626828e-05
8.780491043580696e-05,5.161675289855339e-06,5.379401954996865e-06,-1.453479035262717e-05,6.826642493251711e-05
0.0001314266410190612,1.645781048864592e-05,9.72276848187903e-06,-1.2873940249846783e-05,8.02963477326557e-05
0.0001518523204140365,-5.097045868751593e-05,8.70365784066962e-06,-1.824486935220193e-05,8.141909347614273e-05
0.00015315446944441646,-8.994913514470682e-05,-1.9820527086267248e-06,-1.781669561751187e-05,7.541890954598784e-05
0.00014475916395895183,-0.00010962099622702226,-1.8411397832096554e-05,-1.2760327990690712e-05,6.988961831666529e-05
0.00012391438940539956,-0.00014298879250418395,-3.155154627165757e-05,-1.3590935850515962e-05,6.609818956349045e-05
9.385742305312306e-05,-0.0001543507823953405,-3.343478965689428e-05,-1.3715067325392738e-05,6.400288839358836e-05
8.36277031339705e-05,-0.0001244510931428522,-2.8378381102811545e-05,-1.201584018417634e-05,6.268313154578209e-05
9.975610009860247e-05,-8.235112181864679e-05,-1.8699402062338777e-05,-8.325831004185602e-06,6.478709110524505e-05
0.00010636505612637848,-2.522099566704128e-05,-5.4365727919503115e-06,-2.5541585273458622e-06,6.794706860091537e-05
7.810998795321211e-05,3.655488762888126e-05,6.926754394953605e-06,5.778661034128163e-06,6.569978722836822e-05
2.172091626562178e-05,5.356139809009619e-05,1.434187561244471e-05,1.4360047316586133e-05,5.789575516246259e-05
-3.8582766137551516e-05,4.866658491664566e-05,1.342994346487103e-05,2.132892404915765e-05,4.9835522077046335e-05
-8.242650073952973e-05,5.772876102128066e-05,1.0667954484233633e-05,2.2519951016874984e-05,4.8602534661768004e-05
-0.00011400481162127107,7.947732956381515e-05,1.1324760635034181e-05,1.6400970707763918e-05,5.544264422496781e-05
-0.00013794076221529394,5.857953510712832e-05,1.3580453014583327e-05,3.710665055223217e-07,6.193716399138793e-05
-0.00013946660328656435,-2.6283132683602162e-05,1.1966397323703859e-05,-2.8823898901464418e-05,6.343372660921887e-05
-0.0001163000997621566,-9.756691724760458e-05,9.655916983319912e-06,-6.057502105250023e-05,6.544705684063956e-05
-8.5488885815721e-05,-7.803429616615176e-05,1.1108507351309527e-05,-7.071826257742941e-05,6.444042082875967e-05
-5.7489534810883924e-05,-1.1653733054117765e-05,1.2037838132528123e-05,-5.590188084170222e-05,5.386582779465243e-05
-2.91288106382126e-05,2.3683178369537927e-05,9.018194759846665e-06,-3.832368747680448e-05,4.034370431327261e-05
5.8417226682649925e-06,3.53195246134419e-05,7.5345424193073995e-06,-2.5340043066535145e-05,3.527603985276073e-05
2.4205797672038898e-05,8.450861787423491e-05,1.1109440492873546e-05,-9.135495020018425e-06,3.77917785954196e-05
-1.1380318028386682e-05,0.0001836520532378927,1.916297151183244e-05,5.600217718892964e-06,4.017570972791873e-05
-8.377552876481786e-05,0.00027460226556286216,2.340642095077783e-05,1.5032702322059777e-05,4.2088380723726004e-05
-0.0001237524556927383,0.00033915048697963357,1.8465365428710356e-05,1.9450993931968696e-05,4.961049489793368e-05
-9.726499411044642e-05,0.000380209821742028,8.75406385603128e-06,1.807052831281908e-05,6.535035208798945e-05
-4.159799209446646e-05,0.00033927845652215183,-3.3426465506636305e-07,1.2244959179952275e-05,8.395341137656942e-05
-4.0452050598105416e-06,0.0001817032170947641,-6.763795568076603e-07,4.683146471506916e-06,9.328159649157897e-05
-1.1958539289480541e-05,0.00011473683116491884,1.8919282638307777e-06,-8.635649464849848e-06,9.280825906898826e-05
-4.882651410298422e-05,0.00011973561049671844,-1.4257021803132375e-06,-2.4268472770927474e-05,8.935480582294986e-05
-8.274187712231651e-05,2.2103940864326432e-05,-6.638866580033209e-06,-2.4085044060484506e-05,8.804619574220851e-05
-0.00010352003300795332,-2.227897675766144e-05,-7.224914952530526e-06,-1.4342008398671169e-05,8.779366908129305e-05
-8.59822248457931e-05,3.0194059945642948e-05,-4.137915311730467e-06,-6.566332103830064e-06,8.513034117640927e-05
-3.5409120755502954e-05,7.859925244702026e-05,2.0936770397383953e-06,-1.1426129276514985e-05,7.81508642830886e-05
4.611347321770154e-06,0.00010161728278035298,6.368020422087284e-06,-2.2495640223496594e-05,6.189273699419573e-05
1.625233744562138e-05,0.00013573946489486843,3.095885176662705e-06,-2.1588961317320354e-05,4.31511907663662e-05
1.973325379367452e-05,0.00018541437748353928,-2.377613327553263e-06,-4.163181074545719e-06,2.9396511308732443e-05
1.874914232757874e-05,0.00023678160505369306,-5.29207818544819e-06,1.8571246982901357e-05,2.65830458374694e-05
-1.7455711713409983e-05,0.00026416342006996274,-6.398649475158891e-06,2.137741284968797e-05,3.358793037477881e-05
-0.0001020010095089674,0.00023759734176564962,-8.468919986626133e-06,-4.502677711570868e-06,4.5051299821352586e-05
-0.00016329249774571508,0.00013359030708670616,-1.220289141201647e-05,-4.0187711420003325e-05,6.02070867898874e-05
-0.00015748593432363123,-3.31692754116375e-05,-1.4270260180637706e-05,-5.646613863063976e-05,7.829131209291518e-05
-0.00013189855962991714,-0.00018814351642504334,-1.1954021829296835e-05,-4.144805279793218e-05,9.475657134316862e-05
-0.00013642522390000522,-0.00029165533487685025,-4.780236395163229e-06,-3.2200725854636403e-06,0.00010439253674121574
-0.00017241363821085542,-0.00036429514875635505,2.8270972052268917e-06,4.050961433677003e-05,0.0001023037257255055
-0.00020976275845896453,-0.0004064261738676578,1.6601636616542237e-06,7.357954746112227e-05,8.952545613283291e-05
-0.00021939058206044137,-0.0003453523095231503,-8.15652765595587e-06,8.41224828036502e-05,7.452696445398033e-05
-0.00018185042426921427,-0.0002138758427463472,-1.700836219242774e-05,7.206669397419319e-05,6.680818478344008e-05
-0.00010749848297564313,-0.00012780945689883083,-2.3852648155298084e-05,3.559518518159166e-05,6.597478204639629e-05
-3.551831468939781e-05,-9.385783778270707e-05,-2.876379767258186e-05,-3.180161729687825e-05,6.158565520308912e-05
-4.0334057302970905e-06,-5.9182730183238164e-05,-2.6128225727006793e-05,-9.379203402204439e-05,5.4888096201466396e-05
-8.144389539666008e-06,-5.602675082627684e-05,-1.5410087144118734e-05,-9.446958574699238e-05,5.216813224251382e-05
-2.087665234284941e-05,-8.855716441757977e-05,3.6729209114128025e-06,-5.410508674685843e-05,4.880284905084409e-05
-2.4803342967061326e-05,-0.00010082650260301307,2.6477327992324717e-05,-1.8753731637843885e-05,4.1710158257046714e-05
-2.3447129933629185e-05,-6.915019184816629e-05,3.885211845044978e-05,-3.2896434731810587e-06,3.74837800336536e-05
-5.773146767751314e-06,-6.423402965083369e-07,3.7641275412170216e-05,-6.998629487497965e-06,3.459003710304387e-05
2.1316163838491775e-05,0.00013478464097715914,3.221118458895944e-05,-9.51181664277101e-06,3.325374564155936e-05
2.3046321075526066e-05,0.0002564289898145944,2.8021120670018718e-05,-1.4026036296854727e-05,3.380569614819251e-05
1.2113926459278446e-05,0.00023679208243265748,2.5305489543825388e-05,-2.5121307771769352e-05,3.513563206070103e-05
2.457054506521672e-05,9.518420847598463e-05,2.0303814380895346e-05,-2.784580283332616e-05,3.782670682994649e-05
6.22907537035644e-05,-2.2433912818087265e-05,1.7221640518982895e-05,-2.100313395203557e-05,4.116415948374197e-05
9.920581214828417e-05,-1.0095543984789401e-05,1.750411138345953e-05,-1.648669240239542e-05,4.415036892169155e-05
0.00010769045184133574,5.876283103134483e-05,1.8982407709700055e-05,-1.9744244127650745e-05,4.6815672249067575e-05
8.74717443366535e-05,7.435866427840665e-05,1.972748214029707e-05,-2.6503381377551705e-05,5.004142803954892e-05
5.580322613241151e-05,2.0266570572857745e-05,1.899772360047791e-05,-3.3502172300359234e-05,4.9562175263417885e-05
3.966426447732374e-05,-6.325343747448642e-06,2.0071629478479736e-05,-3.3021686249412596e-05,4.673026342061348e-05
5.3343246690928936e-05,1.9251579942647368e-05,1.9035849618376233e-05,-2.2127554984763265e-05,4.5209952077129856e-05
8.021658140933141e-05,5.516770397662185e-05,1.2934305232192855e-05,-7.828107300156262e-06,4.432211062521674e-05
9.37574150157161e-05,9.596034215064719e-05,7.672759238630533e-06,6.523120646306779e-06,4.538179928204045e-05
8.470716420561075e-05,0.00015926247579045594,6.018328804202611e-06,2.26031152124051e-05,4.8541227442910895e-05
6.215204484760761e-05,0.00021784802083857358,2.336772240596474e-06,3.136638042633422e-05,5.124337621964514e-05
3.474950426607393e-05,0.0002357783232582733,-3.0185849482222693e-06,1.9324685126775876e-05,5.287285603117198e-05
3.769903059946955e-06,0.0002243000199086964,-7.05710772308521e-06,-1.0842833944479935e-05,5.150177457835525e-05
-3.4615171898622066e-05,0.00019860519387293607,-9.074678928300273e-06,-4.648405229090713e-05,4.347586946096271e-05
-7.143394759623334e-05,0.00016064093506429344,-8.323889232997317e-06,-7.819034362910315e-05,3.666739576146938e-05
-9.491981472820044e-05,0.00012435227108653635,-3.1785846204002155e-06,-8.050494216149673e-05,3.999597538495436e-05
-9.996732114814222e-05,0.00010930659482255578,4.0455979615217075e-06,-3.0458744731731713e-05,4.84538686578162e-05
-9.754962229635566e-05,0.00010071795259136707,8.02342765382491e-06,2.6415531465318054e-05,5.5720036471029744e-05
-8.984164742287248e-05,9.863969899015501e-05,6.9121279011596926e-06,2.789031532302033e-05,5.83921791985631e-05
-6.437921547330916e-05,0.00012059476284775883,8.427206012129318e-06,-1.4793005902902223e-05,5.878617594134994e-05
-4.7673176595708355e-05,0.00016257584502454847,1.2411882380547468e-05,-4.592955156113021e-05,6.74499970045872e-05
-5.4604504839517176e-05,0.00020223029423505068,1.4156944416754413e-05,-3.12186311930418e-05,7.974079198902473e-05
-5.4950742196524516e-05,0.00018567306688055396,1.2729297850455623e-05,4.018648269266123e-06,8.28701231512241e-05
-5.014707858208567e-05,0.0001348116056760773,1.0304954230377916e-05,1.8799644749378785e-05,7.96624954091385e-05
-5.223590778768994e-05,0.00011485927097965032,1.5707682905485854e-05,1.9743320081033744e-05,7.623908459208906e-05
-4.914991950499825e-05,7.640881813131273e-05,2.8598811695701443e-05,2.279860564158298e-05,7.367474609054625e-05
-3.521212056512013e-05,2.6491429707675707e-06,3.892041422659531e-05,3.324101635371335e-05,7.025949889793992e-05
-2.394090552115813e-05,-4.373483534436673e-05,3.450827716733329e-05,4.390425237943418e-05,6.497414142359048e-05
-2.7886642783414572e-05,-6.7478722485248e-06,2.167527964047622e-05,4.588484807754867e-05,5.6875342124840245e-05
-2.9215427275630645e-05,8.26026953291148e-05,1.1601712685660459e-05,4.239920963300392e-05,5.0241462304256856e-05
-1.0002389899455011e-05,0.00013605413550976664,1.017410249914974e-05,4.217663445160724e-05,4.483614247874357e-05
1.1217301107535604e-05,0.00010110677976626903,1.520572550361976e-05,4.481722498894669e-05,4.017735045636073e-05
1.2804294783563819e-05,-5.227095971349627e-05,1.59138780873036e-05,3.57466415152885e-05,3.8269092328846455e-05
4.422412075655302e-06,-0.00032858550548553467,6.700704489048803e-06,5.108679943077732e-06,4.064844688400626e-05
9.242136229659081e-07,-0.0006007617921568453,-3.572311925381655e-06,-4.5452667109202594e-05,4.647622336051427e-05
9.601421879779082e-06,-0.0006631198921240866,-4.01762599722133e-06,-8.221335156122223e-05,5.206123023526743e-05
3.533450944814831e-05,-0.00046987374662421644,1.5364518048954778e-06,-7.613994966959581e-05,6.060948362573981e-05
6.404419400496408e-05,-0.0001945440744748339,5.869630967936246e-06,-4.1641083953436464e-05,7.745451148366556e-05
7.58822716306895e-05,-2.457009941281285e-05,6.112672963354271e-06,-9.505959496891592e-06,9.636845061322674e-05
6.225568358786404e-05,2.1588239178527147e-05,2.2319525214697933e-06,6.500360996142263e-06,0.00010593037586659193
3.6480993003351614e-05,2.2567679479834624e-05,-2.4119735826388933e-06,1.0803666555148084e-05,0.00010340536391595379
2.1720265067415312e-05,2.8738335458911024e-05,-3.2170296435651835e-06,9.48838351177983e-06,9.181476343655959e-05
1.989460361073725e-05,4.4018132030032575e-05,-3.922712949133711e-06,5.518328634934733e-06,7.585177809232846e-05
1.262973000848433e-06,7.490906136808917e-05,-5.3555731938104145e-06,2.743262484727893e-06,6.28489360678941e-05
-4.129376247874461e-05,0.00010654064681148157,-5.5220984904735815e-06,-6.756277457498072e-07,5.707638410967775e-05
-6.637014303123578e-05,0.00011055090726586059,-3.7340221297199605e-06,-6.763653800589964e-06,5.249333844403736e-05
-5.758582119597122e-05,0.00010782268509501591,5.157214673090493e-07,-1.6327823686879128e-05,4.7848290705587715e-05
-3.2598243706161156e-05,0.00012985520879738033,4.54549262940418e-06,-2.902892629208509e-05,4.502428782870993e-05
-8.382149644603487e-06,0.00017053632473107427,8.566687938582618e-06,-4.466955942916684e-05,4.3508676753845066e-05
7.37219670554623e-06,0.0002072303177556023,1.4459132216870785e-05,-4.358316073194146e-05,4.534970139502548e-05
2.5580568035366014e-05,0.00022122825612314045,1.916193104989361e-05,-2.6787705792230554e-05,4.961790546076372e-05
3.5834436857840046e-05,0.00020179928105790168,2.0513201889116317e-05,-1.756264828145504e-05,5.2117025916231796e-05
2.1120244127814658e-05,0.00012001130380667746,1.891260762931779e-05,-1.2792013876605779e-05,5.852055983268656e-05
-3.2195130188483745e-05,-5.646425506711239e-06,1.5563617125735618e-05,-1.612361847946886e-05,7.097917114151642e-05
-9.117177978623658e-05,-8.462594996672124e-05,1.2439069905667566e-05,-2.0331797713879496e-05,8.531590719940141e-05
-0.00010453823051648214,-0.00010076437320094556,1.259797591046663e-05,-2.32819547818508e-05,9.472852252656594e-05
-0.00010001896589528769,-9.066938218893483e-05,1.1962287317146547e-05,-2.322142790944781e-05,9.623914957046509e-05
-0.00010760396253317595,-6.314204802038148e-05,6.893523732287576e-06,-1.930251528392546e-05,8.985921158455312e-05
-0.00012184616934973747,-4.756602720590308e-05,1.4061694173506112e-06,-1.2170261470600963e-05,7.916788308648393e-05
-0.00012404659355524927,-9.312442853115499e-05,-1.2246587175468449e-06,-3.4680826956901e-06,7.229807670228183e-05
-0.00010588939039735124,-0.00018982299661729485,-4.99976613355102e-06,1.921027433127165e-06,7.061137148411945e-05
-7.6025549788028e-05,-0.00022887859086040407,-1.146486283687409e-05,-3.445643869781634e-06,6.998627941356972e-05
-6.463462341343984e-05,-0.00016394314297940582,-1.5652536603738554e-05,-1.7295931684202515e-05,6.380659760907292e-05
-7.191077747847885e-05,-6.874102109577507e-05,-1.4479599485639483e-05,-2.1988524167682044e-05,5.2622279326897115e-05
-6.9528839958366e-05,-4.033383902424248e-06,-6.94411164658959e-06,-1.4041697795619257e-05,4.2837142245844007e-05
-5.802884334116243e-05,3.857978663290851e-05,8.223040595112252e-07,-5.622718163067475e-06,3.684759940369986e-05
-5.704771319869906e-05,7.052440923871472e-05,4.537117547442904e-06,-4.642996373149799e-06,3.5166645830031484e-05
-5.587118721450679e-05,0.00010649659088812768,4.696572432294488e-06,-5.479982064571232e-06,4.03974081564229e-05
-3.657918205135502e-05,0.00015609466936439276,6.875913186377147e-06,-5.170484655536711e-06,4.7789224481675774e-05
-2.1770314560853876e-05,0.00019038045138586313,1.3398404007602949e-05,-1.9681760932144243e-06,4.967674976796843e-05
-3.612552973208949e-05,0.00018950864614453167,1.8725564586929977e-05,-1.0568704738034285e-06,4.6621658839285374e-05
-7.948955317260697e-05,0.00016538430645596236,2.0686667994596064e-05,-5.580185188591713e-06,4.202245327178389e-05
-0.0001236961834365502,0.00014346859825309366,2.0726536604342982e-05,-9.650481842982117e-06,3.682957321871072e-05
-0.00013740737631451339,0.00012137089652242139,1.8967213691212237e-05,-3.89937667932827e-06,3.3699150662869215e-05
-0.00012565666111186147,8.485606667818502e-05,1.8963519323733635e-05,1.0214560461463407e-05,3.252809256082401e-05
-0.00011556870595086366,2.154492358386051e-05,1.9283615984022617e-05,1.878978764580097e-05,3.258694414398633e-05
