-0.0001079685753211379,-3.173206641804427e-05,2.0018571376567706e-05,-2.4061731892288662e-05,4.43590797658544e-05
-0.00010460526391398162,1.043063912220532e-05,2.5628434741520323e-05,-3.614484012359753e-05,4.62813040940091e-05
-9.975953435059637e-05,2.2459957108367234e-05,2.719156509556342e-05,-3.904082768713124e-05,4.8691996198613197e-05
-7.39622482797131e-05,4.4386710214894265e-05,2.1551497411564924e-05,-4.5168297219788656e-05,5.938325557508506e-05
-3.838514021481387e-05,7.761499000480399e-05,8.091323252301663e-06,-5.5773383792256936e-05,7.180820102803409e-05
-4.274031653039856e-06,0.00011777142208302394,-4.57884243587614e-06,-6.12093645031564e-05,7.53776403144002e-05
2.3185813915915787e-05,0.00012362746929284185,-9.923603101924527e-06,-5.98906226514373e-05,6.915730773471296e-05
4.473681474337354e-05,9.331326145911589e-05,-5.7337797443324234e-06,-5.660492752213031e-05,5.969232734059915e-05
5.0195129006169736e-05,8.33673620945774e-05,5.791941148913793e-08,-5.353114829631522e-05,5.460952888824977e-05
4.496886322158389e-05,0.0001172777556348592,4.409105713421013e-06,-4.821682523470372e-05,5.2560535550583154e-05
4.1443876398261636e-05,0.00016285045421682298,8.251586223195773e-06,-4.142752004554495e-05,5.1116330723743886e-05
5.216718273004517e-05,0.00019059634360019118,1.558858093630988e-05,-3.645434117061086e-05,5.016544309910387e-05
7.165638089645654e-05,0.00018702345550991595,2.599740219011437e-05,-3.163242945447564e-05,4.938240090268664e-05
7.800783350830898e-05,0.00015190095291472971,3.555840521585196e-05,-2.2847858417662792e-05,4.897766848444007e-05
5.971618156763725e-05,0.00010546175326453522,4.071598596055992e-05,-1.4872873180138413e-05,4.697975964518264e-05
2.8992026273044758e-05,7.486769754905254e-05,3.83095393772237e-05,-9.896562914946117e-06,4.209884718875401e-05
3.14343174068199e-06,6.833451334387064e-05,3.160136111546308e-05,-7.3471696850901935e-06,3.939450471079908e-05
-1.1751445526897442e-05,7.216693484224379e-05,2.7719292120309547e-05,-8.495007932651788e-06,4.056611578562297e-05
-1.600223549758084e-05,7.149469456635416e-05,2.9764531063847244e-05,-1.213378163811285e-05,4.35426554759033e-05
-1.0720398677221965e-05,5.0757185817928985e-05,3.114869105047546e-05,-1.2550308383652009e-05,4.735829497803934e-05
-4.951042242851145e-08,4.726623501483118e-06,2.8162221497041173e-05,-8.025996066862717e-06,5.001448153052479e-05
8.276224434666801e-06,-2.8044774808222428e-05,2.536198553571012e-05,-4.0938462007034104e-06,4.839205939788371e-05
8.487094419251662e-06,-7.941314834170043e-06,2.5883664420689456e-05,-2.0424540707608685e-06,4.5140805013943464e-05
-4.355412784207147e-06,3.865263715852052e-05,2.1519927031476982e-05,-8.368216342091728e-09,4.5148419303586707e-05
-1.9414223061176017e-05,6.33601302979514e-05,9.264805157727096e-06,2.6711168175097555e-06,5.015252827433869e-05
-2.4381679395446554e-05,5.9032419812865555e-05,-2.828591277648229e-06,1.5072932001203299e-05,5.8290348533773795e-05
-2.4302962629008107e-05,5.039012467022985e-05,-4.1231687646359205e-06,3.821530845016241e-05,5.851812966284342e-05
-2.8121137802372687e-05,5.946910459897481e-05,4.427230123837944e-06,5.147289266460575e-05,5.19543573318515e-05
-2.9994942451594397e-05,7.746772462269291e-05,9.211807991960086e-06,4.498180715017952e-05,4.97552719025407e-05
-2.9194754461059347e-05,6.9105313741602e-05,5.621642230835278e-06,2.7833253625431098e-05,5.2943734772270545e-05
-3.488035872578621e-05,3.484588523861021e-05,1.249866841135372e-06,5.364224307413679e-06,5.656795474351384e-05
-4.3339805415598676e-05,3.5278719678899506e-06,-2.356718141527381e-06,-3.3963551686611027e-05,5.9128215070813894e-05
-4.63219330413267e-05,3.7224599509499967e-06,-2.968329226860078e-07,-7.634957728441805e-05,5.844466795679182e-05
-4.3062442273367196e-05,5.6100521760527045e-05,4.900853696199192e-07,-7.890113192843273e-05,5.710490222554654e-05
-3.4600463550304994e-05,0.00013885130465496331,-2.4473829398630187e-06,-4.845441799261607e-05,5.991526268189773e-05
-2.7297124688629992e-05,0.00020414628670550883,1.0243556971545331e-06,-2.388662142038811e-05,6.304208363872021e-05
-2.171734558942262e-05,0.00022946359240449965,6.51994059808203e-06,-1.4927986740076449e-05,6.503602344309911e-05
-1.694815364317037e-05,0.0002187204227084294,9.189491720462684e-06,-1.375814372295281e-05,7.263162842718884e-05
-1.3654344002134167e-05,0.0001821607438614592,8.819179129204713e-06,-1.169685219792882e-05,8.378577331313863e-05
-1.3538072380470112e-05,0.0001333093096036464,5.567361313296715e-06,-9.451259757042862e-06,8.745365630602464e-05
-2.185521589126438e-05,8.43106972752139e-05,5.007901222597866e-07,-8.629708645457868e-06,7.848582754377276e-05
-3.635051325545646e-05,2.5476370865362696e-05,-1.4665957905890536e-06,-1.3204149581724778e-05,6.741914694430307e-05
-5.05717471241951e-05,-5.8616158639779314e-05,-1.0256708264932968e-06,-1.6379324733861722e-05,6.525171920657158e-05
-5.472462362376973e-05,-0.00014647102216258645,5.101224473946786e-07,-1.4024811207491439e-05,7.138243381632492e-05
-4.837155211134814e-05,-0.00019911231356672943,2.549029431975214e-06,-1.1279957107035443e-05,7.637800445081666e-05
-3.87793370464351e-05,-0.0002012804470723495,2.106487727360218e-06,-1.1958493814745452e-05,7.485186506528407e-05
-3.181693682563491e-05,-0.0001725854817777872,-4.257553428033134e-06,-1.342585437669186e-05,6.871177902212366e-05
-3.154584192088805e-05,-0.00013874484284315258,-9.861866601568181e-06,-1.285491180169629e-05,6.261726230150089e-05
-4.45514997409191e-05,-9.266878623748198e-05,-8.233908374677412e-06,-1.3623667655338068e-05,5.835777483298443e-05
-6.105365173425525e-05,-2.9715982236666605e-05,-5.294497441354906e-06,-1.2250062354723923e-05,5.613167741103098e-05
-6.49061257718131e-05,1.8777514924295247e-05,-7.499463208660018e-06,-9.668687198427506e-06,5.7913239288609475e-05
-5.927269012317993e-05,2.0871524611720815e-05,-9.06825516722165e-06,-8.791701475274749e-06,6.148654938442633e-05
-5.34415667061694e-05,-7.01549424775294e-06,-6.88009549776325e-06,-8.933860044635367e-06,6.642182415816933e-05
-5.363753734854981e-05,-4.281960627849912e-06,-3.7629429243679624e-06,-7.907407962193247e-06,6.900442531332374e-05
-6.443991878768429e-05,3.2128868042491376e-05,3.0166961551003624e-06,-5.858808435732499e-06,6.640788342338055e-05
-7.275955431396142e-05,3.8169095205375925e-05,5.097645043861121e-06,-6.1127625485823955e-06,6.362407293636352e-05
-6.017031046212651e-05,-2.3222080926643685e-05,-2.317830421816325e-06,-1.084797713701846e-05,6.371553899953142e-05
-3.032774657185655e-05,-0.00010782419849419966,-6.799064522056142e-06,-1.6700063497410156e-05,6.121466140029952e-05
1.0046312581835082e-06,-0.00017138716066256166,-4.9357236093783285e-06,-2.1001404093112797e-05,5.8212815929437056e-05
2.610018964332994e-05,-0.00016533100279048085,-3.8051127830840414e-06,-2.1911848307354376e-05,5.7694771385286e-05
4.7323814214905724e-05,-7.347015343839303e-05,-1.0197358278674074e-05,-1.862735916802194e-05,5.870501263416372e-05
6.115902942838147e-05,7.2658781391510274e-06,-2.0398856577230617e-05,-1.4743030078534503e-05,5.5251173762371764e-05
6.0687085351673886e-05,2.9202406949480064e-05,-2.3746932129142806e-05,-1.400431301590288e-05,4.971400630893186e-05
4.832501872442663e-05,3.830688365269452e-05,-2.3613478333572857e-05,-1.541634446766693e-05,4.916129182674922e-05
3.364010262885131e-05,7.082997035467997e-05,-2.6049061489175074e-05,-1.7454716726206243e-05,5.317094473866746e-05
1.253927985089831e-05,0.00010503522935323417,-2.7436968593974598e-05,-1.6549503925489262e-05,5.373969906941056e-05
-1.62313663167879e-05,0.00011366557009750977,-2.1485629986273125e-05,-1.3669079635292292e-05,4.7939105570549145e-05
-4.172304761596024e-05,9.570393740432337e-05,-1.1673134395095985e-05,-1.013892688206397e-05,4.430873741512187e-05
-5.99581326241605e-05,7.185966387623921e-05,-4.42740247308393e-06,-4.989874014427187e-06,4.752244058181532e-05
-7.157384970923886e-05,6.387990288203582e-05,1.287024247176305e-06,4.4502843365989975e-07,5.2627943659899756e-05
-7.498063496313989e-05,6.99824231560342e-05,1.0822398508025799e-05,3.223053454348701e-06,5.4861789976712316e-05
-7.239237311296165e-05,8.093985525192693e-05,1.9738929040613584e-05,2.4168896288756514e-06,5.535062518902123e-05
-6.705130363116041e-05,9.560513717588037e-05,1.9701332348631695e-05,-5.306127945914341e-07,5.519307524082251e-05
-5.890832471777685e-05,0.00010314346582163125,1.4210844710760284e-05,7.831529842405871e-07,5.531819988391362e-05
-5.0498161726864055e-05,9.413711086381227e-05,1.3805021808366291e-05,9.004822459246498e-06,5.4580516007263213e-05
-4.516543049248867e-05,8.551935025025159e-05,1.7285625290242024e-05,1.1870194612129126e-05,5.6609387684147805e-05
-4.1171082557411864e-05,8.496372174704447e-05,1.713108940748498e-05,3.3829783205874264e-06,6.00307721470017e-05
-3.1017520086606964e-05,8.96188139449805e-05,1.6161870007636026e-05,-9.715613487060182e-07,6.088896043365821e-05
-1.668450204306282e-05,9.664777462603524e-05,1.4446846762439236e-05,5.829034307680558e-06,6.104743079049513e-05
-1.1899122910108417e-05,9.516912541585043e-05,1.2138361853430979e-05,1.2904558388981968e-05,6.1898521380499e-05
-1.879092087619938e-05,7.894844748079777e-05,1.1722921044565737e-05,1.5750951206428e-05,6.321448745438829e-05
-3.0389390303753316e-05,4.788428486790508e-05,9.479093932895921e-06,9.76848150457954e-06,6.221019430086017e-05
-3.7242276448523626e-05,6.228383426787332e-06,2.902202822951949e-06,-2.103842234646436e-06,6.111902621341869e-05
-3.389148696442135e-05,-1.7438262148061767e-05,-2.9987206744408468e-06,-9.03727504919516e-06,6.0641730669885874e-05
-3.09182760247495e-05,-1.4995270248618908e-05,-8.460291610390414e-06,-7.556250693596667e-06,5.768889604951255e-05
-3.665654003270902e-05,-1.3303442756296135e-05,-1.3081819815852214e-05,-3.894203928211937e-06,5.573356247623451e-05
-4.8288093239534646e-05,-2.5854335035546683e-05,-1.3288774425745942e-05,-7.361827556451317e-06,5.437113213702105e-05
-5.3937226766720414e-05,-4.149232336203568e-05,-1.3936148206994403e-05,-1.371029793517664e-05,5.360576687962748e-05
-5.3352105169324204e-05,-4.735253605758771e-05,-1.456678546674084e-05,-1.549929402244743e-05,5.245102147455327e-05
-4.864583752350882e-05,-4.027024260722101e-05,-9.673058229964226e-06,-1.055073516909033e-05,5.305689410306513e-05
-3.8044367101974785e-05,-2.326308640476782e-05,-7.355918683060736e-07,-1.5142592246775166e-06,5.375532782636583e-05
-2.4773204131633975e-05,-7.067271326377522e-06,5.309108473738888e-06,6.56340625937446e-06,5.3870517149334773e-05
-1.4709082279296126e-05,4.54621113021858e-06,5.139110271557001e-06,1.0380108506069519e-05,5.5253909522434697e-05
-1.1317037206026725e-05,9.930537089530844e-06,8.184297257685103e-07,8.540740054741036e-06,5.8338493545306846e-05
-9.376968591823243e-06,-3.037477654288523e-06,-4.308541974751279e-06,5.451169727166416e-06,5.9223981224931777e-05
-6.778133865736891e-06,-3.271237437729724e-05,-7.222023214126239e-06,1.988790472751134e-06,5.666224387823604e-05
-6.1641590036742855e-06,-3.761835250770673e-05,-8.201792297768407e-06,2.7267873292657896e-07,5.596576374955475e-05
-6.832513918197947e-06,5.007680556445848e-06,-7.667676982237026e-06,2.0620734630938387e-06,5.884610072826035e-05
-5.957867870165501e-06,5.1205497584305704e-05,-6.469121672125766e-06,3.5932778246206e-06,6.317422958090901e-05
-5.096506356494501e-06,6.67237545712851e-05,-6.588596079382114e-06,1.001661985355895e-06,6.794564251322299e-05
-3.1080858207133133e-06,7.4481446063146e-05,-7.648486644029617e-06,-8.063816494541243e-07,7.122854731278494e-05
5.09142728333245e-06,8.992427319753915e-05,-7.279975307028508e-06,4.289831394999055e-06,6.890208169352263e-05
1.7675671188044362e-05,0.00010141650272998959,-2.6367843020125292e-06,1.310886273131473e-05,6.728227162966505e-05
2.085787673422601e-05,9.872386726783589e-05,4.407981577969622e-06,1.519520355941495e-05,7.278775592567399e-05
4.300095042708563e-06,7.75756489019841e-05,8.035522114369087e-06,1.4602862847823417e-06,8.241972682299092e-05
-2.5041737899300642e-05,5.200931627769023e-05,6.466445029218448e-06,-3.106895019300282e-05,8.045753929764032e-05
-4.696030737250112e-05,4.813772829947993e-05,1.460928501728631e-06,-6.905996997375041e-05,6.34771422483027e-05
-5.17043263243977e-05,6.909040530445054e-05,1.2385410173010314e-06,-8.575442188885063e-05,5.313114161253907e-05
-3.959007517551072e-05,7.667733007110655e-05,7.223555257951375e-06,-7.313941023312509e-05,5.9896905440837145e-05
-1.8829383407137357e-05,3.1428957299795e-05,9.52435948420316e-06,-5.7874436606653035e-05,6.841198774054646e-05
7.366118666141119e-07,-3.190326242474839e-05,1.056643759511644e-05,-5.184690235182643e-05,7.053795707179233e-05
1.5952713511069305e-05,-5.2380255510797724e-05,1.1891867870872375e-05,-4.3802712752949446e-05,6.44966057734564e-05
2.3371141651296057e-05,-2.9976277801324613e-05,1.2543227057904005e-05,-3.5089989978587255e-05,5.531495116883889e-05
2.0135517843300477e-05,1.004825116979191e-05,1.4049961464479566e-05,-2.9387010727077723e-05,4.866807648795657e-05
1.1123028343718033e-05,3.916322748409584e-05,1.2630933269974776e-05,-2.8824804758187383e-05,4.541104499367066e-05
-1.1411049172238563e-06,5.096575478091836e-05,1.1413208994781598e-05,-2.9271577659528702e-05,4.783011172548868e-05
-1.4287043995864224e-05,5.596636765403673e-05,9.248810783901718e-06,-2.6554511350695975e-05,5.254175266600214e-05
-1.8847633327823132e-05,6.086631037760526e-05,8.112079740385525e-06,-1.7755102817318402e-05,5.638106449623592e-05
-2.1315960111678578e-05,6.745118298567832e-05,1.196507946588099e-05,-5.124707968207076e-06,5.9046054957434535e-05
-2.700132245081477e-05,7.302541052922606e-05,1.972954487428069e-05,8.825417353364173e-06,5.9093490563100204e-05
-3.295534770586528e-05,7.595646457048133e-05,2.750189378275536e-05,1.6810316083137877e-05,5.6909164413809776e-05
-3.6941884900443256e-05,7.670077320653945e-05,2.8972090149181895e-05,1.8619897673488595e-05,5.635547495330684e-05
-4.022350185550749e-05,7.694042142247781e-05,2.42523274209816e-05,2.013517587329261e-05,5.827415225212462e-05
-4.286737384973094e-05,6.828541518189013e-05,1.7788126569939777e-05,1.709723255771678e-05,6.109783134888858e-05
-4.3300628021825105e-05,4.527849523583427e-05,1.4556468158843927e-05,8.175014954758808e-06,6.131285044830292e-05
-4.480329516809434e-05,1.5984827768988907e-05,1.5071761481522117e-05,1.134901367549901e-06,5.564691673498601e-05
-5.275398871162906e-05,-7.297960110008717e-06,1.58147158799693e-05,8.418105608143378e-07,4.5679480535909534e-05
-6.868854688946158e-05,-2.534133273002226e-05,1.336992863798514e-05,-2.188290864069131e-06,3.7485187931451946e-05
-7.981882663443685e-05,-4.175147114438005e-05,1.3435388609650545e-05,-7.857481250539422e-06,3.558250318747014e-05
-7.396905130008236e-05,-5.214421253185719e-05,1.8119539163308218e-05,-9.096570465771947e-06,3.916451896657236e-05
-5.9176210925215855e-05,-2.4096605557133444e-05,2.2739104679203592e-05,-6.794625278416788e-06,4.492812877288088e-05
-5.2083454647799954e-05,4.8990637878887355e-05,2.490406586730387e-05,-2.332703161300742e-06,5.264868741505779e-05
-5.11465004819911e-05,0.00011829345021396875,2.399929508101195e-05,4.122615337109892e-06,6.039014260750264e-05
-5.3067800763528794e-05,0.00015557357983198017,2.317559665243607e-05,1.7550839856994571e-06,6.233239400899038e-05
-6.018121712259017e-05,0.00016934421728365123,2.501990456948988e-05,-6.174059762997786e-06,6.128950190031901e-05
-6.844229210400954e-05,0.0001708755298750475,2.7899870474357158e-05,-8.859742592903785e-06,6.269814912229776e-05
-6.947373185539618e-05,0.00016057460743468255,3.148930045426823e-05,-1.531043199065607e-05,6.727108120685443e-05
-6.881957233417779e-05,0.0001481230283388868,3.077333531109616e-05,-2.5660287064965814e-05,7.799100421834737e-05
-7.815726712578908e-05,0.00013923195365350693,2.6794694349518977e-05,-2.7186088118469343e-05,8.959051046986133e-05
-9.134528954746202e-05,0.0001078387358575128,2.488900463504251e-05,-2.0902725736959837e-05,9.45355131989345e-05
-9.862021397566423e-05,3.220241342205554e-05,2.489426697138697e-05,-1.6706142559996806e-05,8.976644312497228e-05
-8.777053153607994e-05,-5.994235471007414e-05,2.5294504666817375e-05,-1.7912818293552846e-05,7.664874283364043e-05
-7.238340185722336e-05,-0.00011390713916625828,2.4015480448724702e-05,-1.9843630070681684e-05,6.337561353575438e-05
-6.920209125382826e-05,-0.0001233249349752441,2.086442691506818e-05,-1.557614086777903e-05,5.5610791605431587e-05
-6.850717909401283e-05,-0.00011006191925844178,1.3784897419100162e-05,-1.0839205060619861e-05,5.4605206969426945e-05
-5.83519104111474e-05,-7.960989023558795e-05,3.4084919207089115e-06,-1.0135599040950183e-05,5.9323177993064746e-05
-4.014330625068396e-05,-3.415446917642839e-05,-6.763495548511855e-06,-1.160102056019241e-05,6.281026435317472e-05
-2.1308593204594217e-05,2.621711018946371e-06,-1.4586769793822896e-05,-1.213105770148104e-05,6.0882754041813314e-05
9.279684718421777e-07,-9.094984307012055e-06,-1.9978895579697564e-05,-1.126436563936295e-05,5.718184547731653e-05
2.6041350793093443e-05,-3.7351470382418483e-05,-2.0124922230024822e-05,-1.1482077752589248e-05,5.592376328422688e-05
4.378105586511083e-05,-2.2605230697081424e-05,-1.4692518561787438e-05,-1.3492031030182261e-05,5.4848544095875695e-05
4.282518057152629e-05,5.8412583712197375e-06,-6.3842990130069666e-06,-1.6725281966500916e-05,5.341300493455492e-05
2.867652256099973e-05,-8.505644473189022e-06,2.6590046218188945e-06,-1.8361277398071252e-05,5.4735912272008136e-05
2.2246587832341902e-05,-5.253914787317626e-05,1.221421280206414e-05,-1.5612031347700395e-05,5.841265374328941e-05
3.659230060293339e-05,-0.00010087023838423193,2.1400264813564718e-05,-9.86513350653695e-06,6.135901639936492e-05
5.5509346566395834e-05,-0.0001563836558489129,2.779008718789555e-05,-6.306806426437106e-06,6.361892155837268e-05
5.181098458706401e-05,-0.0001952124002855271,2.6391302526462823e-05,-7.763857865938917e-06,6.566633965121582e-05
1.397427240590332e-05,-0.00017750133702065796,1.8463257219991647e-05,-9.868859706330113e-06,6.324014975689352e-05
-3.3975811675190926e-05,-0.00010280629794578999,1.5824944057385437e-05,-1.964372131624259e-06,5.664848504238762e-05
-5.54874241061043e-05,1.7223370605279342e-06,2.243561903014779e-05,1.544622500659898e-05,5.016112118028104e-05
-4.331942545832135e-05,7.99761401140131e-05,3.4004195185843855e-05,2.6530276954872534e-05,4.782753603649326e-05
-1.6783737009973265e-05,9.169061377178878e-05,4.0675211494090036e-05,1.96544478967553e-05,4.628051465260796e-05
-3.293615691291052e-06,8.509404869982973e-05,4.029284173157066e-05,4.811840881302487e-06,4.402620470500551e-05
-8.3800014181179e-06,0.00010096715413965285,3.750323230633512e-05,-6.656455752818147e-06,4.614070348907262e-05
-1.696149593044538e-05,0.00011550951603567228,3.311360705993138e-05,-1.3529955140256789e-05,5.232695912127383e-05
-2.3067021174938418e-05,0.00010618610394885764,2.6279769372195005e-05,-1.3172891158319544e-05,5.8875146351056173e-05
-2.811359263432678e-05,7.790464587742463e-05,2.1455256501212716e-05,-1.1035578609153163e-05,6.307466537691653e-05
-3.2196319807553664e-05,5.065792356617749e-05,2.1365653083194047e-05,-9.894602044369094e-06,6.220153591129929e-05
-3.047507198061794e-05,5.091583443572745e-05,2.076068994938396e-05,-7.4054269134649076e-06,5.8535188145469874e-05
-2.357842640776653e-05,7.29633538867347e-05,2.0061097529833205e-05,-5.258829332888126e-06,5.7755700254347175e-05
-1.9052651623496786e-05,9.663950186222792e-05,1.6709404007997364e-05,-1.5603292240484734e-06,5.837808930664323e-05
-1.6370393495890312e-05,0.00011800924403360114,1.2329198398219887e-05,7.884746082709171e-07,5.910690742894076e-05
-1.3080457392788958e-05,0.00012535983114503324,7.638734132342506e-06,-6.339555369549998e-08,5.678434536093846e-05
-8.433560651610605e-06,0.00010285533790010959,3.918019956472563e-06,-1.7898651094583329e-06,5.008539665141143e-05
-2.6977672860084567e-06,5.799425707664341e-05,3.540979150784551e-06,-8.12788869097858e-07,4.625913061317988e-05
5.800757662655087e-06,1.7620812286622822e-05,5.495533969224198e-06,-1.960517920451821e-06,4.886809620074928e-05
1.332376450591255e-05,-3.035635472770082e-06,7.791591087880079e-06,-7.382458079518983e-06,5.359363058232702e-05
1.119116677728016e-05,-1.1822438864328433e-05,6.2200770116760395e-06,-1.4309061043604743e-05,5.399111250881106e-05
-4.653950327337952e-06,-2.1317449864000082e-05,4.935331503475027e-07,-1.9445011275820434e-05,5.199445513426326e-05
-2.7124149710289203e-05,-2.3539354515378363e-05,-4.1276430238212924e-06,-2.0131519704591483e-05,4.9484482588013634e-05
-4.3837051634909585e-05,-6.813927939219866e-06,-5.531515398615738e-06,-1.846904524427373e-05,5.027139559388161e-05
-4.891674325335771e-05,2.042523556156084e-05,-6.331544227577979e-06,-1.689937744231429e-05,5.35516046511475e-05
-4.557716238196008e-05,4.0378035919275135e-05,-3.5237248994235415e-06,-1.722198248899076e-05,5.544769737753086e-05
-4.3182219087611884e-05,5.293278081808239e-05,2.0155491498030642e-08,-1.9588213035603985e-05,5.58433384867385e-05
-4.695591269410215e-05,6.652843148913234e-05,-6.442467679335095e-07,-2.297481296409387e-05,5.46338596905116e-05
-5.471625627251342e-05,7.02755423844792e-05,-4.8426722969452385e-06,-2.8363156161503866e-05,5.319922638591379e-05
-5.5784945288905874e-05,3.8585669244639575e-05,-1.4502153135254048e-05,-3.296466820756905e-05,4.938096390105784e-05
-4.996688585379161e-05,2.2052631720725913e-06,-3.1063504138728604e-05,-3.1594521715305746e-05,4.564965274767019e-05
-4.287452975404449e-05,3.148638643324375e-05,-4.2893072532024235e-05,-2.808585668390151e-05,4.8146968765649945e-05
-3.086507422267459e-05,0.00011887897562701255,-4.222118514007889e-05,-2.0741825210279785e-05,5.430198143585585e-05
-2.1002890207455494e-05,0.00018231294234283268,-3.089407618972473e-05,-1.2711450835922733e-05,5.783266533399001e-05
-1.765396518749185e-05,0.00018780164828058332,-1.7591053619980812e-05,-8.590194738644641e-06,6.002683221595362e-05
-1.74716751644155e-05,0.0001412221317877993,-6.292156285780948e-06,-7.18321643944364e-06,6.032978490111418e-05
-1.3299179954628926e-05,7.892185385571793e-05,1.000634938463918e-06,2.53540497396898e-06,5.9442267229314893e-05
-5.4130136959429365e-06,5.0063023081747815e-05,-1.5203989960355102e-06,2.717229835980106e-05,6.089227463235147e-05
2.1961186575936154e-06,4.21558361267671e-05,-7.61337878429913e-06,4.670710040954873e-05,6.532613770104945e-05
-2.176655016228324e-06,2.542041147535201e-05,-9.722056347527541e-06,4.184852878097445e-05,6.975054566282779e-05
-2.399178447376471e-05,-1.9439205061644316e-05,-4.608983090292895e-06,2.7020398192689754e-05,7.000226469244808e-05
-4.7339861339423805e-05,-6.393228977685794e-05,6.997743184911087e-06,1.8820512195816264e-05,6.714330083923414e-05
-5.9497328038560227e-05,-6.350959301926196e-05,1.5691282897023484e-05,1.71352548932191e-05,6.501471216324717e-05
-5.6607135775266215e-05,-1.7877015125122853e-05,1.6023122952901758e-05,5.697813776350813e-06,6.789821782149374e-05
-4.863053618464619e-05,3.3599055313970894e-05,1.3967174709250685e-05,-2.256139305245597e-05,7.471458229701966e-05
-4.523000097833574e-05,7.740929868305102e-05,1.713579513307195e-05,-4.533619721769355e-05,7.737955456832424e-05
-4.648389949579723e-05,0.00011964439181610942,2.7864523872267455e-05,-4.661904677050188e-05,6.604103691643104e-05
-4.068470298079774e-05,0.00015442205767612904,3.6646924854721874e-05,-4.375848948257044e-05,4.5925218728370965e-05
-2.6560353944660164e-05,0.0001671979553066194,3.2622476282995194e-05,-6.058227154426277e-05,3.3827891456894577e-05
-9.725643394631334e-06,0.00016277017130050808,1.8859129340853542e-05,-8.722800703253597e-05,3.256546915508807e-05
1.4914078292349586e-06,0.0001679858542047441,5.740441338275559e-06,-8.997895201900974e-05,3.448517600190826e-05
2.2802521471021464e-06,0.00016561229131184518,-1.6642645732645178e-06,-5.804831744171679e-05,3.548166569089517e-05
4.752866061608074e-06,0.00010821537580341101,-6.262219812924741e-06,-2.0361469069030136e-05,3.695518898894079e-05
2.1956451746518724e-05,1.4985096640884876e-05,-1.3197475709603168e-05,-9.830764611251652e-06,4.099059515283443e-05
4.2463299905648455e-05,-4.709572021965869e-05,-2.320536077604629e-05,-3.3715386962285265e-05,4.9708691221894696e-05
4.242883005645126e-05,-5.7791825383901596e-05,-3.176591781084426e-05,-5.987304757582024e-05,6.257340282900259e-05
1.980131128220819e-05,-4.280366192688234e-05,-3.769798786379397e-05,-6.538954767165706e-05,7.282922888407484e-05
-1.237968808709411e-05,-2.680952638911549e-05,-4.272363366908394e-05,-5.5883429013192654e-05,7.664391887374222e-05
-4.518875357462093e-05,-7.2609791459399275e-06,-3.943911360693164e-05,-3.937866858905181e-05,7.956715126056224e-05
-6.702345126541331e-05,-6.820292810516548e-07,-2.813244100252632e-05,-1.9758170310524292e-05,8.333614096045494e-05
-7.262168219313025e-05,-2.2309528503683396e-05,-1.367315235256683e-05,2.8857364213763503e-06,8.214361878344789e-05
-6.435411341954023e-05,-5.226573921390809e-05,-3.139996920253907e-07,2.3715425413683988e-05,7.372567051788792e-05
-4.8218480515060946e-05,-6.803892028983682e-05,7.661263225600123e-06,3.936834036721848e-05,6.261240196181461e-05
-3.639209899120033e-05,-7.22347031114623e-05,1.4781124264118262e-05,5.062708441982977e-05,5.5710515880491585e-05
-3.4877448342740536e-05,-6.321149703580886e-05,2.1461682990775444e-05,5.270803376333788e-05,5.7517052482580766e-05
-3.441729859332554e-05,-4.302967863623053e-05,2.381721969868522e-05,4.7451154387090355e-05,6.084230335545726e-05
-2.5696561351651326e-05,-1.6307210898958147e-05,2.157919152523391e-05,3.8049158320063725e-05,6.197708717081696e-05
-2.1221030692686327e-05,4.915966201224364e-06,1.615868677617982e-05,2.537212276365608e-05,6.398938421625644e-05
-2.2944008378544822e-05,8.678399581185658e-07,8.404909749515355e-06,1.5450701539521106e-05,6.59255456412211e-05
-2.6254401745973155e-05,-2.8392036256263964e-05,9.692992080090335e-07,9.868019333225675e-06,6.50753136142157e-05
-2.9866225304431282e-05,-3.675564948935062e-05,-4.145732873439556e-06,3.3792755402828334e-06,6.091974501032382e-05
-3.632441075751558e-05,3.7086235806782497e-06,-6.639202183578163e-06,-3.4311231047468027e-06,5.880169555894099e-05
-3.951504186261445e-05,6.010164361214265e-05,-6.848845259810332e-06,-5.314272584655555e-06,6.257426866795868e-05
-3.170332274748944e-05,8.540178532712162e-05,-3.774788183363853e-06,-2.2704500679537887e-06,6.952987314434722e-05
-1.801658800104633e-05,7.015782466623932e-05,1.7380405097355833e-06,-1.352327672066167e-06,7.220004772534594e-05
-1.2377375242067501e-05,4.66358833364211e-05,8.572172191634309e-06,-5.182051609153859e-06,7.037760224193335e-05
-1.4860434021102265e-05,4.216999877826311e-05,1.2560901268443558e-05,-7.805270797689445e-06,6.5886095399037e-05
-1.3105156540405005e-05,6.29225978627801e-05,1.0745848157966975e-05,-7.491458745789714e-06,5.956651148153469e-05
-6.381592811521841e-06,8.226462523452938e-05,7.2330662987951655e-06,-5.546343345486093e-06,5.089986007078551e-05
-2.728151912378962e-06,6.157772440928966e-05,4.755330337502528e-06,-3.5433640732662752e-06,4.404498031362891e-05
-3.3476144380983897e-06,1.18943435154506e-05,2.7298690383759094e-06,-2.246477151857107e-06,4.508871279540472e-05
-3.0440078262472525e-06,-3.7557215364358854e-06,3.157074161208584e-06,-3.2165186780730437e-07,5.421799869509414e-05
-4.000422904937295e-06,4.687359705712879e-06,3.6679152799479198e-06,6.270914241213177e-07,6.321938417386264e-05
-8.997066288429778e-06,-8.977900506579317e-06,2.1882012788410066e-06,-2.548750899222796e-06,6.37391276541166e-05
-2.077098542940803e-05,-5.043782584834844e-05,3.6580179312295513e-06,-7.472022389265476e-06,5.822462844662368e-05
-3.799806654569693e-05,-8.924789290176705e-05,6.21628623775905e-06,-9.495580343354959e-06,5.2333609346533194e-05
-6.195162859512493e-05,-8.327647810801864e-05,9.962753210857045e-06,-9.02995543583529e-06,4.890639684163034e-05
-7.646255835425109e-05,-3.561508856364526e-05,1.0782306162582245e-05,-7.710110367042944e-06,4.7927322157192975e-05
-6.773175846319646e-05,1.0786749044200405e-05,1.0092548109241761e-05,-3.7163224533287575e-06,5.314563895808533e-05
-5.006933133699931e-05,4.6583179937442765e-05,1.2707416317425668e-05,-5.047564627602696e-06,6.006894909660332e-05
-3.851185101666488e-05,7.769528747303411e-05,1.924667776620481e-05,-1.2666648217418697e-05,6.147738167783245e-05
-3.7601497751893476e-05,8.455014904029667e-05,2.7519372451934032e-05,-1.8449014532961883e-05,6.087588917580433e-05
-3.808800829574466e-05,4.531178274191916e-05,2.744647099461872e-05,-1.9744675228139386e-05,6.12354269833304e-05
-3.0521783628501e-05,-4.017391984234564e-05,2.5462704797973856e-05,-2.0167470211163163e-05,6.060046871425584e-05
-2.1057478079455905e-05,-9.508812217973173e-05,2.9130751499906182e-05,-2.1817209926666692e-05,5.9600017266348004e-05
-2.0745601432281546e-05,-6.746772123733535e-05,3.26824992953334e-05,-2.1865611415705644e-05,6.060837404220365e-05
-3.13907403324265e-05,-1.3051768519289908e-06,2.9544786229962483e-05,-2.170355583075434e-05,6.182923971209675e-05
-4.316020567785017e-05,5.7270699471700937e-05,2.266772571601905e-05,-2.160185613320209e-05,6.0047725128242746e-05
-5.2349969337228686e-05,8.991931099444628e-05,1.9613191398093477e-05,-2.05840879061725e-05,5.516305463970639e-05
-6.198694609338418e-05,9.91729466477409e-05,2.0877989300061017e-05,-1.910109494929202e-05,5.233974661678076e-05
-6.94590198691003e-05,9.006899199448526e-05,2.3765005607856438e-05,-2.067218883894384e-05,5.4351850849343464e-05
-6.589977419935167e-05,7.029096741462126e-05,2.7064537789556198e-05,-2.5063032808247954e-05,5.821053855470382e-05
-5.102077193441801e-05,3.7255387724144384e-05,2.5088625989155844e-05,-3.144673246424645e-05,6.011928417137824e-05
-3.596776514314115e-05,-2.396825948380865e-06,1.7068898159777746e-05,-3.6848905438091606e-05,5.8767393056768924e-05
-2.2853226255392656e-05,-1.645396878302563e-05,1.1955592526646797e-05,-3.618869595811702e-05,5.856833013240248e-05
-4.085589807800716e-06,1.0228988685412332e-05,1.2473771676013712e-05,-3.032586391782388e-05,6.113202107371762e-05
1.693641024758108e-05,4.678275581682101e-05,1.3780856534140185e-05,-2.5195406124112196e-05,6.261456292122602e-05
2.7040421628043987e-05,6.167274113977328e-05,1.2678293387580197e-05,-2.2207714209798723e-05,6.248489808058366e-05
2.119047894666437e-05,5.760621206718497e-05,1.2063358553859871e-05,-1.413051359122619e-05,6.406506872735918e-05
1.0863322131626774e-05,4.9354799557477236e-05,1.378348588332301e-05,2.4579642285971204e-06,6.668323476333171e-05
6.737514013366308e-06,4.703419472207315e-05,1.540238554298412e-05,1.820108991523739e-05,6.649308488704264e-05
7.869343789934646e-06,4.6805365855107084e-05,1.4957553503336385e-05,2.764886085060425e-05,6.28320558462292e-05
6.652052434219513e-06,4.093790994375013e-05,1.242856069438858e-05,2.679401404748205e-05,6.179523188620806e-05
-3.9449560063076206e-06,3.4787895856425166e-05,1.5812256606295705e-05,1.729849464027211e-05,6.466006016125903e-05
-1.4262635886552744e-05,3.806510358117521e-05,1.8712478777160868e-05,6.661284260189859e-06,6.711714377161115e-05
-1.9971468645962887e-05,4.3177726183785126e-05,1.2277153473405633e-05,-4.409784651215887e-06,6.714397750329226e-05
-2.1875897800782695e-05,4.196677400614135e-05,4.267521489964565e-06,-8.331401659233961e-06,6.555124855367467e-05
-2.2886113583808765e-05,3.994179860455915e-05,-1.1961261634496623e-06,-7.739043212495744e-06,6.430068606277928e-05
-2.400282937742304e-05,4.2303185182390735e-05,-1.5178068224486196e-06,-9.871313523035496e-06,5.962291470495984e-05
-2.4976185159175657e-05,4.785348937730305e-05,-8.976302297014627e-07,-1.3415629837254528e-05,5.400548252509907e-05
-2.6561356207821518e-05,4.4710279325954616e-05,2.584346248113434e-06,-1.74364322447218e-05,5.20351022714749e-05
-2.854710692190565e-05,4.278437700122595e-06,7.187100436567562e-06,-2.605547706480138e-05,5.27139418409206e-05
-2.9376260499702767e-05,-5.372247687773779e-05,1.1064201316912659e-05,-2.8550246497616172e-05,5.4562988225370646e-05
-2.7524452889338136e-05,-7.649481995031238e-05,1.3029115507379174e-05,-1.967862954188604e-05,5.7620854931883514e-05
-3.3368312870152295e-05,-4.33394088759087e-05,1.3882465282222256e-05,-1.2509034604590852e-05,5.893018897040747e-05
-4.6406228648265824e-05,1.465802142774919e-05,1.4359880879055709e-05,-1.57206341100391e-05,5.7761066273087636e-05
-5.719553882954642e-05,5.750704076490365e-05,1.3409953680820763e-05,-2.350915383431129e-05,5.6759032304398715e-05
-5.8739060477819294e-05,7.324236503336579e-05,1.1619254109973554e-05,-2.681542537175119e-05,5.642488395096734e-05
-5.362788215279579e-05,7.074495806591585e-05,7.888251275289804e-06,-2.4589404347352684e-05,5.661864634021185e-05
-4.465057281777263e-05,6.070431481930427e-05,4.5211731958261225e-06,-2.0711830075015314e-05,5.7789537095231935e-05
-3.911413296009414e-05,5.621886521112174e-05,2.1746357106167125e-06,-2.132687222911045e-05,6.005381146678701e-05
-3.913106775144115e-05,6.86453640810214e-05,-5.584850555351295e-07,-2.4732800739002414e-05,6.40905782347545e-05
-3.7704434362240136e-05,8.77362399478443e-05,-5.715409770346014e-06,-2.605990994197782e-05,6.803872383898124e-05
-3.198927515768446e-05,9.324413986178115e-05,-9.994876563723665e-06,-2.5200160962413065e-05,6.667218985967338e-05
-2.3091699404176325e-05,8.295806037494913e-05,-1.1008154615410604e-05,-2.5727576939971186e-05,6.059982842998579e-05
-1.814919596654363e-05,6.748793384758756e-05,-9.476444574829657e-06,-2.5986086257034913e-05,5.57771090825554e-05
-2.1061259758425876e-05,5.001352110411972e-05,-8.092171810858417e-06,-2.384448998782318e-05,5.395452171796933e-05
-2.646756729518529e-05,4.195549990981817e-05,-4.6271338760561775e-06,-2.1197241949266754e-05,5.191604941501282e-05
-2.778657835733611e-05,5.420408342615701e-05,-1.4106681192060933e-06,-2.160450821975246e-05,5.02069597132504e-05
-2.7003650757251307e-05,7.168364390963688e-05,2.722579210967524e-07,-1.9824474293272942e-05,5.017345029045828e-05
-2.758210030151531e-05,7.777117571095005e-05,9.673888143879594e-07,-1.3137062524037901e-05,5.0791899411706254e-05
-3.142633431707509e-05,7.444011862389743e-05,1.0369160463596927e-06,-2.4149403543560766e-06,5.282209531287663e-05
-3.505761196720414e-05,5.928787504672073e-05,7.206981536000967e-07,3.7616262034134706e-06,5.586658517131582e-05
-3.372236096765846e-05,4.0441220335196704e-05,-1.1686067580285453e-07,-7.092962164279015e-07,5.476438673213124e-05
-2.7357929866411723e-05,2.2353768144967034e-05,-1.1381213198546902e-06,-7.590689619974e-06,5.350048013497144e-05
-2.279568070662208e-05,6.575572570000077e-06,-2.7789642444986384e-06,-1.0216616828984115e-05,5.7873287005349994e-05
-1.771426286722999e-05,-4.060007540829247e-06,-2.353036961721955e-06,-7.86294367571827e-06,6.485649646492675e-05
-7.384492619166849e-06,-3.892984295816859e-06,2.1533080030167184e-07,-3.3655828701739665e-06,6.585166556760669e-05
7.296693183889147e-06,8.047732080740388e-06,-6.174602731334744e-07,4.723897291114554e-06,6.0889233282068744e-05
1.6092424630187452e-05,2.3124468498281203e-05,-3.7131367207621224e-06,1.7100061086239293e-05,5.3700707212556154e-05
1.4932222256902605e-05,2.2306583559839055e-05,-5.3987064347893465e-06,2.591955490061082e-05,4.727873965748586e-05
1.12632624222897e-05,-2.8588983695954084e-06,-5.050970685260836e-06,2.4412373022641987e-05,4.587008515954949e-05
1.0110054063261487e-05,-2.557959123805631e-05,-3.996204668510472e-06,1.8040316717815585e-05,4.967642962583341e-05
1.368694120174041e-05,-9.21060927794315e-06,-7.015224127826514e-06,1.3044067600276321e-05,5.442780093289912e-05
1.1295646800135728e-05,3.8439138734247535e-05,-1.4855647350486834e-05,7.518538950535003e-06,5.2956733270548284e-05
-1.0307697266398463e-05,7.279974670382217e-05,-2.0417983250808902e-05,2.5559781988704344e-06,4.642965359380469e-05
-4.804159834748134e-05,7.46040532249026e-05,-1.7598329577594995e-05,-2.3991510715859476e-06,4.242041541147046e-05
-7.808334339642897e-05,6.012182348058559e-05,-9.588065040588845e-06,-1.3584000953414943e-05,4.517304842011072e-05
-7.836637814762071e-05,4.654473377740942e-05,-2.4667142497492023e-06,-2.8075239242753014e-05,5.329698251443915e-05
-5.914911889703944e-05,2.1078310965094715e-05,9.486602436936664e-08,-3.811340866377577e-05,6.261657836148515e-05
-4.701304351328872e-05,-1.717035411274992e-05,7.140562985341603e-08,-4.1435545426793396e-05,6.85081904521212e-05
-4.4841799535788596e-05,-2.0987481548218057e-05,1.0638309504429344e-06,-3.581036071409471e-05,7.10863241693005e-05
-3.969674071413465e-05,2.267372292408254e-05,2.8324357117526233e-06,-2.2954085579840466e-05,7.232795178424567e-05
-3.150798875140026e-05,5.8992089179810137e-05,4.985596660844749e-06,-1.1570339665922802e-05,7.370414823526517e-05
-2.9417447876767255e-05,6.936497084097937e-05,7.065077170409495e-06,-5.473058081406634e-06,7.308615749934688e-05
-2.5251578335883096e-05,6.670563743682578e-05,7.034358986857114e-06,9.02856129414431e-07,7.10141976014711e-05
-2.2003247067914344e-05,5.815465556224808e-05,1.111594701797003e-05,6.082494110160042e-06,7.099107460817322e-05
-2.6917943614535034e-05,7.083760283421725e-05,1.6309759303112514e-05,3.142328750982415e-06,6.901822052896023e-05
-2.7987845896859653e-05,0.00010515640315134078,1.6844967831275426e-05,-7.47901140130125e-07,6.748059968231246e-05
-2.7723508537746966e-05,0.00010073625890072435,1.9646719010779634e-05,-4.811665348825045e-06,6.943516928004101e-05
-2.9775352231808938e-05,2.9465058105415665e-05,2.0653094907174818e-05,-9.184916962112766e-06,6.789396138628945e-05
-3.154101432301104e-05,-4.54630826425273e-05,8.745959348743781e-06,-1.0493467016203795e-05,6.488337385235354e-05
-2.7035946914111264e-05,-5.610743392026052e-05,-5.95833444094751e-06,-1.1739854016923346e-05,6.163599027786404e-05
-1.1095295121776871e-05,-2.2446774892159738e-05,-1.2568434613058344e-05,-1.5036140212032478e-05,5.9283276641508564e-05
1.99318819227301e-07,-3.3400281154172262e-06,-1.1266533874731977e-05,-1.9235487343394198e-05,6.151379784569144e-05
-8.552667168260086e-06,-2.4333527107955888e-05,-6.64274011796806e-06,-2.3327535018324852e-05,6.676486373180524e-05
-3.286745413788594e-05,-5.50531767657958e-05,-3.7135528145881835e-06,-2.3828599296393804e-05,6.832213693996891e-05
-5.16629297635518e-05,-5.69297990296036e-05,1.2036210250698787e-07,-1.466133471694775e-05,6.28174384473823e-05
-4.599353633238934e-05,-4.1162875277223065e-05,5.623395736620296e-06,1.958212578756502e-06,5.6427805247949436e-05
-2.3875798433437012e-05,-2.9815782909281552e-05,8.94163895281963e-06,2.530269557610154e-05,5.551473441300914e-05
-8.880067071004305e-06,-1.0679053048079368e-05,7.235924385895487e-06,5.750688069383614e-05,6.0911599575774744e-05
-8.348578376171645e-06,2.3342978238360956e-05,2.3269431039807387e-06,9.2047564976383e-05,6.771378684788942e-05
-1.041836526383122e-06,5.207740832702257e-05,-3.404141580176656e-06,0.0001036590983858332,6.941369065316394e-05
2.38501434068894e-05,5.908108505536802e-05,-5.728606538468739e-06,6.007766933180392e-05,6.664940156042576e-05
4.998217264073901e-05,4.737909694085829e-05,-5.5569448704773095e-06,-4.333933975431137e-05,6.467514322139323e-05
5.824094114359468e-05,2.8511973141576163e-05,-1.010291998682078e-05,-0.00016281379794236273,6.751382898073643e-05
4.492127482080832e-05,1.2242618140589911e-05,-1.9613247786764987e-05,-0.00024712865706533194,7.25930294720456e-05
2.127772859239485e-05,7.767670467728749e-06,-2.4380458853556775e-05,-0.0002712288114707917,7.520097278757021e-05
6.958587164263008e-07,8.355020327144302e-06,-2.2798720237915404e-05,-0.00022675353102385998,7.473515870515257e-05
-1.2801458069588989e-05,-6.411746653611772e-06,-2.230136306025088e-05,-0.00013764025061391294,6.879059947095811e-05
-2.3342525309999473e-05,-3.58581637556199e-05,-2.3962273189681582e-05,-4.972398892277852e-05,6.296445644693449e-05
-3.554393697413616e-05,-4.76857676403597e-05,-1.708535273792222e-05,1.925516153278295e-05,6.634792225668207e-05
-4.8610927478875965e-05,-2.4266159016406164e-05,4.324286919654696e-07,6.552007107529789e-05,7.230786286527291e-05
-5.808585774502717e-05,2.0823386876145378e-05,1.959365363290999e-05,8.693422569194809e-05,6.706982821924612e-05
-7.252112118294463e-05,5.692949707736261e-05,3.68256114597898e-05,9.542164480080828e-05,5.557366966968402e-05
-8.306737436214462e-05,6.278748332988471e-05,4.717762931250036e-05,9.64479404501617e-05,4.6248525904957205e-05
-7.857200398575515e-05,5.707742093363777e-05,5.20569046784658e-05,9.622897050576285e-05,4.115229603485204e-05
-6.968092930037528e-05,5.56042832613457e-05,5.112590952194296e-05,9.849008347373456e-05,4.3319854739820585e-05
-6.608607509406283e-05,4.4708092900691554e-05,4.677925244322978e-05,9.03841937542893e-05,4.694591916631907e-05
-6.382971332641318e-05,3.6470322811510414e-05,4.3621570512186736e-05,6.897075945744291e-05,4.909628114546649e-05
-5.503524880623445e-05,5.281965422909707e-05,3.70553279935848e-05,4.363433981779963e-05,5.3426258091349155e-05
-5.0485588872106746e-05,7.42124902899377e-05,2.5741093850228935e-05,1.826638799684588e-05,5.585293911281042e-05
-5.54108337382786e-05,5.97416001255624e-05,1.545766463095788e-05,8.893036351764749e-07,5.3790470701642334e-05
-5.880233948118985e-05,2.0699329979834147e-05,8.576284017181024e-06,-4.944021384289954e-06,4.896687460131943e-05
-5.152271478436887e-05,1.4312444363895338e-05,4.777744379680371e-06,-2.0175539248157293e-06,4.625654764822684e-05
-3.427518458920531e-05,6.0620001022471115e-05,5.857748874404933e-06,1.396748984916485e-06,4.4119566155131906e-05
-1.03855363704497e-05,0.00010774746624520048,6.666044100711588e-06,2.5340014531138877e-07,4.0190127037931234e-05
4.674932824855205e-06,0.00011476829968160018,4.187247668596683e-06,-4.376470315037295e-06,3.733525954885408e-05
-4.051799464832584e-07,9.467921336181462e-05,-1.4171375823934795e-06,-6.0057927839807235e-06,3.771751653403044e-05
-9.022729500429705e-06,7.221212581498548e-05,-7.450446446455317e-06,-2.1508108147827443e-06,3.984725117334165e-05
4.032222022942733e-06,5.721770503441803e-05,-1.0997506251442246e-05,1.9356303937456687e-07,4.1442541260039434e-05
4.110177178517915e-05,5.834753028466366e-05,-1.0520701835048385e-05,-4.548055585473776e-06,4.393344352138229e-05
7.513327000197023e-05,7.154404011089355e-05,-8.884803719411138e-06,-1.4491929505311418e-05,5.035062713432126e-05
7.314142567338422e-05,6.75954797770828e-05,-7.918175469967537e-06,-2.0549176042550243e-05,5.74311452510301e-05
3.083046249230392e-05,3.492675023153424e-05,-6.768141702195862e-06,-2.5249679310945794e-05,5.779061029898003e-05
-1.6904601579881273e-05,3.656356284409412e-06,-8.4428938862402e-06,-3.8592876080656424e-05,5.597480776486918e-05
-4.5352491724770516e-05,6.668412879662355e-06,-1.1997871297353413e-05,-5.438391235657036e-05,5.982387301628478e-05
-6.02623367740307e-05,1.3386311366048176e-05,-1.1742636161216069e-05,-5.953174695605412e-05,6.669639697065577e-05
-6.791303894715384e-05,-2.169926665374078e-05,-1.2244744539202657e-05,-5.6019202020252123e-05,6.860904977656901e-05
-7.012292189756408e-05,-6.88166546751745e-05,-2.324891283933539e-05,-5.0355160055914894e-05,6.84895712765865e-05
-7.206282316474244e-05,-6.631337600992993e-05,-4.0551149140810594e-05,-4.286604234948754e-05,6.597534957109019e-05
-6.940220191609114e-05,-2.3692904505878687e-05,-5.350392166292295e-05,-3.0860319384373724e-05,6.014818063704297e-05
-5.809047070215456e-05,2.861970870071673e-06,-5.2851217333227396e-05,-1.9635537682916038e-05,5.747791874455288e-05
-4.0263978007715195e-05,1.4181220649334136e-05,-3.865501639666036e-05,-1.3902476894145366e-05,5.849547960679047e-05
-2.539755223551765e-05,3.953679697588086e-05,-1.7423832105123438e-05,-8.283830538857728e-06,5.8858782722381875e-05
-2.184200093324762e-05,6.896824925206602e-05,2.497762807252002e-06,-1.4842968312223093e-06,6.061354361008853e-05
-2.480465263943188e-05,7.908188854344189e-05,1.3934914932178799e-05,-1.455072379030753e-06,6.359907274600118e-05
-1.9967252228525467e-05,5.5270484153879806e-05,2.159482755814679e-05,-4.202397121844115e-06,6.585968367289752e-05
-9.49280547501985e-06,3.090400787186809e-05,2.564012902439572e-05,-1.6610695183771895e-06,6.828059122199193e-05
-1.3479284461936913e-05,2.6486575734452344e-05,2.014501478697639e-05,4.309319763251551e-07,6.593685247935355e-05
-3.393064980627969e-05,3.3939912100322545e-05,1.123393485613633e-05,-6.756507900718134e-06,5.935583612881601e-05
-5.903184865019284e-05,5.263759885565378e-05,5.428163603937719e-06,-1.937986417033244e-05,5.43130372534506e-05
-7.783864566590637e-05,8.778385381447151e-05,6.788815881009214e-06,-2.6693045583670028e-05,5.4253167036222294e-05
-8.720823097974062e-05,0.00012927882198709995,1.0246272722724825e-05,-2.1351497707655653e-05,5.509297261596657e-05
-8.604500180808827e-05,0.00013350525114219636,8.953984433901496e-06,-1.348331988992868e-05,5.290527769830078e-05
-7.444392394972965e-05,6.267158460104838e-05,5.20174035045784e-06,-1.5171312043094076e-05,4.797795190825127e-05
-5.566871914197691e-05,-3.4873271943069994e-05,3.3402502594981343e-06,-2.029451570706442e-05,4.25016951339785e-05
-3.840630597551353e-05,-6.0207541537238285e-05,2.440615162413451e-06,-1.784631604095921e-05,3.953848863602616e-05
-3.678250141092576e-05,-6.252120329008903e-06,-6.364097657751699e-07,-5.735319518862525e-06,3.9663569623371586e-05
-5.22733862453606e-05,3.8590824260609224e-05,-4.510074177233037e-06,1.716808219498489e-05,4.420835466589779e-05
-6.877204577904195e-05,2.247152769996319e-05,-7.667783393117134e-06,3.955722786486149e-05,5.026703729527071e-05
-7.496054604416713e-05,3.4877114103437634e-06,-9.609104381524958e-06,3.2869476854102686e-05,4.96554457640741e-05
-7.052267028484493e-05,2.2409873054130003e-05,-9.080800737137906e-06,-1.0043493148259586e-06,4.2714305891422555e-05
-5.434117338154465e-05,4.538402572507039e-05,-5.581036020885222e-06,-3.097311855526641e-05,4.25748476118315e-05
-3.484999615466222e-05,5.4887696023797616e-05,-3.6707242543343455e-06,-4.5965698518557474e-05,5.59855361643713e-05
-2.1416100935311988e-05,5.997385596856475e-05,-5.474950285133673e-06,-4.922549123875797e-05,7.564780389657244e-05
-5.143846010469133e-06,6.069089795346372e-05,-6.0392289924493525e-06,-3.866579572786577e-05,8.714666910236701e-05
1.5639983757864684e-05,6.707176362397149e-05,-3.238677663830458e-06,-2.795287946355529e-05,8.833507308736444e-05
2.4700140784261748e-05,0.00010006148659158498,1.1841257219202816e-06,-2.1418776668724604e-05,7.992057362571359e-05
2.6004794563050382e-05,0.00014541755081154406,8.456690920866095e-06,-1.753692231432069e-05,6.827330071246251e-05
3.751138137886301e-05,0.00015411991626024246,1.789456291589886e-05,-1.4049100172996987e-05,6.799073162255809e-05
5.405112824519165e-05,9.775259968591854e-05,2.2108139091869816e-05,-1.107715524995001e-05,7.113156607374549e-05
5.4805677791591734e-05,1.5237545085255988e-05,2.2641268515144475e-05,-9.822062565945089e-06,6.952363764867187e-05
2.2664855350740254e-05,-5.0967286369996145e-05,2.2044318029657006e-05,-3.074611356623791e-07,6.347396993078291e-05
-2.9568229365395382e-05,-9.683557436801493e-05,1.7200096408487298e-05,1.4356132851389702e-05,5.658592635882087e-05
-7.284703315235674e-05,-0.00010711513459682465,1.4889064914314076e-05,2.579357533250004e-05,5.2066701755393296e-05
-8.228294609580189e-05,-9.173096623271704e-05,1.6229267203016207e-05,2.8987869882257655e-05,4.813109990209341e-05
-5.94273442402482e-05,-7.533625466749072e-05,1.6634749044897035e-05,2.5889450625982136e-05,4.698616248788312e-05
-3.169279807480052e-05,-8.765142410993576e-05,1.1467435797385406e-05,2.0512447008513846e-05,4.993283801013604e-05
-8.930026524467394e-06,-0.00010653596837073565,8.15343992144335e-06,1.0550402294029482e-05,5.583408346865326e-05
8.68931965669617e-06,-7.993347389856353e-05,1.1984071534243412e-05,-1.0132120223715901e-05,6.20216887909919e-05
2.1323052351363003e-05,-9.861988473858219e-06,1.7806156392907724e-05,-3.4589604183565825e-05,6.685745029244572e-05
2.9629851269419305e-05,5.230228998698294e-05,2.065240914816968e-05,-4.5068361941957846e-05,7.044003723422065e-05
3.633597953012213e-05,7.617974188178778e-05,1.9869881725753658e-05,-3.8205020246095955e-05,7.475715392502025e-05
3.753885903279297e-05,7.722668669885024e-05,1.76439880306134e-05,-2.3128382963477634e-05,7.890328561188653e-05
2.650387614266947e-05,7.415204891003668e-05,1.5230578355840407e-05,-8.766590326558799e-06,7.556280615972355e-05
6.686403139610775e-06,7.214136712718755e-05,1.391215937474044e-05,-1.9014732970390469e-06,6.679433136014268e-05
-9.952182153938338e-06,6.339648825814947e-05,1.2883501767646521e-05,-4.963240826327819e-06,5.844739280291833e-05
-2.0882631361018866e-05,4.998491931473836e-05,1.2654315469262656e-05,-9.93523917713901e-06,5.208213769947179e-05
-2.858982770703733e-05,4.081390216015279e-05,1.2962900655111298e-05,-1.1051422006858047e-05,5.152908488526009e-05
-3.765822111745365e-05,4.717999399872497e-05,1.2888503988506272e-05,-8.49170010042144e-06,5.878684896742925e-05
-5.7459201343590394e-05,7.007099338807166e-05,1.1168255696247797e-05,-1.7869795101432828e-06,6.705636042170227e-05
-7.833394920453429e-05,0.00010787577775772661,1.1290622751403134e-05,8.102893843897618e-06,7.028047548374161e-05
-8.44828609842807e-05,0.00014189757348503917,1.4387371265911497e-05,1.322392654401483e-05,6.752056651748717e-05
-7.470950367860496e-05,0.0001514471514383331,2.227608820248861e-05,1.360509850201197e-05,6.370223854901269e-05
-5.355603207135573e-05,0.0001254253729712218,3.195530007360503e-05,1.2173636605439242e-05,5.896085349377245e-05
-3.014203321072273e-05,6.740349635947496e-05,3.25297296512872e-05,2.821454927470768e-06,5.650695675285533e-05
-8.705023901711684e-06,-1.0474301234353334e-05,2.2868143787491135e-05,-6.4453442973899655e-06,5.72974604438059e-05
3.030050720553845e-06,-7.585290586575866e-05,1.3840431165590417e-05,3.941481281799497e-06,5.681376569555141e-05
-2.803782990667969e-06,-0.00010651912452885881,9.243478416465223e-06,1.5861476640566252e-05,5.4867108701728284e-05
-9.773168130777776e-06,-0.00013182088150642812,5.687380507879425e-06,3.1518193281954154e-06,4.922869266010821e-05
-9.09764912648825e-06,-0.00012379905092529953,2.0857196432189085e-06,-2.08241672225995e-05,4.646285742637701e-05
-7.601438937854255e-06,-4.410262408782728e-05,-7.978991334312013e-07,-4.2308223783038557e-05,4.718378477264196e-05
-1.3382927136262879e-05,4.524170435615815e-05,-2.1361738617997617e-06,-6.334793579299003e-05,5.307461469783448e-05
-2.2158854335430078e-05,8.311997953569517e-05,-2.5286749405495357e-06,-8.684520435053855e-05,5.6958102504722774e-05
-2.0568351828842424e-05,8.313235593959689e-05,2.539176421123557e-06,-8.171911758836359e-05,5.917555608903058e-05
-9.119748028751928e-06,8.94204422365874e-05,1.2223967132740654e-05,-3.6848156014457345e-05,6.153041613288224e-05
-9.388166290591471e-06,9.24635460251011e-05,1.7684289559838362e-05,1.0143055078515317e-05,6.142759957583621e-05
-2.5397925128345378e-05,7.129018194973469e-05,1.7954882423509844e-05,2.925416083598975e-05,5.720423723687418e-05
-4.331835589255206e-05,2.141709228453692e-05,1.745637200656347e-05,2.418258554826025e-05,4.8875041102292016e-05
-5.258338205749169e-05,-5.199204679229297e-05,1.7804080925998278e-05,1.3784710063191596e-05,4.022479333798401e-05
-5.41831977898255e-05,-0.00010827506048372015,1.4635941624874249e-05,5.998698725306895e-06,3.409643977647647e-05
-5.031915497966111e-05,-9.995099389925599e-05,1.0134909643966239e-05,2.5221429496014025e-06,3.211884177289903e-05
-3.6734549212269485e-05,-5.005729690310545e-05,1.0152130016649608e-05,1.6837340126585332e-06,3.4483378840377554e-05
-1.563326077302918e-05,-9.44462590268813e-06,1.4440465747611597e-05,9.684055157777038e-07,4.173260094830766e-05
4.734403944439691e-07,2.730620326474309e-05,1.8608141544973478e-05,-6.507913894893136e-06,4.830536272493191e-05
6.2509543568012305e-06,5.566742765950039e-05,1.6292713553411886e-05,-2.6413823434268124e-05,5.754991070716642e-05
5.112573035148671e-06,3.4638225770322606e-05,7.737032319710124e-06,-5.1141323638148606e-05,7.0334026531782e-05
-5.457186489365995e-06,-2.0418856365722604e-05,1.125083826991613e-06,-5.681030233972706e-05,8.370432624360546e-05
-2.0990866687498055e-05,-2.996753028128296e-05,2.2948113382881274e-06,-3.9902319258544594e-05,8.984807209344581e-05
-3.823178121820092e-05,1.584633173479233e-05,5.714928647648776e-06,-2.6348010578658432e-05,8.945518493419513e-05
-5.295821028994396e-05,6.563161878148094e-05,6.958194262551842e-06,-2.9470071240211837e-05,8.54091631481424e-05
-6.990723341004923e-05,0.00010277408000547439,7.691711289226077e-06,-3.429501157370396e-05,7.706555334152654e-05
-8.502512355335057e-05,0.00013537394988816231,8.308820724778343e-06,-2.7005275114788674e-05,7.187333540059626e-05
-8.254504064098e-05,0.00016201539256144315,9.758899977896363e-06,-1.739339677442331e-05,6.585282972082496e-05
-7.173918129410595e-05,0.00017864756227936596,1.0476016541360877e-05,-1.936636726895813e-05,5.913941276958212e-05
-6.852993101347238e-05,0.0001956092455657199,1.0304383067705203e-05,-2.9789523978251964e-05,5.9478366893017665e-05
-7.0465866883751e-05,0.00020363213843666017,1.2369952855806332e-05,-4.272454316378571e-05,5.928990140091628e-05
-7.488320261472836e-05,0.0001817664160626009,1.3877111086912919e-05,-6.0707676311722025e-05,5.727164898416959e-05
-7.75760636315681e-05,0.00015428966435138136,1.5559546227450483e-05,-7.629188621649519e-05,5.5801319831516594e-05
-7.075515168253332e-05,0.00013260674313642085,1.7806254618335515e-05,-7.658488902961835e-05,5.706111915060319e-05
-5.128715201863088e-05,0.00010652413038769737,1.5371868357760832e-05,-6.664815737167373e-05,5.580092692980543e-05
-2.5895053113345057e-05,4.80352173326537e-05,7.327310868276982e-06,-5.943317955825478e-05,5.049994433647953e-05
1.5212031030387152e-06,-3.097622175118886e-05,-8.25870927201322e-07,-5.4058713431004435e-05,4.332463868195191e-05
2.4369741367991082e-05,-0.00011810011346824467,-3.7161125874263234e-06,-3.646854020189494e-05,4.037968392367475e-05
3.4430900996085256e-05,-0.0002016093349084258,-3.1975616821000585e-06,-6.039590061845956e-06,4.2071304051205516e-05
2.7992513423669152e-05,-0.0002151292865164578,-3.4483198305679252e-06,3.1239240342983976e-05,4.402910781209357e-05
5.284301551000681e-06,-0.00013968677376396954,-2.9798784453305416e-06,7.297276169992983e-05,4.821233596885577e-05
-2.238470369775314e-05,-4.086433909833431e-05,7.857289574531023e-07,0.00010126351116923615,5.405304909800179e-05
-3.7289337342372164e-05,2.141844561265316e-05,6.164656042528804e-06,9.502498141955584e-05,5.655142740579322e-05
-3.060902963625267e-05,5.31429068360012e-05,8.623756002634764e-06,6.688617577310652e-05,5.479476021719165e-05
-1.459967370465165e-05,7.199009996838868e-05,7.84458916314179e-06,4.485299359657802e-05,5.887758743483573e-05
-1.5302766769309528e-05,9.03653708519414e-05,9.030851288116537e-06,3.3567481295904145e-05,7.030484994174913e-05
-3.7390858778962865e-05,0.00010305978503311053,1.4024598385731224e-05,2.773709456960205e-05,8.156043622875586e-05
-4.925428220303729e-05,9.071100794244558e-05,1.4909012861608062e-05,1.85693188541336e-05,8.78715145518072e-05
-4.301193621358834e-05,4.5206888898974285e-05,8.346487447852269e-06,6.498748007288668e-06,8.84992114151828e-05
-2.771792969724629e-05,7.0847372626303695e-06,2.487120411842625e-07,-1.5316243207053049e-06,8.24577291496098e-05
-9.36963169806404e-06,8.48816284815257e-07,-6.638362037847401e-07,-5.075188255432295e-06,8.067899034358561e-05
2.436630211377633e-06,-7.283851118700113e-06,2.4346679765585577e-06,-9.692161256680265e-06,8.390203583985567e-05
4.658522811951116e-06,-4.904722663923167e-05,5.615414693238563e-07,-1.731955308059696e-05,8.427762804785743e-05
1.913618461912847e-06,-9.451686491956934e-05,-2.0742731976497453e-06,-2.1524449039134197e-05,7.809888484189287e-05
4.490002993406961e-06,-9.462084562983364e-05,-2.7458170279714977e-06,-2.5635657948441803e-05,6.872211815789342e-05
7.898240255599376e-06,-6.976213626330718e-05,-1.8503417322790483e-06,-2.616807796584908e-05,6.092694093240425e-05
4.955797066941159e-06,-6.145787483546883e-05,-2.3711063477094285e-06,-1.6504280210938305e-05,5.565084211411886e-05
-3.7417862586153205e-07,-5.656806024489924e-05,-3.7456034078786615e-06,-6.617086000915151e-06,5.059759860159829e-05
-4.754392648465e-06,-1.8997114239027724e-05,-5.133783815836068e-06,-4.1749658521439414e-06,4.473426815820858e-05
-2.297500259373919e-06,4.5298842451302335e-05,-6.2518552113033365e-06,-7.503876986447722e-06,4.00055869249627e-05
1.0249951628793497e-05,0.00010045220551546663,-8.5332831076812e-06,-1.0793336514325347e-05,3.877011840813793e-05
2.5906885639415123e-05,0.00012947186769451946,-1.5458017514902167e-05,-8.900975444703363e-06,3.896314956364222e-05
3.5410645068623126e-05,0.00014436736819334328,-2.250941179227084e-05,-1.8255881286677322e-06,4.291957156965509e-05
3.7325826269807294e-05,0.00016789589426480234,-2.215777203673497e-05,4.957767032465199e-06,5.158794374438003e-05
2.7714468160411343e-05,0.00020574322843458503,-1.518860153737478e-05,8.872620128386188e-06,5.737643368775025e-05
4.466082373255631e-06,0.00022752609220333397,-8.014785635168664e-06,8.714174327906221e-06,5.333079388947226e-05
-2.741504431469366e-05,0.00019999942742288113,-2.6374020762887085e-06,3.7615805013047066e-06,4.100632213521749e-05
-5.9952897572657093e-05,0.00012808408064302057,-9.806487923924578e-07,-1.667366177571239e-06,2.9569451726274565e-05
-8.385221735807136e-05,5.770175630459562e-05,-2.103586894008913e-06,-1.8953321614390006e-06,2.4669319827808067e-05
-8.964878361439332e-05,2.436690920148976e-05,-4.822249593416927e-06,2.597074626464746e-06,2.5312081561423838e-05
-7.786126661812887e-05,1.407645959261572e-05,-8.406002962146886e-06,1.2710827832052018e-05,3.0107423299341463e-05
-5.902920747757889e-05,-1.7395843315171078e-05,-1.0782706340251025e-05,2.8714839572785422e-05,3.566602390492335e-05
-4.4000746129313484e-05,-9.802506247069687e-05,-8.524458280589897e-06,3.2388696126872674e-05,3.4625503758434206e-05
-3.8284302718238905e-05,-0.0001773633703123778,-4.532369075604947e-06,-8.044071364565752e-07,3.156761158606969e-05
-3.852706140605733e-05,-0.00017612756346352398,-3.4270415198989213e-06,-5.9997153584845364e-05,3.693362668855116e-05
-4.3154486775165424e-05,-0.00010543475218582898,1.056840005730919e-06,-0.00010129839938599616,5.449374657473527e-05
-5.3857467719353735e-05,-3.114654100500047e-05,8.333748155564535e-06,-9.173505532089621e-05,7.439633191097528e-05
-6.249063153518364e-05,4.933106538373977e-06,1.1045954124710988e-05,-5.022324694436975e-05,8.549091580789536e-05
-6.489195220638067e-05,5.432308171293698e-06,1.1097716196672991e-05,-2.3643680833629332e-05,8.788081322563812e-05
-6.101639155531302e-05,-7.118539997463813e-06,5.613237135548843e-06,-2.3855507606640458e-05,8.57186532812193e-05
-4.9630572902970016e-05,-1.3347595995583106e-05,-5.045051238994347e-07,-3.2308838854078203e-05,7.631353219039738e-05
-4.049100243719295e-05,1.8131306205759756e-05,-2.212182835137355e-06,-3.205068423994817e-05,6.550131365656853e-05
-3.330230538267642e-05,7.113422179827467e-05,-2.9362788609432755e-06,-2.5865694624371827e-05,6.322117405943573e-05
-1.4380336324393284e-05,0.00010653065692167729,2.1184185072797845e-07,-2.0713170670205727e-05,6.90923334332183e-05
1.0301414476998616e-05,0.00012643495574593544,7.696823558944743e-06,-1.55060497490922e-05,7.590404857182875e-05
1.9910996343242005e-05,0.00012606629752554,1.7222446331288666e-05,-7.153869773901533e-06,7.882217323640361e-05
1.852133391366806e-05,0.00010197282244917005,2.1426503735710867e-05,1.0462675845701597e-06,7.537008059443906e-05
1.2742024409817532e-05,7.378125883406028e-05,2.0341045456007123e-05,7.491525138902944e-06,6.742491677869111e-05
6.990875135670649e-06,5.844263068865985e-05,1.786389657354448e-05,1.4849750186840538e-05,5.995881656417623e-05
6.141217454569414e-06,3.877004564856179e-05,1.8589153114589863e-05,2.9116117730154656e-05,5.604435864370316e-05
-1.1030784889953793e-06,2.2139101929496974e-06,2.1905665562371723e-05,4.7452969738515094e-05,5.340936331776902e-05
-2.2200867533683777e-05,-3.559025935828686e-05,2.3829623387428e-05,5.443397458293475e-05,4.838503082282841e-05
-3.8584083085879683e-05,-7.26204743841663e-05,2.4001114070415497e-05,4.5285458327271044e-05,4.657277531805448e-05
-4.149101732764393e-05,-9.989590762415901e-05,2.427848448860459e-05,2.949249574157875e-05,4.793618791154586e-05
-4.283856105757877e-05,-8.594921382609755e-05,2.3773074644850567e-05,1.101928955904441e-05,4.806379365618341e-05
-4.565618291962892e-05,-2.376881275267806e-05,2.2036580048734322e-05,-1.2090249583707191e-05,4.889058618573472e-05
-4.642005296773277e-05,4.812084080185741e-05,2.0664543626480736e-05,-3.10344148601871e-05,5.1912717026425526e-05
-4.227429235470481e-05,9.077778668142855e-05,1.786990287655499e-05,-4.143765909248032e-05,5.4964904848020524e-05
-3.0000726837897673e-05,9.780482650967315e-05,1.3046261301496997e-05,-5.142476948094554e-05,5.729455369873904e-05
-1.309293475060258e-05,8.893749327398837e-05,9.28497775021242e-06,-6.832395592937246e-05,6.23546147835441e-05
-2.195252591263852e-06,8.584663737565279e-05,7.371337233053055e-06,-8.396194607485086e-05,7.109963917173445e-05
-5.740934739151271e-06,9.263549873139709e-05,5.0163307605544105e-06,-8.251301187556237e-05,7.937852933537215e-05
-2.0930539903929457e-05,8.704682841198519e-05,4.272209480404854e-06,-6.298962398432195e-05,7.987581921042874e-05
-3.564584767445922e-05,6.686285632895306e-05,3.924983047909336e-06,-4.3088999518658966e-05,7.347563951043412e-05
-4.7883153456496075e-05,7.52838677726686e-05,5.52368283024407e-06,-3.1605279218638316e-05,6.714527262374759e-05
-4.529908619588241e-05,9.973873966373503e-05,1.1163016097270884e-05,-2.371653499722015e-05,6.340316031128168e-05
-3.3092612284235656e-05,7.624390855198726e-05,1.7993761503021233e-05,-1.9246095689595677e-05,6.749311432940885e-05
-4.3718053348129615e-05,-3.3129556413769023e-06,1.6096268154797144e-05,-1.8485545297153294e-05,7.534712494816631e-05
-6.884595495648682e-05,-6.538102752529085e-05,7.748757525405381e-06,-1.1823805834865198e-05,7.769115472910926e-05
-7.824298518244177e-05,-6.625161768170074e-05,6.188176030264003e-06,1.0450745321577415e-05,7.733509119134396e-05
-8.333862206200138e-05,-4.491384606808424e-05,1.049631191563094e-05,3.6527260817820206e-05,7.477808685507625e-05
-8.807370613794774e-05,-3.537081283866428e-05,1.5058834833325818e-05,5.209024311625399e-05,7.02489196555689e-05
-7.362711039604619e-05,-3.539456156431697e-05,1.397973574057687e-05,5.1475715736160055e-05,6.91203458700329e-05
-4.852586062042974e-05,-2.4509163267794065e-05,9.265179869544227e-06,3.0685216188430786e-05,6.724008562741801e-05
-2.752549153228756e-05,-3.072037770834868e-06,5.485541350935819e-06,3.0451512884610565e-06,6.053959805285558e-05
-5.1953402362414636e-06,1.1615896255534608e-05,4.318003163916728e-07,-1.8558574083726853e-05,4.987907595932484e-05
2.563652378739789e-05,4.20384139943053e-06,-5.705759122065501e-06,-3.656646003946662e-05,4.448221079655923e-05
5.338777555152774e-05,-4.89293597638607e-06,-8.14301529317163e-06,-5.150182914803736e-05,4.746204649563879e-05
6.157963071018457e-05,5.281988705974072e-06,-5.694515948562184e-06,-5.0699531129794195e-05,5.356654946808703e-05
4.665746382670477e-05,2.674429015314672e-05,-3.495671762721031e-06,-2.9553073545685038e-05,5.840983067173511e-05
1.639757101656869e-05,3.9717459003441036e-05,-3.0597418572142487e-06,-1.2791973858838901e-05,5.828077337355353e-05
-1.6510282875970006e-05,4.222217830829322e-05,-4.470595740713179e-06,-2.3512737243436277e-05,5.439946471597068e-05
-3.859861317323521e-05,5.02234288433101e-05,-4.481524229049683e-06,-4.704254388343543e-05,5.451835022540763e-05
-4.6372464566957206e-05,7.115817425074056e-05,-5.968572622805368e-07,-5.9454912843648344e-05,6.32738956483081e-05
-4.855388033320196e-05,0.00010356707934988663,4.504959179030266e-06,-5.962137947790325e-05,7.506818656111136e-05
-5.5984561186050996e-05,0.0001379185850964859,7.079868282744428e-06,-5.114356099511497e-05,8.200004958780482e-05
-7.074676250340417e-05,0.00016341899754479527,7.626694696227787e-06,-3.5657612897921354e-05,8.347971015609801e-05
-7.829420792404562e-05,0.000162767872097902,8.180657459888607e-06,-2.048500391538255e-05,7.699362322455272e-05
-7.321478915400803e-05,0.0001298701681662351,7.736533916613553e-06,-9.507121831120458e-06,5.946976307313889e-05
-7.418706081807613e-05,6.555767322424799e-05,6.5496951719978824e-06,-1.304066609009169e-05,4.405135405249894e-05
-8.34129677969031e-05,-1.1230812560825143e-05,3.093939994869288e-06,-3.2175754313357174e-05,3.67264001397416e-05
-9.006062464322895e-05,-4.3160627683391795e-05,-3.4953923204739112e-06,-5.83031760470476e-05,3.582477438612841e-05
-8.83238171809353e-05,-1.5997829905245453e-05,-7.924782039481215e-06,-8.687029185239226e-05,3.6002522392664105e-05
-7.840641774237156e-05,3.24670945701655e-05,-6.151501111162361e-06,-9.960964962374419e-05,3.5847522667609155e-05
-6.962193583603948e-05,6.620057683903724e-05,-2.849981910912902e-06,-8.179876022040844e-05,3.681231100927107e-05
-6.659690552623942e-05,5.367070480133407e-05,1.342306404694682e-06,-4.374053969513625e-05,4.4429380068322644e-05
-6.116798613220453e-05,2.26368701987667e-05,6.9059001361893024e-06,-6.91230866323167e-07,5.439110827865079e-05
-4.5265867811394855e-05,4.771511521539651e-05,1.1504652320581954e-05,5.108054028823972e-05,5.9008241805713624e-05
-2.9242413802421652e-05,0.00011762259237002581,1.6104613678180613e-05,0.00011547873145900667,6.31676593911834e-05
-9.55610812525265e-06,0.00015768139564897865,1.9877286831615493e-05,0.00018731947056949139,6.642538210144266e-05
2.365970976825338e-05,0.00016824713384266943,2.5151435693260282e-05,0.00023231504019349813,6.506631325464696e-05
5.3594303608406335e-05,0.0001424607471562922,2.9808366889483295e-05,0.00022152259771246463,6.06954017712269e-05
6.855873652966693e-05,8.916647493606433e-05,3.313312845421024e-05,0.00016807584324851632,5.606182821793482e-05
7.803084008628502e-05,4.032947254017927e-05,3.416169420233928e-05,0.00010413923882879317,4.624127905117348e-05
9.247056004824117e-05,1.6742445950512774e-05,2.7983212930848822e-05,2.8299376936047338e-05,3.950505924876779e-05
0.00010849329555639997,5.089701971883187e-06,1.499230074841762e-05,-6.551348633365706e-05,4.408990207593888e-05
0.00011181552690686658,-1.907872865558602e-05,-1.4231077329895925e-06,-0.0001369006495224312,5.238276207819581e-05
7.870770059525967e-05,-7.418431050609797e-05,-1.9490400518407114e-05,-0.00014824903337284923,5.055053406977095e-05
1.3785572264168877e-05,-0.00016781176964286715,-3.553208807716146e-05,-0.00011139983689645305,3.782018757192418e-05
-3.143137655570172e-05,-0.00023656508710701019,-3.928967271349393e-05,-5.995253741275519e-05,2.8126658435212448e-05
-2.5543768060742877e-05,-0.00020878054783679545,-3.056871719309129e-05,-8.80852257978404e-06,3.645224205683917e-05
5.528665042220382e-06,-0.0001117949141189456,-1.6640664398437366e-05,2.872775075957179e-05,6.21294675511308e-05
1.80536626430694e-05,-2.4821230908855796e-05,-4.4296606915850134e-07,3.35731529048644e-05,8.016620995476842e-05
2.0685802155639976e-06,4.2442061385372654e-05,1.959802466444671e-05,7.481163265765645e-06,7.591808389406651e-05
-2.2152804376673885e-05,8.701467595528811e-05,3.950333484681323e-05,-1.994449667108711e-05,6.911419040989131e-05
-4.8276175220962614e-05,9.129122918238863e-05,5.020273238187656e-05,-3.3452561183366925e-05,7.584461127407849e-05
-8.030416211113334e-05,6.543852214235812e-05,4.5196993596618995e-05,-3.972221747972071e-05,8.681514736963436e-05
-9.784327994566411e-05,4.4362928747432306e-05,3.328288585180417e-05,-4.69392143713776e-05,9.282063547288999e-05
-9.27254295675084e-05,3.407385156606324e-05,2.4241238861577585e-05,-5.274617433315143e-05,8.956962847150862e-05
-8.010791498236358e-05,4.0001938032219186e-05,2.09911977435695e-05,-5.141130168340169e-05,8.064147550612688e-05
-6.809653132222593e-05,5.272371708997525e-05,2.472796586516779e-05,-3.917761205229908e-05,7.03595214872621e-05
-6.030108852428384e-05,5.8355970395496115e-05,2.77711314993212e-05,-2.5252686100429855e-05,6.211496656760573e-05
-5.392293678596616e-05,6.712803588015959e-05,2.65156904788455e-05,-1.1990420716756489e-05,6.008259879308753e-05
-4.943147723679431e-05,6.72910173307173e-05,2.32167021749774e-05,8.507253141942783e-07,6.198281334945932e-05
-4.510154030867852e-05,4.648309186450206e-05,1.9351102309883572e-05,9.5656241683173e-06,6.428021151805297e-05
-4.183216151432134e-05,2.1825202566105872e-05,1.9235149011365138e-05,1.2925675946462434e-05,6.698324432363734e-05
-4.133205220568925e-05,-3.907151040039025e-06,2.183136166422628e-05,7.113689207471907e-06,6.728749576723203e-05
-3.316707443445921e-05,-3.432513403822668e-05,2.0120891349506564e-05,-7.811203772689623e-08,6.449163629440591e-05
1.893566405897218e-07,-6.862419832032174e-05,1.660806083236821e-05,-8.130748483381467e-07,6.200689676916227e-05
5.0827788072638214e-05,-7.426831143675372e-05,1.4481159269053023e-05,4.125537543586688e-06,6.121087062638253e-05
8.210423402488232e-05,-3.573901631170884e-05,1.1542578249645885e-05,8.635030098957941e-06,6.168654363136739e-05
6.980470061535016e-05,-6.051107561688696e-07,7.80989012127975e-06,6.2897133830119856e-06,6.1038852436468e-05
2.3968583263922483e-05,1.4441690836974885e-05,4.60176261185552e-06,-3.904603090632008e-06,5.837023854837753e-05
-2.1019599444116466e-05,2.986819345096592e-05,3.0123239866952645e-06,-1.7807255062507465e-05,5.2460785809671506e-05
-5.081689960206859e-05,4.478280243347399e-05,4.687748059950536e-06,-2.4676530301803723e-05,4.406146035762504e-05
-7.50362451071851e-05,4.579352025757544e-05,6.9788966357009485e-06,-1.2537162547232583e-05,3.7478734157048166e-05
-9.364706056658179e-05,4.717339834314771e-05,4.421118774189381e-06,1.4907225704519078e-05,3.717258368851617e-05
-9.808749018702656e-05,6.537939771078527e-05,-3.1072047477209708e-06,4.346234709373675e-05,4.153506233706139e-05
-0.0001008072285912931,9.561060869600624e-05,-9.35047683015e-06,6.00324674451258e-05,4.673582225223072e-05
-0.00011233011173317209,0.00012074917322024703,-1.1835087207145989e-05,4.328469367465004e-05,4.968749635736458e-05
-0.00012579864414874464,0.00013851186668034643,-1.5785846699145623e-05,-7.916344657132868e-06,5.089750629849732e-05
-0.00013214914361014962,0.00015131219697650522,-2.1335368728614412e-05,-5.690037869499065e-05,5.450075332191773e-05
-0.00011493323108879849,0.00013706008030567318,-2.4400465918006375e-05,-8.727790554985404e-05,6.790631596231833e-05
-6.213637971086428e-05,7.639081741217524e-05,-2.4304463295266032e-05,-0.00010346533235860988,9.070297528523952e-05
7.341068794630701e-06,2.102511189150391e-06,-1.9359746147529222e-05,-0.00010025192750617862,0.00010859862231882289
5.9856363805010915e-05,-2.4666724129929207e-05,-1.0317357919120695e-05,-7.148169970605522e-05,0.00011239681771257892
7.08883599145338e-05,2.8650609237956814e-05,1.05407161754556e-06,-2.911278534156736e-05,0.00010284560266882181
4.304065805627033e-05,0.00013226628652773798,1.1447861652413849e-05,7.65939421398798e-06,8.209036604966968e-05
1.2706720553978812e-05,0.00018386893498245627,2.009178751904983e-05,3.1198349461192265e-05,6.144618237158284e-05
-5.698406312149018e-06,0.00013831972319167107,2.7564132324187085e-05,4.5818742364645004e-05,5.2929848607163876e-05
-8.29746659292141e-06,4.466335667530075e-05,2.8560676582856104e-05,5.183096800465137e-05,5.082869029138237e-05
1.292650540563045e-05,-3.7521880585700274e-05,2.0837178453803062e-05,3.905377161572687e-05,4.973163959220983e-05
3.8346297515090555e-05,-6.450725777540356e-05,8.521044037479442e-06,9.940923519025091e-06,4.876326784142293e-05
5.043660712544806e-05,-5.9043079090770334e-05,-2.8243628094060114e-06,-1.3573353498941287e-05,4.737301424029283e-05
5.274250725051388e-05,-4.865385562879965e-05,-8.03281545813661e-06,-2.377250712015666e-05,4.651702693081461e-05
5.129056444275193e-05,-4.545710908132605e-05,-5.598029929387849e-06,-3.169888077536598e-05,5.161916124052368e-05
3.644187017926015e-05,-3.301734250271693e-05,2.5692124836496077e-06,-3.772843410843052e-05,6.264958210522309e-05
-9.563956155034248e-06,-1.016391433950048e-05,1.0548628779361024e-05,-4.0219685615738854e-05,7.233168435050175e-05
-8.145587344188243e-05,7.86565760790836e-06,1.2183196304249577e-05,-3.801963248406537e-05,7.163457485148683e-05
-0.0001345358759863302,1.0959306564473081e-05,8.405267180933151e-06,-3.285698767285794e-05,6.0022204706911e-05
-0.0001328720827586949,2.225826210633386e-05,4.251653081155382e-06,-2.6133260689675808e-05,4.7735960833961144e-05
-9.234769095201045e-05,7.771040691295639e-05,5.189862804400036e-06,-2.045534893113654e-05,4.372973489807919e-05
-5.6611788750160486e-05,0.00014545863086823374,9.287035936722532e-06,-1.9533832528395578e-05,4.7208079195115715e-05
-4.747304046759382e-05,0.0001698666310403496,1.099309156415984e-05,-2.0089702957193367e-05,5.1525588787626475e-05
-5.1840353989973664e-05,0.00014567757898475975,8.787917977315374e-06,-1.4635087609349284e-05,5.700035399058834e-05
-5.183017856325023e-05,0.00011476370855234563,7.934143468446564e-06,-3.992954134446336e-06,6.437232514144853e-05
-4.881075074081309e-05,8.690026879776269e-05,9.507273716735654e-06,4.053682403082348e-07,6.807594036217779e-05
-5.697871165466495e-05,4.801491741091013e-05,1.2725819033221342e-05,-3.379594318175805e-06,6.624091474805027e-05
-7.10099920979701e-05,-6.299543656496098e-06,1.7286303773289546e-05,-6.588500582438428e-06,6.127137748990208e-05
-7.689298945479095e-05,-6.699131336063147e-05,1.8293816538061947e-05,-6.546685199282365e-06,5.516009696293622e-05
-7.828536763554439e-05,-0.00012196343595860526,1.3760694855591282e-05,-4.3983422983728815e-06,5.279090328258462e-05
-7.698030094616115e-05,-0.00011434851330704987,9.532132025924511e-06,6.985607683418493e-07,5.288917600410059e-05
-6.246184057090431e-05,-5.956592576694675e-05,7.919848940218799e-06,6.807023964938708e-06,5.5307962611550465e-05
-3.528966408339329e-05,-1.4670283235318493e-05,6.9295551838877145e-06,1.5675674148951657e-05,5.795901961391792e-05
-4.73174941362231e-06,6.053949982742779e-05,8.297088243125472e-06,2.5438162992941216e-05,6.046911948942579e-05
1.3775923434877768e-05,0.00014345388626679778,2.3940899609442567e-06,3.3727908885339275e-05,6.322484114207327e-05
1.6326435797964223e-05,0.00015593276475556195,-8.938329301599879e-06,4.031270873383619e-05,6.672527524642646e-05
1.2592314305948094e-05,0.00012004486779915169,-1.1583875675569288e-05,5.0811060646083206e-05,6.883833702886477e-05
-2.7181688437849516e-06,8.793685265118256e-05,-9.201290595228784e-06,6.20510836597532e-05,6.327311712084338e-05
-3.0113673346932046e-05,6.909454532433301e-05,-5.2105965551163536e-06,5.002199759474024e-05,5.0194943469250575e-05
-5.067453457741067e-05,3.757826561923139e-05,-2.440340722387191e-06,1.4530582120642066e-05,3.655210093711503e-05
-4.848947355640121e-05,-2.4946150006144308e-05,-3.6255175928090466e-06,-1.2928820069646463e-05,3.289466258138418e-05
-3.13292293867562e-05,-0.00013659796968568116,-5.3614890020980965e-06,-2.6806481400853954e-05,3.868931526085362e-05
-1.695685386948753e-05,-0.00023631683143321425,-7.879465556470677e-06,-4.9988870159722865e-05,4.5999822759767994e-05
-1.5447783880517818e-05,-0.00022187872673384845,-8.68237839313224e-06,-8.154824172379449e-05,5.017421062802896e-05
-2.0488221707637422e-05,-0.00011300186451990157,-9.606213097868022e-06,-0.00010331105295335874,5.053033964941278e-05
-1.7187752746394835e-05,5.942400093772449e-06,-1.1375263056834228e-05,-0.00011306767555652186,5.10818135808222e-05
-5.876641807844862e-06,6.029631549608894e-05,-1.196148878079839e-05,-0.0001107274365494959,5.423299080575816e-05
3.434548432323936e-07,2.7707739718607627e-05,-1.0889285476878285e-05,-9.176610910799354e-05,5.6289733038283885e-05
9.433404102310305e-07,-4.33414606959559e-05,-1.1970816558459774e-05,-5.722803689423017e-05,5.841861275257543e-05
4.941016413795296e-06,-7.70983679103665e-05,-1.7103913705796003e-05,-1.9653685740195215e-05,6.201857468113303e-05
1.0407557965663727e-05,-5.01962385897059e-05,-2.2718611944583245e-05,3.5388918604439823e-06,6.23114246991463e-05
1.1174882274644915e-05,-2.9389084374997765e-06,-2.8693988497252576e-05,7.97607845015591e-06,5.647504804073833e-05
6.978274541324936e-06,2.738313196459785e-05,-3.312055559945293e-05,-6.255783318920294e-06,5.046320802648552e-05
-2.7128178317070706e-06,5.199439692660235e-05,-2.715823211474344e-05,-3.3094478567363694e-05,4.9178899644175544e-05
-1.3902670616516843e-05,8.611413795733824e-05,-1.1430855920480099e-05,-3.78270196961239e-05,5.0497736083343625e-05
-1.726164191495627e-05,0.00010858981841010973,3.244332674512407e-06,-6.922505235706922e-06,5.36234219907783e-05
-1.840524964791257e-05,9.785362635739148e-05,1.2752197108056862e-05,2.482099625922274e-05,5.894985588383861e-05
-2.8218973966431804e-05,7.980334339663386e-05,1.4655796803708654e-05,3.359977199579589e-05,5.7001732784556225e-05
-3.999174077762291e-05,8.193424582714215e-05,7.793785698595457e-06,2.1293515601428226e-05,4.631988485925831e-05
-5.0835005822591484e-05,9.935516573023051e-05,3.3000119401549455e-06,8.235195309680421e-06,3.9782193198334426e-05
-6.711394962621853e-05,0.00012602958304341882,8.037598490773235e-06,-1.0416831628390355e-06,4.3487689254106954e-05
-7.739679131191224e-05,0.00014400256623048335,1.368102130072657e-05,-1.1412960702728014e-05,5.0815739086829126e-05
-7.71484337747097e-05,0.00012315515778027475,2.0160516214673407e-05,-1.4757345525140408e-05,5.370064900489524e-05
-8.64194953464903e-05,7.512201409554109e-05,2.737629256444052e-05,-7.209212981251767e-06,5.515890006790869e-05
-0.0001036590983858332,4.93011721118819e-05,3.1476585718337446e-05,5.029921794630354e-06,5.397778295446187e-05
-9.996127482736483e-05,9.72375346464105e-05,3.2281506719300523e-05,2.310639865754638e-05,4.5201282773632556e-05
-7.291034853551537e-05,0.00018519608420319855,3.221586666768417e-05,5.588501153397374e-05,2.8589654903043993e-05
-5.201871317694895e-05,0.00021438031399156898,2.7101596060674638e-05,8.780499774729833e-05,1.640829214011319e-05
-5.027101360610686e-05,0.00017938231758307666,1.933968633238692e-05,0.00010605103307170793,1.344980591966305e-05
-5.193212200538255e-05,0.00013442141062114388,1.1402725249354262e-05,0.00012017355038551614,1.7195812688441947e-05
-4.692965740105137e-05,7.795802230248228e-05,2.0493168904067716e-06,0.00011981258285231888,2.696299816307146e-05
-4.2463649151613936e-05,-1.9783086827374063e-05,-5.091204911877867e-06,5.284339204081334e-05,3.5623412259155884e-05
-5.83881774218753e-05,-0.00013879273319616914,-1.0663230568752624e-05,-5.9636731748469174e-05,4.305524635128677e-05
-8.287034870591015e-05,-0.00022004092170391232,-1.6545913240406662e-05,-0.00011059320968342945,5.438467997009866e-05
-8.368706767214462e-05,-0.00023260651505552232,-2.0845547624048777e-05,-8.228625665651634e-05,7.243551226565614e-05
-6.215510802576318e-05,-0.0002449435123708099,-2.0499741367530078e-05,-4.9701651732902974e-05,9.103501361096278e-05
-2.9056098355795257e-05,-0.0003015784313902259,-1.695791070233099e-05,-5.420334855443798e-05,0.00010268557525705546
2.027106711466331e-05,-0.0002960509737022221,-1.4449883565248456e-05,-7.417110464302823e-05,0.00010449757246533409
7.677968824282289e-05,-0.00017741612100508064,-1.698903724900447e-05,-8.194642578018829e-05,0.00010213333735009655
0.00010650149488355964,-5.9447957028169185e-05,-2.0151910575805232e-05,-7.298271520994604e-05,9.918924479279667e-05
9.476120612816885e-05,7.806660505593754e-06,-1.9764231183216907e-05,-6.30718786851503e-05,9.644710371503606e-05
6.580367335118353e-05,5.858269287273288e-05,-1.827093910833355e-05,-5.384681571740657e-05,9.29862871998921e-05
4.5452376070898026e-05,9.813382348511368e-05,-1.5018542399047874e-05,-3.5624223528429866e-05,8.573391824029386e-05
3.3741067454684526e-05,0.00013652343477588147,-5.180706921237288e-06,-1.2711717317870352e-05,7.933422602945939e-05
3.1714669603388757e-05,0.00017471132741775364,4.217629339109408e-06,1.8695067183216452e-06,7.628356979694217e-05
4.099757279618643e-05,0.00020026296260766685,4.378706762508955e-06,3.1141587442107266e-06,7.497798651456833e-05
5.276232332107611e-05,0.00017214678518939763,2.484836613803054e-06,-1.1122036767119425e-06,7.256797834997997e-05
5.2184586820658296e-05,8.242527837865055e-05,1.9894939669029554e-06,-1.7953081624000333e-05,6.409701745724306e-05
3.075065978919156e-05,3.1786235922481865e-05,-2.7255152872385224e-06,-3.195091994712129e-05,5.7566488976590335e-05
4.3287300286465324e-06,3.760055187740363e-05,-2.918694235631847e-06,-2.698263051570393e-05,4.870373595622368e-05
-2.968773969769245e-06,2.704711187107023e-05,1.3813892110192683e-06,-2.5850078600342385e-05,3.517385266604833e-05
2.2812591851106845e-06,-3.0594001145800576e-06,7.20437719792244e-06,-2.9959630410303362e-05,3.0328816137625836e-05
7.870984518376645e-06,8.011626960069407e-06,1.100912231777329e-05,-2.9046705094515346e-05,3.410710996831767e-05
1.1220809938095044e-05,9.055287227965891e-05,1.0101380212290678e-05,-1.9094932213192806e-05,4.263504160917364e-05
1.3373752153711393e-05,0.00018056413682643324,1.5151736988627817e-05,4.465669007913675e-07,5.123854134581052e-05
7.375993391178781e-06,0.0002260190958622843,2.7144336854689755e-05,1.870169216999784e-05,5.837845674250275e-05
-2.247830889245961e-05,0.0002176873676944524,4.002956484328024e-05,2.917333404184319e-05,6.24761451035738e-05
-7.042026845738292e-05,0.00017222011229023337,4.649756010621786e-05,2.9846132747479714e-05,7.008543616393581e-05
-0.00011093494686065242,9.241598309017718e-05,4.5318181946640834e-05,2.750587009359151e-05,7.699729030719027e-05
-0.00011921895202249289,-1.4002966963744257e-06,3.743558409041725e-05,2.3792155843693763e-05,7.903097866801545e-05
-9.570646216161549e-05,-7.444993389071897e-05,2.819421570166014e-05,1.3652590496349148e-05,7.655908120796084e-05
-5.959830014035106e-05,-0.00012190839333925396,2.0356559616629966e-05,-1.8219477624370484e-06,7.002722122706473e-05
-2.6916348360828124e-05,-0.00014792647561989725,1.2794952453987207e-05,-1.2541629985207692e-05,6.211765867192298e-05
3.2598816233075922e-06,-0.00013024601503275335,5.9976755437674e-06,-1.2934701771882828e-05,5.3849100368097425e-05
3.121906047454104e-05,-5.363087257137522e-05,1.1288759651506552e-06,-8.185472324839793e-06,4.840964174945839e-05
4.5735581807093695e-05,2.6877240088651888e-05,-1.0551077593845548e-06,-5.6575781854917295e-06,4.725086546386592e-05
3.625014505814761e-05,5.208941729506478e-05,2.071929202429601e-06,-9.540127393847797e-06,4.596620419761166e-05
1.6756952391006052e-05,2.6755196813610382e-05,1.0529785868129693e-05,-1.9648152374429628e-05,4.088176501682028e-05
9.701364433567505e-06,-5.388503268477507e-06,1.772988798620645e-05,-3.0702969525009394e-05,3.646320692496374e-05
8.698162673681509e-06,-2.5611185265006498e-05,2.021667933149729e-05,-3.5441582440398633e-05,3.4322463761782274e-05
2.2777494450565428e-06,-1.4651948731625453e-05,1.886552490759641e-05,-2.9421586077660322e-05,3.615905370679684e-05
-8.392269592150114e-06,2.9425573302432895e-05,1.8328570149606094e-05,-1.5385634469566867e-05,4.28972598456312e-05
-2.1337222278816625e-05,7.533311872975901e-05,2.0695077182608657e-05,-2.64782670456043e-06,5.33380989509169e-05
-3.878083225572482e-05,9.066238271770999e-05,2.3100590624380857e-05,1.02263686585502e-06,6.152045534690842e-05
-6.77236748742871e-05,6.818509427830577e-05,2.378874341957271e-05,2.95993777399417e-06,6.432045483961701e-05
-9.222191147273406e-05,3.2597734389128163e-05,2.055719778581988e-05,1.5091457498783711e-05,6.008302079862915e-05
-0.0001028783735819161,2.602252243377734e-05,1.5861247447901405e-05,2.838396540028043e-05,5.582941594184376e-05
-0.0001054438907885924,4.6712084440514445e-05,1.3616288015327882e-05,3.153979196213186e-05,5.736128514399752e-05
-9.539331222185865e-05,6.16892211837694e-05,9.976571163861081e-06,2.5465838916716166e-05,6.0579321143450215e-05
-7.520292274421081e-05,6.678866338916123e-05,3.0268113277998054e-06,7.148155873437645e-06,6.0400980146368966e-05
-4.7623092541471124e-05,6.937323632882908e-05,-4.467471171665238e-06,-2.5899016691255383e-05,6.0224316257517785e-05
-1.4641561392636504e-05,4.613002602127381e-05,-4.75307933811564e-06,-5.105823220219463e-05,6.010659853927791e-05
1.7737842426868156e-05,6.628515166084981e-06,2.989295126099023e-06,-5.225580753176473e-05,5.9013833379140124e-05
3.272857429692522e-05,-3.1621279958926607e-06,1.0006329830503091e-05,-3.7121153582120314e-05,5.920729017816484e-05
2.5688208552310243e-05,2.1921852749073878e-05,1.2408778275130317e-05,-2.096094067383092e-05,5.8645691751735285e-05
1.0948003364319447e-05,6.278851651586592e-05,1.2825787962356117e-05,-1.008893104881281e-05,5.8943918702425435e-05
1.5856056734264712e-07,0.00010150973685085773,9.33153660298558e-06,-6.785404366382863e-06,6.0074245993746445e-05
-1.0421949809824582e-05,0.00011718228051904589,2.927492687376798e-06,-1.1359314157743938e-05,5.939361290074885e-05
-2.9727199944318272e-05,9.142560884356499e-05,-1.6547882069062325e-06,-1.870447158580646e-05,5.752115248469636e-05
-4.982227255823091e-05,4.827661541639827e-05,-1.5613067034792039e-06,-2.3794327717041597e-05,5.8420817367732525e-05
-4.8228976083919406e-05,3.7753859942313284e-05,1.3431473462333088e-06,-2.6550607799435966e-05,6.294185732258484e-05
-2.5401448510820046e-05,6.0957168898312375e-05,3.2770028610684676e-06,-3.091380494879559e-05,6.651686271652579e-05
-1.0535343790252227e-05,6.380413105944172e-05,3.1491708796238527e-06,-2.9775941584375687e-05,6.478696741396561e-05
-1.022262676997343e-05,2.7847534511238337e-05,2.3284039798454614e-06,-1.5819989130250178e-05,6.0198723076609895e-05
-2.394599960098276e-06,-4.750823336507892e-06,2.0045301880600164e-06,2.6596146653901087e-06,5.7283599744550884e-05
7.651164196431637e-06,-5.361776402423857e-06,-6.364755336107919e-07,1.028493443300249e-05,5.799936116090976e-05
-1.1867245120811276e-05,2.180117371608503e-05,-7.168863248807611e-06,2.688942458917154e-06,5.468134258990176e-05
-5.327477992977947e-05,7.064305827952921e-05,-1.3389408195507713e-05,-1.69115919561591e-05,4.4737989810528234e-05
-7.930901483632624e-05,9.65293002082035e-05,-1.6522239093319513e-05,-4.52835884061642e-05,4.031328353448771e-05
-8.111490024020895e-05,7.006087253103033e-05,-1.9588900613598526e-05,-8.144558523781598e-05,4.7910460125422105e-05
-7.698449189774692e-05,2.2831445676274598e-05,-1.9366769265616313e-05,-0.00011099864059360698,5.962128852843307e-05
-7.160780660342425e-05,-8.697174052940682e-06,-1.7790815036278218e-05,-0.00010796412243507802,6.369884067680687e-05
-6.437434785766527e-05,-7.318962161662057e-06,-1.5855002857279032e-05,-7.373000698862597e-05,5.659740781993605e-05
-5.5287273426074535e-05,1.8387388990959153e-05,-9.863667401077691e-06,-3.948353332816623e-05,5.386470365920104e-05
-4.6405250031966716e-05,4.856775558437221e-05,-1.8746466139418771e-06,-1.5684510799474083e-05,6.050499723642133e-05
-4.64920412923675e-05,6.55801486573182e-05,3.957864009862533e-06,9.437499102205038e-06,6.374782242346555e-05
-5.210873860050924e-05,7.666843885090202e-05,2.3547625005448936e-06,3.516985088936053e-05,6.05710010859184e-05
-6.44310493953526e-05,0.0001024766024784185,-9.578378694641287e-07,5.0182010454591364e-05,5.629752195090987e-05
-8.239156159106642e-05,0.00014657076098956168,3.735423888429068e-06,5.41269218956586e-05,5.202129250392318e-05
-9.669916471466422e-05,0.0001912362058646977,8.45667364046676e-06,4.76815112051554e-05,4.446099774213508e-05
-0.00010061850480269641,0.0001946822158060968,6.246303655643715e-06,3.3466083550592884e-05,3.885865953634493e-05
-9.245694673154503e-05,0.00013684650184586644,2.662044835233246e-06,2.2173635443323292e-05,4.1409879486309364e-05
-6.636315811192617e-05,6.303530972218141e-05,3.412354203646828e-07,9.547129593556747e-06,5.196930578676984e-05
-3.688405922730453e-05,3.397131877136417e-05,-5.844416591571644e-06,-1.847201019700151e-05,5.7821296650217846e-05
-3.7448615330504254e-05,4.790018283529207e-05,-1.4652528079750482e-05,-5.481547850649804e-05,5.299577605910599e-05
-6.559697794727981e-05,5.3388881497085094e-05,-1.4935754734324291e-05,-6.714288610965014e-05,4.728184285340831e-05
-8.918584353523329e-05,1.4701473446621094e-05,-2.894677209042129e-06,-3.33794487232808e-05,4.9750746256904677e-05
-8.056213118834421e-05,-7.207945600384846e-05,9.816198144108057e-06,3.235317490180023e-05,6.054529148968868e-05
-3.6469322367338464e-05,-0.00016619630332570523,1.64216344273882e-05,9.13559488253668e-05,7.300149445654824e-05
2.7048854462918825e-05,-0.00016678728570695966,2.342771585972514e-05,0.00011279998579993844,8.216046990128234e-05
7.85077063483186e-05,-4.998585791327059e-05,2.9943392291897908e-05,9.4606562925037e-05,8.576739492127672e-05
9.958642476703972e-05,7.087645644787699e-05,2.6458581487531774e-05,6.0306523664621636e-05,9.078092261916026e-05
9.331184992333874e-05,0.00011671512766042724,1.510097808932187e-05,3.1162086088443175e-05,9.888364729704335e-05
7.876942254370078e-05,0.00010363099863752723,3.6833375816058833e-06,1.6663849464748637e-06,0.00010273906809743494
7.488979463232681e-05,7.468383410014212e-05,-2.5755364276847104e-06,-4.7950652515282854e-05,0.0001058583875419572
7.223053398774937e-05,5.3128955187276006e-05,-1.9166620859323302e-06,-9.592065907781944e-05,0.00010957727499771863
6.166539242258295e-05,5.905314174015075e-05,1.0539136496845458e-07,-9.106691140914336e-05,0.00010508974810363725
5.935886292718351e-05,3.9696267776889727e-05,3.6508488392428262e-06,-4.505466131377034e-05,9.19574304134585e-05
6.616951577598229e-05,-9.967409278033301e-05,6.361017767630983e-06,-9.36654851102503e-06,7.631158223375678e-05
7.640050898771733e-05,-0.00019068893743678927,6.392996965587372e-06,3.0811627311777556e-06,6.594803562620655e-05
9.155509906122461e-05,-0.0001168235539807938,7.961215487739537e-06,8.849415280565154e-06,6.267182470764965e-05
9.482985478825867e-05,-1.4684692359878682e-05,7.588107564515667e-06,1.3438995665637776e-05,6.524434866150841e-05
7.475351594621316e-05,-3.42295993505104e-06,2.586907157819951e-06,1.4622228263760917e-05,6.501389725599438e-05
4.4873249862575904e-05,-8.395246550207958e-05,-4.026349870400736e-06,1.4838281458651181e-05,5.710577897843905e-05
1.2123156011512037e-05,-0.00011790400458266959,-9.740187124407385e-06,5.969131507299608e-06,4.99513880640734e-05
-4.264458766556345e-05,-5.629038059851155e-05,-1.0472566827957053e-05,-7.5484167609829456e-06,4.5496195525629446e-05
-0.00011698929301928729,3.2904590625548735e-05,-6.749619387846906e-06,-2.4621404008939862e-05,4.364894994068891e-05
-0.00016344364848919213,7.992742757778615e-05,-1.1023465731341275e-06,-4.630194962373935e-05,4.2928535549435765e-05
-0.00015675894974265248,8.659446757519618e-05,5.94589437241666e-06,-5.53635363758076e-05,3.428764102864079e-05
-0.00012717852951027453,7.150298915803432e-05,1.223814433615189e-05,-4.250498750479892e-05,1.6645753930788487e-05
-8.859163790475577e-05,3.9460301195504144e-05,1.2813633475161623e-05,-1.547672763990704e-05,4.175319645582931e-06
-4.0764112782198936e-05,5.554238214244833e-06,7.356367405009223e-06,1.6078502085292712e-05,4.263478786015185e-06
2.2037149847164983e-06,5.360897148420918e-07,2.552511944031721e-07,4.581593384500593e-05,1.4026252756593749e-05
1.748913200572133e-05,3.2482301321579143e-05,-4.342296961112879e-06,4.580814129440114e-05,2.682375088625122e-05
-1.6044256767600018e-07,6.993608985794708e-05,-6.81436586091877e-06,-1.1228248695260845e-05,4.058357808389701e-05
-4.054321470903233e-05,8.465049904771149e-05,-1.0271395694871899e-05,-9.780214895727113e-05,5.859442535438575e-05
-7.833321433281526e-05,9.161325579043478e-05,-1.4564354387403e-05,-0.0001471456344006583,7.819543679943308e-05
-8.078641258180141e-05,0.00011416777124395594,-1.3715500244870782e-05,-0.0001333791296929121,8.98757207323797e-05
-4.959120269631967e-05,0.00011224913760088384,-5.776186299044639e-06,-8.842294482747093e-05,9.371907071908936e-05
-1.983037327590864e-05,4.264818562660366e-05,1.5437545926033636e-06,-4.2668809328461066e-05,9.713965118862689e-05
-1.3603649676952045e-05,-7.033104338916019e-05,6.716849838994676e-06,7.654246473975945e-06,0.0001040539937093854
-2.2731897843186744e-05,-0.00011771469871746376,9.932711691362783e-06,5.9697700635297224e-05,0.00010901649511652067
-3.413431841181591e-05,-5.046465594205074e-05,7.357528374996036e-06,7.353107503149658e-05,0.00010326159826945513
-4.093466850463301e-05,5.196697384235449e-05,2.446413418510929e-07,4.085689943167381e-05,8.98833095561713e-05
-4.722053199657239e-05,0.00010227748134639114,-8.262935011771333e-07,2.576261613285169e-05,8.412155148107558e-05
-7.043957157293335e-05,0.0001098289285437204,2.3710924779152265e-06,6.515229324577376e-05,8.441575482720509e-05
-0.00011490894394228235,0.00011938565876334906,4.0594551364847575e-07,9.708746802061796e-05,7.163125701481476e-05
-0.00013811842654831707,0.00015402129793073982,-5.849803073942894e-06,8.232887921622023e-05,4.745284968521446e-05
-0.00011647016071947291,0.00016671931371092796,-7.796827048878185e-06,4.822678602067754e-05,2.9212440495030023e-05
-7.212792115751654e-05,0.00013737427070736885,-8.235037967097014e-06,-1.94774906958628e-06,2.9096798243699595e-05
-3.5122950066579506e-05,0.00010130758164450526,-1.2778852578776423e-05,-8.070715557551011e-05,3.6530465877149254e-05
-7.772140634187963e-06,4.484440432861447e-05,-1.3978149581816979e-05,-0.0001262034784303978,4.059679849888198e-05
1.809828609111719e-05,-5.843874987476738e-06,-9.21738137549255e-06,-9.23364277696237e-05,4.3854754039784893e-05
3.0289278583950363e-05,-1.3920877790951636e-05,3.7212830648059025e-06,-3.591095810406841e-05,5.2177532779751346e-05
2.1878893676330335e-05,-1.2495965165726375e-05,1.720156433293596e-05,3.794712256421917e-06,6.190187559695914e-05
7.563988219772e-06,-1.9755892935791053e-05,2.602972563181538e-05,1.649611112952698e-05,6.727882282575592e-05
2.47832463173836e-06,-3.6432269553188235e-05,2.524215597077273e-05,1.2107749171264004e-05,6.958243466215208e-05
8.995941243483685e-06,-9.691243030829355e-05,1.4543282304657623e-05,-3.2553937217016937e-06,6.930116796866059e-05
7.670707418583333e-06,-0.0002135426038876176,2.2091267055657227e-06,-1.6325462638633326e-05,6.213616870809346e-05
-2.3706606953055598e-05,-0.00032805849332362413,-5.9217650232312735e-06,-2.055696677416563e-05,4.647610694519244e-05
-7.707293116254732e-05,-0.000370469584595412,-5.947006229689578e-06,-2.3720318495179527e-05,3.329939136165194e-05
-0.00012485581100918353,-0.0003310551983304322,-3.4514164326537866e-06,-2.8921380362589844e-05,2.9743710911134258e-05
-0.0001451062853448093,-0.00022928418184164912,3.704631978962425e-07,-2.8895899959024973e-05,3.31102310155984e-05
-0.00013684661826118827,-0.00010746566840680316,6.550693797180429e-06,-2.8742486392729916e-05,3.9457583625335246e-05
-0.00011269391688983887,-3.764282519114204e-05,1.4882395589665975e-05,-5.0702219596132636e-05,5.081834751763381e-05
-8.102753781713545e-05,-6.35185424471274e-05,1.9009057723451406e-05,-7.946472032926977e-05,6.324746937025338e-05
-3.604463199735619e-05,-0.00012542441254481673,1.7417063645552844e-05,-8.126341708702967e-05,6.747171573806554e-05
2.6984402211382985e-05,-7.762949826428667e-05,1.5501385860261507e-05,-5.8340447139926255e-05,6.505320925498381e-05
9.211561700794846e-05,0.00010535388719290495,1.8628481484483927e-05,-3.957098670070991e-05,6.439007120206952e-05
0.00011854009790113196,0.00027179165044799447,2.0826839318033308e-05,-3.1663774279877543e-05,6.546529766637832e-05
9.766349830897525e-05,0.0003238589852117002,1.623863136046566e-05,-3.293394547654316e-05,6.189965642988682e-05
6.93264082656242e-05,0.00028754418599419296,1.1331573659845162e-05,-3.505029235384427e-05,5.730311750085093e-05
5.388736826716922e-05,0.00021757511422038078,1.0283926712872926e-05,-2.54113765549846e-05,5.4604894103249535e-05
3.987462696386501e-05,0.00017154902161564678,1.4937717423890717e-05,-3.572579316823976e-06,4.5295528252609074e-05
1.6638334273011424e-05,0.00018301093950867653,2.37337972066598e-05,-2.9600842026411556e-06,3.124585055047646e-05
-1.9403771148063242e-05,0.000213963576243259,2.980085446324665e-05,-2.885975845856592e-05,1.2410335330059752e-05
-4.557472493615933e-05,0.00021348940208554268,3.4257740480825305e-05,-5.387266355683096e-05,-2.559372433097451e-06
-2.5911451302818023e-05,0.00015676510520279408,4.018109029857442e-05,-4.5456454245140776e-05,-7.49311857362045e-06
1.8365208234172314e-05,6.478613067883998e-05,3.9063826989149675e-05,-2.756545143256517e-07,-7.207825092336861e-06
3.775405275519006e-05,-2.4745801056269556e-05,3.3204130886588246e-05,4.23046549258288e-05,-2.2838955828774488e-06
2.9508148145396262e-05,-8.891862671589479e-05,2.996162038471084e-05,3.409345663385466e-05,6.020958153385436e-06
8.589643584855366e-06,-7.538744830526412e-05,2.2651349354418926e-05,-6.804927579651121e-06,2.4040717107709497e-05
-2.8057156669092365e-05,-6.085395853006048e-06,7.683456715312786e-06,-1.817733391362708e-05,5.192022945266217e-05
-8.420845551881939e-05,1.1714790161931887e-05,-4.04824095312506e-06,1.5095118214958347e-05,8.198743307730183e-05
-0.00014224850747268647,-6.269302684813738e-05,-5.295486516843084e-06,4.431640627444722e-05,0.00010362135071773082
-0.00017195838154293597,-0.00011510942567838356,1.7471321598350187e-06,3.40116566803772e-05,0.00011262777115916833
-0.000161883479449898,-5.3876781748840585e-05,1.4842081327515189e-05,8.731925845495425e-06,0.00011440978414611891
-0.0001294850226258859,4.04523489123676e-05,2.95541831292212e-05,-4.571208137349458e-06,0.0001151866017607972
-9.978539310395718e-05,7.897104660514742e-05,3.6437220842344686e-05,-3.436917950239149e-06,0.00011450608872110024
-8.175950642907992e-05,0.0001056605760823004,3.478959115454927e-05,-4.4287548917054664e-06,0.00011025616549886763
-7.001142512308434e-05,0.00018892233492806554,3.278917574789375e-05,-1.4006537639943417e-05,0.00010389395902166143
-5.685522046405822e-05,0.0002935664670076221,3.133774225716479e-05,-2.574037716840394e-05,9.631376451579854e-05
-4.041595821036026e-05,0.00035251735243946314,2.912573836511001e-05,-2.6916950446320698e-05,8.555068052373827e-05
-2.709017280722037e-05,0.0003449195937719196,2.8268830646993592e-05,-1.965289811778348e-05,7.320615986827761e-05
-1.8295733752893284e-05,0.00028701580595225096,2.6891335437539965e-05,-8.407700988755096e-06,6.628312257817015e-05
-1.6617121218587272e-05,0.00018925449694506824,2.4696057153050788e-05,8.029287528188433e-06,6.298752850852907e-05
-1.9180104573024437e-05,7.952826854307204e-05,2.4650167688378133e-05,3.9620663301320747e-05,5.727331881644204e-05
-1.777318902895786e-05,9.440292160434183e-06,2.484795004420448e-05,8.660030289320275e-05,5.240730752120726e-05
-1.3115683032083325e-05,-2.931562084995676e-05,2.6714191335486248e-05,0.00012403320579323918,5.296736708260141e-05
-4.665350843424676e-06,-0.00010538127389736474,3.0462222639471292e-05,0.00012915523257106543,5.6012846471276134e-05
8.970328053692356e-06,-0.0001863365905592218,3.007766281371005e-05,9.288729052059352e-05,5.611288725049235e-05
2.5589781216694973e-05,-0.00015663182421121746,2.440655771351885e-05,4.852468919125386e-06,5.6806427892297506e-05
2.832391510310117e-05,-3.9185040805023164e-05,1.8526639905758202e-05,-8.543823059881106e-05,5.645998680847697e-05
1.2688735296251252e-05,5.810961374663748e-05,1.5791669284226373e-05,-0.00010682752326829359,5.607302227872424e-05
-5.865525963599794e-06,0.00010713242227211595,1.3060889614280313e-05,-8.411477028857917e-05,5.7328630646225065e-05
-1.3564041182689834e-05,0.00012105230416636914,1.2357856576272752e-05,-6.518585723824799e-05,6.0408900026232004e-05
-4.086055560037494e-05,0.00010293854575138539,1.440094638383016e-05,-4.31840235251002e-05,6.420580757549033e-05
-0.00011292767885606736,6.436245166696608e-05,1.533334761916194e-05,-1.4092625860939734e-05,5.9750436776084825e-05
-0.00016990907897707075,2.0894891349598765e-05,9.858053999778349e-06,8.555646672903094e-06,5.060396870248951e-05
-0.00017005411791615188,-1.574806810822338e-05,4.889390766038559e-06,2.225586104032118e-05,4.5602759200846776e-05
-0.00015367956075351685,-2.64476675511105e-05,6.7540140662458725e-06,3.038333852600772e-05,4.867323150392622e-05
-0.00016057690663728863,-1.3203224625613075e-05,7.5152329372940585e-06,2.4427175958408043e-05,5.185103873373009e-05
-0.0001770717353792861,-1.383628296025563e-05,3.4796835279848892e-06,7.739170541753992e-06,4.9354035581927747e-05
-0.00017567657050676644,-4.106130654690787e-05,-2.2963899937167298e-07,-6.565783223777544e-06,4.3544780055526644e-05
-0.0001495621254434809,-3.4041921026073396e-05,1.6817380128486548e-06,-2.2168755094753578e-05,4.331726813688874e-05
-0.0001080580914276652,6.433424277929589e-05,4.465616257220972e-06,-4.1085982957156375e-05,5.49630458408501e-05
-6.307720468612388e-05,0.00019802231690846384,4.274502316548023e-06,-5.262816193862818e-05,7.00019154464826e-05
-2.3818794943508692e-05,0.0002570629876572639,1.726949790281651e-06,-4.537236236501485e-05,7.645717414561659e-05
2.500315986253554e-06,0.00022148765856400132,3.117418767573099e-09,-2.9987384550622664e-05,7.299472054000944e-05
1.570748645463027e-05,0.00013876889715902507,-6.844957169960253e-07,-2.319992199772969e-05,6.304662383627146e-05
2.651195609360002e-05,2.3192087610368617e-05,-2.9407299280137522e-06,-2.5628891307860613e-05,5.234986019786447e-05
4.111552698304877e-05,-0.00010181698598898947,-1.0624226888467092e-05,-2.502407369320281e-05,4.844250361202285e-05
5.0989827286684886e-05,-0.0001881301577668637,-2.2244372303248383e-05,-1.8688924683374353e-05,5.4199990699999034e-05
6.0373560700099915e-05,-0.00022335689573083073,-2.9051238016108982e-05,-9.73315673036268e-06,6.568669050466269e-05
8.99671358638443e-05,-0.0002492291387170553,-2.8180960725876503e-05,-3.4444924494891893e-06,7.42442935006693e-05
0.00012645490642171353,-0.00028324133018031716,-2.5399805963388644e-05,-5.464941295940662e-06,7.382526382571086e-05
0.00014071589976083487,-0.0002762091171462089,-2.556951039878186e-05,-7.681716851948295e-06,6.661124643869698e-05
0.00012042850721627474,-0.00021840925910510123,-2.2482363419840112e-05,-3.544048240655684e-06,6.378304533427581e-05
7.514144090237096e-05,-0.00011054033529944718,-1.3101192962494679e-05,-1.136750029218092e-06,6.201223732205108e-05
3.450275835348293e-05,3.3951793739106506e-05,-4.410504061524989e-06,-4.622689630195964e-06,5.6516859331168234e-05
1.7000444131554104e-05,0.00011225137859582901,1.4327815733850002e-06,-1.637575405766256e-05,5.0699643907137215e-05
1.9524566596373916e-05,0.00011825235560536385,-8.700898206370766e-07,-3.843044032691978e-05,4.2535139073152095e-05
1.8301285308552906e-05,0.00016248549218289554,-7.223010925372364e-06,-6.14325690548867e-05,3.680415466078557e-05
6.124661922513042e-06,0.0002467832528054714,-1.0621401088428684e-05,-7.04007688909769e-05,4.0942206396721303e-05
1.8566007611298119e-06,0.00023310832330025733,-1.0079583262267988e-05,-6.306951399892569e-05,4.677787364926189e-05
1.6230307664955035e-05,3.983182614319958e-05,-8.883027476258576e-06,-4.161833930993453e-05,4.9047204811358824e-05
3.553697752067819e-05,-0.00013162524555809796,-1.0851756996999029e-05,-1.1161903785250615e-05,5.267399319563992e-05
4.505170363700017e-05,-0.00010602471593301743,-1.2184656043245923e-05,9.39508117880905e-06,5.747870454797521e-05
5.018867159378715e-05,7.231911695271265e-06,-1.3129370017850306e-05,2.414282334939344e-06,6.026610572007485e-05
5.7924407883547246e-05,5.7863602705765516e-05,-1.3406595826381817e-05,-2.494087311788462e-05,5.820460864924826e-05
5.719852197216824e-05,4.298956991988234e-05,-1.356575739919208e-05,-4.488854392548092e-05,4.585035640047863e-05
3.441114313318394e-05,5.077080277260393e-05,-1.4029581507202238e-05,-4.419468677951954e-05,2.546759060351178e-05
-4.229636374475376e-07,8.69884534040466e-05,-1.3225919246906415e-05,-2.662630686245393e-05,1.5434148735948838e-05
-1.715684811642859e-05,0.00010632640623953193,-9.966058314603288e-06,2.2784540760767413e-06,2.509475416445639e-05
-2.346353312532301e-06,8.98349899216555e-05,-6.606740498682484e-06,3.426352486712858e-05,4.35982110502664e-05
2.0712996047222987e-05,5.3069939895067364e-05,-5.353443157218862e-06,6.111597758717835e-05,5.8649642596719787e-05
2.2821481252321973e-05,1.0494493835722096e-05,-3.880529675370781e-06,7.180828106356785e-05,6.795441004214808e-05
-1.0213640962319914e-05,7.364155862887856e-06,1.437446599084069e-06,5.865672210347839e-05,7.256593380589038e-05
-7.408123929053545e-05,8.67445778567344e-05,1.0212076631432865e-05,3.311394902993925e-05,7.478601764887571e-05
-0.00012765335850417614,0.000179284208570607,1.4935626495571341e-05,8.472818080917932e-06,7.489195559173822e-05
-0.00012265468831174076,0.0001962499663932249,1.0690590897866059e-05,-5.5548021009599324e-06,7.248933980008587e-05
-6.975895666982979e-05,0.00012426479952409863,6.04214164923178e-06,-5.666290235240012e-06,7.298252603504807e-05
-1.717562372505199e-05,-2.768132799246814e-05,7.299527624127222e-06,1.1165939213242382e-06,7.896520401118323e-05
1.0058488442155067e-05,-0.0001917455083457753,5.773078555648681e-06,2.159951236535562e-06,7.346518395934254e-05
-9.618093827157281e-06,-0.0002233746345154941,-5.807818979519652e-06,-6.4719274632807355e-06,5.2215011237422004e-05
-6.664475949946791e-05,-0.00014203584578353912,-1.2802362107322551e-05,-1.6146725101862103e-05,4.435100345290266e-05
-0.0001297074486501515,-9.374266664963216e-05,-9.848115951172076e-06,-1.632344356039539e-05,5.522220453713089e-05
-0.00017951334302779287,-8.228237129515037e-05,-2.001296024900512e-06,-9.048233550856821e-06,6.626340473303571e-05
-0.0001882001233752817,-3.0325336410896853e-05,7.025760623946553e-06,-6.920538453414338e-06,6.972212577238679e-05
-0.00016070788842625916,8.197485294658691e-05,1.0973250937240664e-05,-1.0795843081723433e-05,7.123244722606614e-05
-0.00012957589933648705,0.00017107704479712993,1.096812411560677e-05,-1.3889186448068358e-05,7.266383181558922e-05
-0.00012110397074138746,0.00018270038708578795,1.0274407031829469e-05,-1.701043038337957e-05,6.947453948669136e-05
-0.00012436401448212564,0.0001342499308520928,1.1858421203214675e-05,-2.036758633039426e-05,6.4901563746389e-05
-0.0001296727277804166,6.663379463134333e-05,1.1837980309792329e-05,-2.3392711227643304e-05,6.174358713906258e-05
-0.00012424135638866574,-8.967122084868606e-06,9.85919814411318e-06,-2.6718515073298477e-05,5.911245534662157e-05
-9.168464748654515e-05,-9.007889457279816e-05,7.921699761936907e-06,-2.0232697352184914e-05,5.426499046734534e-05
-4.030638956464827e-05,-0.000133914640173316,7.347299742832547e-06,8.393679308937863e-06,5.036149013903923e-05
4.852604888583301e-06,-9.647091064834967e-05,9.929508451023139e-06,4.8410944145871326e-05,4.7896151954773813e-05
2.8240567189641297e-05,1.2274793334654532e-05,1.4540203665092122e-05,6.521087925648317e-05,4.4706102926284075e-05
3.7036505091236904e-05,0.00010093502351082861,1.6973433957900852e-05,5.0725149776553735e-05,4.158561569056474e-05
3.7374837120296434e-05,0.000137052804348059,1.4375749742612243e-05,9.334628884971607e-06,4.2172479879809543e-05
3.303825360490009e-05,0.0001585525751579553,5.7497809393680654e-06,-6.89364387653768e-05,4.7577246732544154e-05
2.6878587959799916e-05,0.00017970251792576164,-4.963065748597728e-06,-0.00014601332077290863,5.456353392219171e-05
2.2887525119585916e-05,0.00017281809414271265,-8.771548891672865e-06,-0.00013919018965680152,6.001214569550939e-05
1.6927950127865188e-05,0.00014277940499596298,-1.910906121338485e-06,-6.68130669509992e-05,6.0002843383699656e-05
4.436408289620886e-06,9.083693294087425e-05,7.297324373212177e-06,-1.4034164451004472e-05,5.4921147238928825e-05
-3.208711859770119e-05,1.7460473827668466e-05,9.257913006877061e-06,-4.2212109292449895e-06,4.6537032176274806e-05
-9.877450065687299e-05,-2.58672716881847e-05,7.06968648955808e-06,8.205557264773233e-07,3.856737748719752e-05
-0.0001640663540456444,-1.3846376532455906e-05,5.95127039559884e-06,4.447538958629593e-05,3.392350481590256e-05
-0.0001891798310680315,2.565926843089983e-05,4.562558387988247e-06,7.69084581406787e-05,2.734597546805162e-05
-0.00015611675917170942,6.700521771563217e-05,7.485384116989735e-07,5.1833936595357955e-05,2.064447289740201e-05
-6.929467781446874e-05,7.35364155843854e-05,-1.672528924245853e-06,1.5991719919838943e-05,3.13969467242714e-05
1.9996985429315828e-05,3.788803951465525e-05,5.134223783898051e-07,-4.0510531107429415e-06,5.9462330682436004e-05
6.708411092404276e-05,-2.5141815058304928e-05,9.769506732482114e-07,-1.754799814079888e-05,8.934166544349864e-05
8.809362043393776e-05,-6.448025669669732e-05,6.927420486135816e-07,-3.4668948501348495e-05,0.00010324493632651865
0.00010295710671925917,-4.556521525955759e-05,4.0305258153239265e-06,-6.432426744140685e-05,0.00010004093928728253
0.00010632445628289133,-2.7772807698056567e-06,5.373342901293654e-06,-8.924207941163331e-05,9.702245733933523e-05
9.943982877302915e-05,1.642798633838538e-05,1.465916511733667e-06,-9.267557470593601e-05,9.970799874281511e-05
9.735780622577295e-05,1.5041569895402063e-05,-5.574777333094971e-06,-7.676702080061659e-05,0.00010484977246960625
0.00010243440192425624,4.622003325494006e-05,-5.835551291966112e-06,-5.573287489823997e-05,0.0001079142966773361
0.000100764496892225,0.00010578183719189838,2.354295929762884e-06,-3.5835862945532426e-05,0.00010667072638170794
8.215831621782854e-05,0.00014607769844587892,9.637575203669257e-06,-2.018354098254349e-05,9.640026837587357e-05
5.773889279225841e-05,0.00013861534534953535,1.2923142094223294e-05,-1.0898837899731006e-05,8.281210466520861e-05
4.61305353383068e-05,0.00014198014105204493,1.4183990970195737e-05,-4.093360075785313e-06,7.519952487200499e-05
4.48687351308763e-05,0.00020221638260409236,1.7136320821009576e-05,6.7167125052947085e-06,7.395385182462633e-05
4.0135924791684374e-05,0.00021308960276655853,2.2033600544091314e-05,2.0450474039535038e-05,7.32125699869357e-05
2.5548028133925982e-05,3.8764537748647854e-05,2.5636340069468133e-05,2.6133961000596173e-05,6.765993748558685e-05
-3.4828940442821477e-06,-0.00018478624406270683,2.829926961567253e-05,1.9491290004225448e-05,5.795028482680209e-05
-5.862447142135352e-05,-0.00020818090706598014,3.086352444370277e-05,7.75004446040839e-06,4.998784061172046e-05
-0.00013409688835963607,-6.561281770700589e-05,3.0026089007151313e-05,1.615768383089744e-06,4.613774217432365e-05
-0.00017281594045925885,2.639798549353145e-05,2.5624736736062914e-05,3.3762481166377256e-07,4.4100328523200005e-05
-0.00013785655028186738,9.435251513423282e-07,2.2740869098925032e-05,-7.303253823920386e-07,4.3132968130521476e-05
-7.25665086065419e-05,-6.631883297814056e-05,2.314945959369652e-05,-2.2494286895380355e-06,4.54578512290027e-05
-2.4284956452902406e-05,-9.789958130568266e-05,2.2273768990999088e-05,4.2509627746767364e-06,5.636943387798965e-05
7.996850399649702e-07,-9.017917182063684e-05,2.04084408323979e-05,1.7786223907023668e-05,6.952449621167034e-05
4.8689871618989855e-06,-8.441359386779368e-05,1.4738923709955998e-05,2.4596063667559065e-05,7.833876588847488e-05
-1.0413247764518019e-05,-3.666127668111585e-05,6.073499662306858e-06,1.631580016692169e-05,8.466644794680178e-05
-3.681439193314873e-05,0.00010092493175761774,3.663276856968878e-06,-3.434613745412207e-06,9.352792403660715e-05
-5.540342317544855e-05,0.00020877731731161475,4.830691977986135e-06,-2.167250931961462e-05,9.280578524339944e-05
-6.652145384578034e-05,0.0002319531049579382,3.5574801131588174e-06,-2.325049354112707e-05,7.534226460848004e-05
-6.850966747151688e-05,0.00022991618607193232,1.9578424144128803e-06,-1.0920397471636534e-05,6.27475674264133e-05
-5.351628715288825e-05,0.00019132265879306942,2.1611749616567977e-06,-4.040836302010575e-06,6.589866825379431e-05
-4.237687971908599e-05,9.372568456456065e-05,-1.1388294751668582e-06,-1.3153361578588374e-05,7.00345917721279e-05
-3.873093010042794e-05,-4.312281453167088e-05,-3.927842953999061e-06,-2.5285269657615572e-05,6.787632446503267e-05
-3.410706267459318e-05,-0.00015259115025401115,-5.555976713367272e-06,-2.890691757784225e-05,6.500791641883552e-05
-3.8614001823589206e-05,-0.00022744116722606122,-1.1819730389106553e-05,-2.8559225029312074e-05,5.6779008446028456e-05
-5.762262662756257e-05,-0.00024157065490726382,-1.8572998669696972e-05,-2.7453312213765457e-05,4.390934554976411e-05
-8.635632548248395e-05,-0.00014814241148997098,-1.9751831132452935e-05,-2.3875616534496658e-05,3.78172226191964e-05
-0.00011127688048873097,6.964490694372216e-06,-1.4809614185651299e-05,-1.447591967007611e-05,3.98425072489772e-05
-0.00011187588825123385,0.00011090629413956776,-7.693875886616297e-06,2.744944538335403e-07,4.6485871280310676e-05
-8.477022493025288e-05,0.00013420839968603104,-5.952920218987856e-07,6.995096100581577e-06,5.669068923452869e-05
-5.18536580784712e-05,0.00012963745393790305,8.055568287090864e-06,1.9710330434463685e-06,6.632243457715958e-05
-3.372894207132049e-05,0.00012459441495593637,1.7898284568218514e-05,3.9345189861705876e-07,6.988799577811733e-05
-3.0424036594922654e-05,0.00011961877316934988,2.590343137853779e-05,1.8017733964370564e-05,6.822916475357488e-05
-3.0453831641352735e-05,0.00012991431867703795,2.8847114663221873e-05,5.435447019408457e-05,6.474281690316275e-05
-3.1521820346824825e-05,0.0001563710393384099,2.251673686259892e-05,8.662799518788233e-05,6.149750697659329e-05
-3.5910441511077806e-05,0.0001501437945989892,1.0759471479104832e-05,9.303728438680992e-05,5.890025204280391e-05
-3.4032291296171024e-05,9.027917258208618e-05,2.002113205890055e-06,7.273742812685668e-05,5.5558455642312765e-05
-2.0495810531429015e-05,3.4522268833825365e-05,-4.730204636871349e-06,2.5804856704780832e-05,5.293914000503719e-05
-1.2073107882315526e-06,7.113713945727795e-05,-7.1987847150012385e-06,-3.4744491131277755e-05,5.18243687110953e-05
2.380858495598659e-05,0.00020233499526511878,4.504675871430663e-06,-5.858412987436168e-05,5.0819431635318324e-05
5.8318630181020126e-05,0.00031987394322641194,2.3219065042212605e-05,-3.455639671301469e-05,5.04174386151135e-05
8.680535393068567e-05,0.0003220975340809673,3.254634066252038e-05,1.9945971416746033e-06,4.8687055823393166e-05
7.365505007328466e-05,0.00023852731101214886,2.509181467758026e-05,2.1040646970504895e-05,4.024361987831071e-05
3.1873136322246864e-05,8.516242087353021e-05,1.9319430066389032e-05,2.039672835962847e-05,3.1565086828777567e-05
-1.063834361048066e-06,-0.0001394301070831716,2.3253980543813668e-05,1.9080987840425223e-05,3.700462912092917e-05
-3.0405806683120318e-05,-0.00027542791212908924,2.49098266067449e-05,6.202372787811328e-06,5.192159369471483e-05
-5.6997705542016774e-05,-0.00025773292873054743,2.6803454602486454e-05,-5.728776886826381e-05,5.880627213628031e-05
-7.99275076133199e-05,-0.0002155248075723648,2.3883345420472324e-05,-0.00012005842290818691,5.787709596916102e-05
-0.00010253408981952816,-0.00020549699547700584,1.6147456335602328e-05,-0.000100273871794343,5.449369928101078e-05
-8.568851626478136e-05,-0.00019432586850598454,1.0557101632002741e-05,-4.123069084016606e-05,5.182660970604047e-05
-1.7653906979830936e-05,-0.00014938348613213748,8.053179954004008e-06,-3.538581268003327e-06,5.247524313745089e-05
4.7180536057567224e-05,-9.756167128216475e-05,8.594542123319115e-06,6.6765151132130995e-06,5.854306436958723e-05
6.326858419924974e-05,-5.487426096806303e-05,8.300169611175079e-06,5.544229225051822e-06,6.743495032424107e-05
3.62318278348539e-05,-2.5693469069665298e-05,7.314235972444294e-06,-2.8412910069164354e-06,7.191587792476639e-05
-2.9136133434803924e-06,-1.697780317044817e-05,9.792477612791117e-06,-2.168007631553337e-05,6.965995271457359e-05
-3.3863943826872855e-05,-2.242052141809836e-05,1.2638007319765165e-05,-4.04180827899836e-05,6.171977292979136e-05
-4.481326323002577e-05,-2.7429165129433386e-05,9.73377245827578e-06,-4.7378514864249155e-05,5.813167445012368e-05
-4.442028875928372e-05,-2.3955657525220886e-05,1.8333812477067113e-06,-4.3709223973564804e-05,5.9965055697830394e-05
-5.191932723391801e-05,-6.006506737321615e-06,-7.835995347704738e-06,-3.950081008952111e-05,5.881075048819184e-05
-8.628045179648325e-05,2.6819834602065384e-05,-1.4196742085914593e-05,-3.451204247539863e-05,5.59054096811451e-05
-0.0001390273537253961,5.6005501392064616e-05,-1.604206772753969e-05,-2.4028819098020904e-05,5.6407530792057514e-05
-0.00017442986427340657,8.114340744214132e-05,-1.6414347555837594e-05,-9.042427336680703e-06,5.8444558817427605e-05
-0.00017369691340718418,0.00011288663517916575,-1.4051622201805003e-05,-4.349195933173178e-06,5.7866043789545074e-05
-0.00014250933600123972,0.00015584388165734708,-9.471941666561179e-06,-1.1637419447652064e-05,5.753101868322119e-05
-9.222684457199648e-05,0.0001803706109058112,-5.497287929756567e-06,-1.4416948943107855e-05,6.13103766227141e-05
-4.663022991735488e-05,0.0001669990597292781,1.0021073393318147e-07,-2.5972467483370565e-06,6.612732977373526e-05
-1.930435246322304e-05,0.00012604895164258778,1.3076491995889228e-06,1.5210112906061113e-05,6.517442670883611e-05
-8.483674719172996e-06,5.857556243427098e-05,-5.925424829911208e-06,2.0019177100039087e-05,5.5626416724408045e-05
-2.0005154510727152e-05,-3.628339254646562e-05,-1.356231496174587e-05,4.095178610441508e-06,4.09495914936997e-05
-3.0221144697861746e-05,-0.00011355638707755134,-1.362307921226602e-05,-1.7868240320240147e-05,3.597980321501382e-05
-2.0382137790875277e-06,-0.00016595073975622654,-1.1207113857381046e-05,-2.886643233068753e-05,4.944720058119856e-05
3.843345257337205e-05,-0.00017821321671362966,-1.7943495549843647e-05,-2.7505662728799507e-05,5.762928776675835e-05
4.0781800635159016e-05,-0.00011495287617435679,-2.3588283511344343e-05,-2.4313332687597722e-05,5.0600570830283687e-05
1.741082814987749e-05,-1.0197913979936857e-05,-1.80845945578767e-05,-2.3689231966272928e-05,4.3257947254460305e-05
1.037621041177772e-05,8.105571760097519e-05,-1.0983988431689795e-05,-2.3941940526128747e-05,3.9722126530250534e-05
2.2488617105409503e-05,0.00013069994747638702,-1.3870518159819767e-05,-2.188907456002198e-05,4.1629322367953137e-05
2.360951475566253e-05,0.00015917456767056137,-1.9635601347545162e-05,-1.6307634723489173e-05,4.2648309317883104e-05
9.811633390199859e-06,0.00016300562128890306,-1.7515249055577442e-05,-1.0395438039267901e-05,4.1436873289057985e-05
2.93774564852356e-06,0.00011750876001315191,-8.727153726795223e-06,-7.463502242899267e-06,4.1424202208872885e-05
1.8755337805487216e-05,8.52750163176097e-05,-2.10872804018436e-06,-5.540838174056262e-06,3.945816933992319e-05
4.140562305110507e-05,0.00013553263852372766,-6.417678832804086e-06,-3.730109710886609e-06,3.62690698239021e-05
5.233650517766364e-05,0.0002115485694957897,-1.2199348930153064e-05,-6.724108629896364e-07,3.314120840514079e-05
5.2218299970263615e-05,0.00022239443205762655,-9.712286555441096e-06,2.5855019885057118e-06,3.462464883341454e-05
5.2663344831671566e-05,0.00014551143976859748,-3.6103250522501185e-07,5.193596280150814e-06,4.385805004858412e-05
5.4721265769330785e-05,2.446114922349807e-05,9.365372534375638e-06,1.2075699487468228e-05,5.395571861299686e-05
4.9335274525219575e-05,-8.08819240774028e-05,1.343607345916098e-05,1.929857535287738e-05,5.765486275777221e-05
3.283767000539228e-05,-0.000151367174112238,1.4111506061453838e-05,2.029655297519639e-05,5.8175188314635307e-05
1.0890747034864035e-05,-0.0002040579420281574,1.7308242604485713e-05,1.697250991128385e-05,5.809991853311658e-05
-7.372080290224403e-06,-0.0002101465070154518,1.9712877474376e-05,1.288704606849933e-05,5.5525932111777365e-05
-1.82227431650972e-05,-0.00011221475870115682,1.54304871102795e-05,2.266421688545961e-06,5.069672624813393e-05
-1.692758632998448e-05,3.203541928087361e-05,1.1734687177522574e-05,-3.1373226647701813e-06,5.047602826380171e-05
-1.4904146610206226e-06,8.44666501507163e-05,1.4909166566212662e-05,6.01889769313857e-06,5.722173227695748e-05
1.6756348486524075e-05,2.9517050279537216e-05,2.217739529442042e-05,8.0587160482537e-06,6.751182081643492e-05
1.5836443708394654e-05,-2.3496171706938185e-05,3.0503451853292063e-05,-1.7425169062335044e-05,7.739510328974575e-05
-1.626354242034722e-05,-1.433897250535665e-05,3.62683531420771e-05,-5.2487142966128886e-05,7.974772597663105e-05
-6.29898568149656e-05,4.110949521418661e-05,3.5212338843848556e-05,-5.683343260898255e-05,7.686990284128115e-05
-7.942512456793338e-05,9.477560524828732e-05,2.5922439817804843e-05,-3.139267937513068e-05,7.344924961216748e-05
-5.169269206817262e-05,9.643848170526326e-05,1.2724327461910434e-05,4.823975814360892e-06,6.376570672728121e-05
-2.0815101379412226e-05,3.263260077801533e-05,2.347262352486723e-06,3.297915100120008e-05,5.108733967063017e-05
-2.957623655674979e-05,1.6813490219647065e-05,2.200967173848767e-06,3.074740379815921e-05,4.3709645979106426e-05
