-3.266921703470871e-05,1.977022475330159e-05,2.114494606075823e-07,-1.425357459083898e-05,4.861360866925679e-05
-3.6752473533852026e-05,1.1052652553189546e-05,-8.742209161027858e-07,-1.4588493286282755e-05,5.488568058353849e-05
-4.093326788279228e-05,1.1766864190576598e-05,-6.523275260406081e-06,-1.2977722690266091e-05,5.858028453076258e-05
-4.88384575874079e-05,1.9965875253546983e-05,-5.324105586623773e-06,-1.34549109134241e-05,6.224880053196102e-05
-4.876875755144283e-05,2.579117972345557e-05,-3.932524577976437e-06,-1.5873334632487968e-05,6.833687075413764e-05
-3.613054650486447e-05,2.6442477974342182e-05,-5.850719844602281e-06,-1.6541529475944117e-05,6.912571552675217e-05
-1.93621963262558e-05,2.9494387490558438e-05,-5.94390394326183e-06,-1.6596915884292684e-05,6.420132558559999e-05
-7.5968373494106345e-06,3.109483077423647e-05,-9.783962013898417e-07,-1.8568343875813298e-05,5.799095379188657e-05
-8.703143066668417e-06,2.5258956156903878e-05,5.266614152787952e-06,-1.9750408682739362e-05,5.394389881985262e-05
-2.0156056052655913e-05,1.926423101394903e-05,7.75018361309776e-06,-1.7263941117562354e-05,5.112342114443891e-05
-3.238260978832841e-05,2.1857598767383024e-05,9.575892363500316e-06,-1.1366443686711136e-05,5.031801265431568e-05
-3.732750701601617e-05,3.0376399081433192e-05,1.088417320715962e-05,-4.217761670588516e-06,5.29841345269233e-05
-3.641578950919211e-05,3.627240948844701e-05,1.0655130608938634e-05,-1.4493073194898898e-06,5.678827437805012e-05
-3.695322448038496e-05,3.765749715967104e-05,7.91317052062368e-06,-3.856909188471036e-06,6.042998575139791e-05
-3.829048000625335e-05,3.8172111089807004e-05,4.235556843923405e-06,-5.123776645632461e-06,6.140115874586627e-05
-3.746375659829937e-05,3.713729165610857e-05,1.9071009091931046e-06,-3.896935595548712e-06,6.007193951518275e-05
-3.7296376831363887e-05,3.611626016208902e-05,1.4300151178758824e-06,-4.192305823380593e-06,5.872254041605629e-05
-3.82077632821165e-05,3.61743186658714e-05,-1.0780830734802294e-06,-7.10366703060572e-06,5.587381383520551e-05
-3.7619262002408504e-05,3.4315093216719106e-05,-8.024954695429187e-06,-8.09558969194768e-06,5.1586932386271656e-05
-3.785935041378252e-05,2.7667290851240978e-05,-1.5000297025835607e-05,-6.580769422726007e-06,4.9475424020783976e-05
-3.910079612978734e-05,2.35817969951313e-05,-1.5261080989148468e-05,-9.319849596067797e-06,5.210736344452016e-05
-3.5463672247715294e-05,3.104029383393936e-05,-8.515478839399293e-06,-1.4399824067368172e-05,5.80402702325955e-05
-2.950644375232514e-05,4.413417264004238e-05,-2.6728409920906415e-06,-1.6219699318753555e-05,6.134791328804567e-05
-3.0325718398671597e-05,4.9176363972947e-05,-3.702860794874141e-06,-1.59755909407977e-05,6.051878517610021e-05
-3.173615550622344e-05,4.721774166682735e-05,-1.0520765499677509e-05,-1.8150774849345908e-05,5.853745460626669e-05
-2.1469562852871604e-05,4.443465149961412e-05,-1.6966116163530387e-05,-1.9487342797219753e-05,5.7603254390414804e-05
-1.2211279454277246e-06,3.8902649976080284e-05,-1.5695706679252908e-05,-1.229082317877328e-05,5.69292860745918e-05
2.237735861854162e-05,3.055515844607726e-05,-8.861155038175639e-06,-6.352874606818659e-06,5.603085446637124e-05
2.8741511414409615e-05,1.574917223479133e-05,-3.293541340099182e-06,-1.2209615306346677e-05,5.464739660965279e-05
1.4226234270608984e-05,-9.468576536164619e-06,-1.3147813433533884e-06,-2.217346991528757e-05,5.586773477261886e-05
-2.4489704628649633e-06,-2.5626717615523376e-05,-1.7187411458507995e-06,-2.491339728294406e-05,5.614034307654947e-05
-1.0698827281885315e-05,-2.0194542230456136e-05,-1.1211773198738229e-06,-2.0224895706633106e-05,5.3781273891218007e-05
-1.283194524148712e-05,-5.435365437733708e-06,1.644816762791379e-07,-1.3803450201521628e-05,5.357050758902915e-05
-1.8573260604171082e-05,8.374126082344446e-06,1.9052322386414744e-06,-1.1185501534782816e-05,5.469853931572288e-05
-2.467037847964093e-05,1.554107257106807e-05,3.0003297979419585e-06,-1.397676533088088e-05,5.58812971576117e-05
-2.8466820367611945e-05,1.938574860105291e-05,6.021800345479278e-06,-1.6974014215520583e-05,5.691846672561951e-05
-3.1265699362847954e-05,2.304592271684669e-05,1.1329368135193363e-05,-1.779848025762476e-05,5.6405329814879224e-05
-3.647748599178158e-05,2.6149029508815147e-05,1.6356574633391574e-05,-1.8145443391404115e-05,5.539480844163336e-05
-4.374992204247974e-05,2.7076295737060718e-05,1.9548493582988158e-05,-1.7467438738094643e-05,5.2757211960852146e-05
-4.838449967792258e-05,2.5499473849777132e-05,1.9171879102941602e-05,-1.5761310351081192e-05,5.089804108138196e-05
-4.596987855620682e-05,2.6188248739345e-05,1.6917370885494165e-05,-1.350503953290172e-05,5.259382305666804e-05
-4.3916083086514845e-05,2.9659900974365883e-05,1.7151756765088066e-05,-1.0162104445043951e-05,5.809725553262979e-05
-4.852629353990778e-05,3.1628311262466013e-05,1.9091694412054494e-05,-8.443569640803616e-06,6.347379530780017e-05
-5.649067315971479e-05,2.9608019758597948e-05,1.6128504285006784e-05,-8.702203558641486e-06,6.489228690043092e-05
-6.344432040350512e-05,2.602665153972339e-05,5.161204626347171e-06,-8.863873517839238e-06,6.31987422821112e-05
-5.916398004046641e-05,2.5623705369071104e-05,-9.178370419249404e-06,-8.379254722967744e-06,6.295315688475966e-05
-3.5345972719369456e-05,2.7824196877190843e-05,-1.5376683222712018e-05,-9.717658031149767e-06,6.640327774221078e-05
-1.7371995681969565e-06,2.5931534764822572e-05,-1.027606958814431e-05,-1.0675292287487537e-05,7.002400525379926e-05
2.258260064991191e-05,2.2790431103203446e-05,-5.873465269701228e-08,-1.1816496225947049e-05,7.25936479284428e-05
2.56076982623199e-05,2.4798360755085014e-05,8.999984856927767e-06,-1.6254454749287106e-05,7.17017610440962e-05
1.1139945854665712e-05,3.1152390874922276e-05,1.5140339201025199e-05,-2.0300059986766428e-05,7.04340054653585e-05
-9.387629802404263e-07,3.7433579564094543e-05,2.237195622001309e-05,-2.0520494217635132e-05,7.157063373597339e-05
-5.5177124522742815e-06,4.088412242708728e-05,3.0591610993724316e-05,-1.6608008081675507e-05,7.166597060859203e-05
-8.677014193381183e-06,3.976218795287423e-05,3.7996269384166226e-05,-1.6940943169174716e-05,7.011440902715549e-05
-1.7144149751402438e-05,3.7147769035073e-05,4.544118564808741e-05,-1.93257237697253e-05,6.847916665719822e-05
-2.8641596145462245e-05,3.541499609127641e-05,4.811697363038547e-05,-1.5662300938856788e-05,6.42707382212393e-05
-3.4749846236081794e-05,3.0595841963076964e-05,4.331895615905523e-05,-1.291410626436118e-05,5.7411252782912925e-05
-4.038415863760747e-05,2.5285875381086953e-05,3.444699541432783e-05,-1.5352883565356024e-05,5.446690192911774e-05
-5.038261951995082e-05,2.5577222913852893e-05,2.5923667635652237e-05,-1.7605994798941538e-05,5.727188545279205e-05
-5.474154750118032e-05,3.163780638715252e-05,2.0871262677246705e-05,-1.537137541163247e-05,6.028017378412187e-05
-4.59502189187333e-05,3.605275560403243e-05,1.6579992006882094e-05,-1.4250374078983441e-05,6.327992014121264e-05
-2.8379674404277466e-05,3.759577157325111e-05,9.361193406220991e-06,-1.4809150343353394e-05,6.349671457428485e-05
-1.4067290067032445e-05,3.9553306123707443e-05,3.670590558613185e-06,-1.0809596460603643e-05,6.246182601898909e-05
-1.0195365575782489e-05,4.343416367191821e-05,1.452365609111439e-06,-3.8187286008906085e-06,5.997130210744217e-05
-1.4297064808488358e-05,4.4443851948017254e-05,-1.7812060377764283e-06,-1.8174215483668377e-06,5.904965291847475e-05
-1.973400685528759e-05,4.171914406470023e-05,-7.458079835487297e-06,-4.5397064241115e-06,5.916324153076857e-05
-2.136714647349436e-05,3.929023660020903e-05,-1.2432959920261055e-05,-5.612883796857204e-06,5.832948227180168e-05
-1.705111935734749e-05,4.040996282128617e-05,-1.1333315342199057e-05,-4.742162218462909e-06,5.757738108513877e-05
-1.0857942470465787e-05,4.272764272172935e-05,-5.0030571401293855e-06,-3.1707963898952585e-06,5.4293668654281646e-05
-7.852834642108064e-06,4.3005704355891794e-05,8.114977845252724e-07,-3.57209910362144e-06,5.133383456268348e-05
-1.0156901225855108e-05,4.176763104624115e-05,9.635890592107899e-07,-5.2369114200701006e-06,5.340826101019047e-05
-1.848941610660404e-05,3.7418954889290035e-05,-3.257253865740495e-06,-7.426461252180161e-06,5.820547085022554e-05
-2.7302850867272355e-05,3.0337039788719267e-05,-6.52081780572189e-06,-7.231319614220411e-06,5.843349572387524e-05
-3.3154719858430326e-05,2.4211181880673394e-05,-4.466452082851902e-06,-5.272869202599395e-06,5.6365399359492585e-05
-4.0486975194653496e-05,2.1299189029377885e-05,2.114616108883638e-06,-7.578892564197304e-06,5.618156137643382e-05
-5.48981006431859e-05,2.134232454409357e-05,1.1314537914586253e-05,-1.1140166861878242e-05,5.594800677499734e-05
-6.77806165185757e-05,2.545894130889792e-05,1.8098129658028483e-05,-1.1450341844465584e-05,5.3004016081104055e-05
-7.017101597739384e-05,3.2085063139675185e-05,1.627287747396622e-05,-1.1636076123977546e-05,5.198248254600912e-05
-6.712864706059918e-05,4.0351467760046944e-05,8.388718015339691e-06,-1.073628300218843e-05,5.16751388204284e-05
-6.769232277292758e-05,4.827075099456124e-05,1.0070425560115837e-06,-6.862391728645889e-06,5.098356632515788e-05
-7.47683152440004e-05,5.244997009867802e-05,-2.7387345653551165e-06,-6.600338565476704e-06,4.9814905651146546e-05
-8.250470273196697e-05,4.9147787649417296e-05,-1.8226122620035312e-06,-8.566537871956825e-06,4.813553096028045e-05
-8.630674710730091e-05,4.163399717072025e-05,7.173343306021707e-07,-3.8367484194168355e-06,5.204208355280571e-05
-8.035550854401663e-05,2.9425336833810434e-05,-7.612665058331913e-07,6.7883405563407e-07,5.954750668024644e-05
-6.332390330499038e-05,2.0916753783239983e-05,-1.613033418834675e-06,-2.9760025199720985e-07,6.676223711110651e-05
-3.629161074059084e-05,2.3930624593049288e-05,1.774004772414628e-06,-3.972307695221389e-06,7.369140803348273e-05
2.828403921739664e-06,1.9878421881003305e-05,4.781109510076931e-06,-5.5400141718564555e-06,7.680067210458219e-05
4.637039091903716e-05,4.210087809042307e-06,4.002316927653737e-06,-2.7029325337935006e-06,7.767145871184766e-05
8.114895172184333e-05,6.803425094403792e-07,3.7109227832843317e-06,-1.6291944575641537e-06,7.639246905455366e-05
9.380355913890526e-05,1.664588853600435e-05,4.702635123976506e-06,-4.139130851399386e-06,7.68488462199457e-05
7.970439764903858e-05,3.220500366296619e-05,4.663440449803602e-06,-7.5793341238750145e-06,7.919083145679906e-05
4.678180266637355e-05,3.2570063922321424e-05,2.6851405436900677e-06,-7.97752545622643e-06,8.075466030277312e-05
1.560134842293337e-05,2.6337556846556254e-05,2.0119064174650703e-06,-8.570688805775717e-06,7.806102075846866e-05
-2.0249995031917933e-06,2.436670911265537e-05,1.7424428051526775e-06,-1.1204891052329913e-05,7.184281275840476e-05
-7.631433618371375e-06,2.494289401511196e-05,-3.7831242138963717e-07,-1.3190006939112209e-05,6.922498141648248e-05
-1.1284284482826479e-05,2.6742640329757705e-05,-1.5296678839149536e-06,-1.2384127330733463e-05,6.772400956833735e-05
-1.7140706404461525e-05,2.9405806344584562e-05,-2.0267117406547186e-07,-8.290855475934222e-06,6.549767567776144e-05
-2.1955625925329514e-05,2.9194881790317595e-05,4.3412705963419285e-07,-4.096596967428923e-06,6.533601845148951e-05
-2.7403853891883045e-05,2.7149068046128377e-05,-2.874807933039847e-06,-2.9930556593171787e-06,6.643609231105074e-05
-3.208257112419233e-05,3.053022737731226e-05,-5.810876700707013e-06,-4.325052032072563e-06,6.630788993788883e-05
-3.2824656955199316e-05,3.657224078779109e-05,-4.850959612667793e-06,-6.881114131829236e-06,6.487072096206248e-05
-3.162813663948327e-05,3.57448443537578e-05,-3.776098310481757e-06,-9.27800647332333e-06,6.151814886834472e-05
-3.357922469149344e-05,2.9882010494475253e-05,-5.748124294768786e-06,-8.18388070911169e-06,5.734549995395355e-05
-3.8072150346124545e-05,2.7932439479627647e-05,-6.6046518440998625e-06,-5.881524884898681e-06,5.270244218991138e-05
-4.398701275931671e-05,3.1650550226913765e-05,-7.413958883262239e-06,-5.130011686560465e-06,5.130872887093574e-05
-4.6720691898372024e-05,3.6264536902308464e-05,-6.250767455640016e-06,-5.245268766884692e-06,5.1726896344916895e-05
-4.125624764128588e-05,3.9420159737346694e-05,-2.322552063560579e-06,-8.132701623253524e-06,5.414416955318302e-05
-3.414425009395927e-05,3.4775752283167094e-05,1.6844963965922943e-06,-1.329774022451602e-05,5.302397403283976e-05
-3.54271505784709e-05,2.451650652801618e-05,6.5991202973236796e-06,-1.587871156516485e-05,5.0094007747247815e-05
-3.7993169826222584e-05,1.971162055269815e-05,8.540522685507312e-06,-1.48693270602962e-05,5.2226620027795434e-05
-3.834800372715108e-05,1.6719561244826764e-05,5.560261797654675e-06,-1.338757010671543e-05,5.428644362837076e-05
-4.259528577676974e-05,1.7420017684344202e-05,1.7716705542625277e-06,-1.2717091522063129e-05,5.388245699577965e-05
-4.960525984643027e-05,1.6998219507513568e-05,5.602333885690314e-07,-1.5509176591876894e-05,5.114946543471888e-05
-5.873055852134712e-05,1.0551253581070341e-05,2.2140327473607613e-06,-1.717942905088421e-05,5.068257814855315e-05
-6.00931525696069e-05,7.162659585446818e-06,3.1679594485467533e-06,-1.2922597306896932e-05,5.249647801974788e-05
-4.7352194087579846e-05,1.3187497643230017e-05,6.979345926083624e-06,-7.873298272897955e-06,5.287878229864873e-05
-3.329204992041923e-05,2.1258909328025766e-05,1.2802868695871439e-05,-5.30245597474277e-06,5.160432556294836e-05
-2.8730981284752488e-05,2.172930726374034e-05,1.2271209016034845e-05,-3.3475778309366433e-06,5.296782546793111e-05
-3.281630779383704e-05,1.4789289707550779e-05,6.2962703850644175e-06,-1.3721179357162328e-06,5.553619484999217e-05
-3.4401393349980935e-05,9.913861504173838e-06,1.2515093885667739e-06,1.5287091059690283e-07,5.572579175350256e-05
-2.8405687771737576e-05,1.401154077029787e-05,1.9120011529594194e-06,1.056302608049009e-06,5.278032040223479e-05
-2.42063633777434e-05,2.1357260266086087e-05,9.427131772099528e-06,-2.277508031056641e-07,5.1871476898668334e-05
-2.7285661417408846e-05,2.729262450884562e-05,1.8893959349952638e-05,-1.6234631630140939e-06,5.4762695071985945e-05
-2.8179978471598588e-05,2.9197610274422914e-05,2.4705121177248657e-05,-2.2381259441317525e-06,5.858037548023276e-05
-2.5299625121988356e-05,2.663147279236e-05,2.8821803425671533e-05,-4.8147271627385635e-06,6.170526467030868e-05
-2.4431670681224205e-05,2.371920163568575e-05,3.3863820135593414e-05,-8.268006240541581e-06,5.979491470498033e-05
-2.465687612129841e-05,2.4578015654697083e-05,3.749921597773209e-05,-7.925479621917475e-06,5.440436871140264e-05
-2.555036189733073e-05,2.8067195671610534e-05,3.765930523513816e-05,-6.313418452918995e-06,5.0785867642844096e-05
-2.852356556104496e-05,3.10959221678786e-05,3.541841942933388e-05,-5.9723852245952e-06,4.99277412018273e-05
-3.0272642106865533e-05,2.9185403036535718e-05,3.1704588764114305e-05,-6.3667880567663815e-06,4.9090322136180475e-05
-2.4433589715044945e-05,2.4715282052056864e-05,2.5464623831794597e-05,-9.077989489014726e-06,4.801751492777839e-05
-1.5145819816098083e-05,2.0565401428029872e-05,1.8642504073795862e-05,-1.0634488717187196e-05,4.788989099324681e-05
-1.3908205801271833e-05,1.7448001017328352e-05,1.7458069123676978e-05,-7.514918252127245e-06,5.214732664171606e-05
-1.853328649303876e-05,1.862901626736857e-05,1.8821276171365753e-05,-7.900475793576334e-06,5.7559034758014604e-05
-1.9330724171595648e-05,2.5492308850516565e-05,1.5659144992241636e-05,-1.224324296345003e-05,5.539870835491456e-05
-1.8115037164534442e-05,2.8211750759510323e-05,1.1193031241418794e-05,-1.4297133930085693e-05,4.58161739516072e-05
-2.0618195776478387e-05,2.342049265280366e-05,8.763558071223088e-06,-1.5379797332570888e-05,4.178432573098689e-05
-1.8836990420822985e-05,2.0646326447604224e-05,9.77645322564058e-06,-1.4131157513475046e-05,4.222268398734741e-05
-1.3576863238995429e-05,2.4079707145574503e-05,1.1550949238881003e-05,-1.3828863302478567e-05,4.506351251620799e-05
-1.9555483959265985e-05,3.29279646393843e-05,1.0953474884445313e-05,-1.1600471225392539e-05,5.375779437599704e-05
-3.275456037954427e-05,3.6439199902815744e-05,1.0751259651442524e-05,-1.0408935850136913e-05,5.906545993639156e-05
-3.981138797826134e-05,3.703584661707282e-05,9.806633897824213e-06,-1.4192478374752682e-05,5.858625809196383e-05
-3.638149792095646e-05,4.129438821109943e-05,6.828045570728136e-06,-1.8409498807159252e-05,5.606102786259726e-05
-2.9817969334544614e-05,4.257225009496324e-05,2.7227163172938162e-06,-2.164271609217394e-05,5.5011274525895715e-05
-1.9576395061449148e-05,4.0568585973232985e-05,3.0981154850451276e-06,-1.9681710909935646e-05,5.678415618604049e-05
-1.088791850634152e-05,3.771064439206384e-05,6.049532657925738e-06,-1.7796894098864868e-05,5.982410948490724e-05
-1.0741630831034854e-05,3.630663195508532e-05,6.7398791543382686e-06,-1.8762677427730523e-05,6.10461356700398e-05
-1.458448878111085e-05,3.537005977705121e-05,4.072363026352832e-06,-1.9116707335342653e-05,6.020030923536979e-05
-2.0623088857973926e-05,3.721244866028428e-05,1.3054792589173303e-06,-1.3236878658062778e-05,5.811785376863554e-05
-2.6389210688648745e-05,4.0406906919088215e-05,-2.399960692400782e-07,-7.163767804740928e-06,5.701169357053004e-05
-2.8008780645905063e-05,4.27594713983126e-05,-5.847748525411589e-07,-8.50840842758771e-06,5.781243817182258e-05
-2.55023296631407e-05,4.588365482049994e-05,5.283983455228736e-07,-1.5458343114005402e-05,6.125741492724046e-05
-2.4106690034386702e-05,4.706988329417072e-05,3.15011607199267e-06,-2.041284278675448e-05,6.174614827614278e-05
-2.513255640224088e-05,4.357577199698426e-05,7.4302838584117126e-06,-1.8983382688020356e-05,5.568810229306109e-05
-2.6038331270683557e-05,3.920339440810494e-05,1.167593745776685e-05,-1.4370129065355286e-05,4.9910962843568996e-05
-2.8636630304390565e-05,3.674348772619851e-05,1.5114049347175751e-05,-1.0337738785892725e-05,4.913398151984438e-05
-3.552105408743955e-05,3.444002504693344e-05,1.791240538295824e-05,-8.048314157349523e-06,5.342589793144725e-05
-4.2270312405889854e-05,3.086162541876547e-05,2.1371290131355636e-05,-8.748452273721341e-06,5.773019074695185e-05
-4.7180248657241464e-05,2.5826126147876494e-05,2.279216641909443e-05,-1.4014451153343543e-05,6.10544448136352e-05
-4.8812820750754327e-05,2.1035772078903392e-05,2.130546090484131e-05,-1.576930117153097e-05,6.158363248687238e-05
-4.8453752242494375e-05,2.2857702788314782e-05,1.945524309121538e-05,-1.2072057870682329e-05,5.976117608952336e-05
-4.7304962208727375e-05,2.7468315238365903e-05,2.041941297648009e-05,-9.597391908755526e-06,6.066885907785036e-05
-3.8986796425888315e-05,2.610763294796925e-05,2.1102128812344745e-05,-1.2152140698162839e-05,6.0854606999782845e-05
-2.9019895009696484e-05,2.3746348233544268e-05,2.0081406546523795e-05,-1.1541203093656804e-05,5.901032636757009e-05
-3.0248787879827432e-05,2.4923283490352333e-05,1.1117143912997562e-05,-9.940474228642415e-06,5.488792521646246e-05
-3.0034010706003755e-05,2.8456372092477977e-05,2.2394976895157015e-06,-1.3312440387380775e-05,5.315828093443997e-05
-2.3992013666429557e-05,2.637498801050242e-05,2.406430667178938e-06,-1.4817610463069286e-05,5.6821176258381456e-05
-2.07113098440459e-05,2.3663033061893657e-05,1.32596539970109e-06,-1.4161767467157915e-05,5.810741276945919e-05
-1.5539586456725374e-05,2.6722465918282978e-05,-2.419957581878407e-06,-1.350045386061538e-05,5.776968100690283e-05
-1.3192830010666512e-05,3.273006950621493e-05,-4.2334472709626425e-06,-1.3819859304931015e-05,5.927229722146876e-05
-1.4972129065426998e-05,3.336874215165153e-05,-5.1133915803802665e-06,-1.5820181943126954e-05,6.240634684218094e-05
-1.8511615053284913e-05,3.1328308978118e-05,-5.2376008170540445e-06,-1.4864574950479437e-05,6.558332097483799e-05
-1.8728933355305344e-05,2.892395968956407e-05,-6.931972620805027e-06,-1.2266757948964369e-05,6.539743480971083e-05
-1.7039124941220507e-05,2.6261557650286704e-05,-1.2323273949732538e-05,-9.02030024008127e-06,6.299860979197547e-05
-1.7306047084275633e-05,2.3455875634681433e-05,-1.6149077055160888e-05,-7.001778158155503e-06,6.231895531527698e-05
-1.7174390450236388e-05,2.3819155103410594e-05,-1.7818638298194855e-05,-9.773932106327266e-06,6.328865856630728e-05
-1.5225153219944332e-05,2.7697862606146373e-05,-1.7801246940507554e-05,-1.4396356164070312e-05,6.378648686222732e-05
-1.2696996236627456e-05,2.7802938348031603e-05,-1.8904693206422962e-05,-1.7107187886722386e-05,6.227597623365e-05
-1.0380877029092517e-05,2.3024056645226665e-05,-2.149142346752342e-05,-1.794562194845639e-05,6.0868103901157156e-05
-8.589390745328274e-06,1.5739387890789658e-05,-2.105508428940084e-05,-1.7545686205266975e-05,6.0334070440148935e-05
-9.307177606387995e-06,1.418554711563047e-05,-1.6055979358498007e-05,-1.628573409107048e-05,6.245774420676753e-05
-1.3488114745996427e-05,1.818874807213433e-05,-9.249180948245339e-06,-1.4115219528321177e-05,6.56888005323708e-05
-2.2091744540375657e-05,2.167105776607059e-05,-1.7358826198687893e-06,-1.0107826710736845e-05,6.606294482480735e-05
-2.9572483981610276e-05,2.614358345454093e-05,5.199350653128931e-06,-7.556634045613464e-06,6.376679084496573e-05
-3.142485729767941e-05,3.1394327379530296e-05,9.632554792915471e-06,-8.942063686845358e-06,6.459410360548645e-05
-3.0258408514782786e-05,3.281069075455889e-05,8.934449397202116e-06,-9.834027878241614e-06,7.075603207340464e-05
-3.160998676321469e-05,3.3043339499272406e-05,5.373173280531773e-06,-7.402454684779514e-06,7.543594256276265e-05
-2.6332612833357416e-05,3.337546149850823e-05,4.269248165655881e-06,-8.710652764420956e-06,7.405519136227667e-05
-1.7335893062409014e-05,3.3094816899392754e-05,2.573296114860568e-06,-1.3731300896324683e-05,7.430676487274468e-05
-1.8361726688453928e-05,3.0693874577991664e-05,-1.5724316426712903e-06,-1.4701636246172711e-05,7.906190876383334e-05
-2.6368110411567613e-05,2.411005880276207e-05,-2.112709807988722e-06,-1.0338203537685331e-05,8.019783126655966e-05
-3.482943066046573e-05,1.3479422705131583e-05,2.686597611045727e-07,-7.26817779650446e-06,8.181489101843908e-05
-3.725943679455668e-05,1.4779249795537908e-05,2.2937776975595625e-06,-7.315707534871763e-06,8.604066533735022e-05
-2.6103105483343825e-05,2.3870368750067428e-05,6.023565674695419e-06,-8.14222585177049e-06,8.76820195117034e-05
-1.1519456393216387e-06,3.360526170581579e-05,7.236352303152671e-06,-7.051939064695034e-06,8.746924868319184e-05
2.1381183614721522e-05,4.092887320439331e-05,6.930597464815946e-06,-4.839273969992064e-06,8.349248673766851e-05
2.667565604497213e-05,3.924084376194514e-05,8.81667438079603e-06,-5.252207301964518e-06,7.734170503681526e-05
1.7622956875129603e-05,3.0532359232893214e-05,1.3491159734257963e-05,-8.983274710772093e-06,7.457021274603903e-05
5.195105586608406e-06,2.528715594962705e-05,1.5722653188277036e-05,-1.06969218904851e-05,7.084388198563829e-05
-3.976066182076465e-06,2.5949166229111142e-05,1.2809417967218906e-05,-7.530603397754021e-06,6.788166501792148e-05
-8.946535672293976e-06,2.4661736460984685e-05,1.0355368431191891e-05,-4.564648861560272e-06,6.591922283405438e-05
-1.315762256126618e-05,2.4230010239989497e-05,1.1392913620511536e-05,-3.610013209254248e-06,6.288101576501504e-05
-1.965715091500897e-05,2.9684895707760006e-05,1.3609096640720963e-05,-4.5240572035254445e-06,5.9689031331799924e-05
-2.7343870897311717e-05,3.853626913041808e-05,1.8674147213459946e-05,-5.689175850420725e-06,5.914721987210214e-05
-3.482558895484544e-05,4.170079409959726e-05,2.666623367986176e-05,-6.581594789167866e-06,6.0022695834049955e-05
-4.3603282392723486e-05,3.59153127647005e-05,3.085024582105689e-05,-5.933698048465885e-06,6.049871808500029e-05
-4.963185710948892e-05,2.470820072630886e-05,2.8137659683125094e-05,-4.202703621558612e-06,6.0695343563565984e-05
-4.3553496652748436e-05,2.109393972204998e-05,2.308992225152906e-05,-1.317945248047181e-06,6.048891009413637e-05
-2.3747783416183665e-05,2.41380839725025e-05,2.0463816326810047e-05,2.0735494672408095e-06,6.15485550952144e-05
1.190364400827093e-06,2.5362805899931118e-05,1.8725517293205485e-05,3.651640327007044e-06,6.348076567519456e-05
1.8640392227098346e-05,2.4442242647637613e-05,1.724731919239275e-05,3.3526621336932294e-06,6.227265839697793e-05
2.1474605091498233e-05,2.1806654331157915e-05,1.6900257833185606e-05,1.1687445748975733e-06,5.553152004722506e-05
1.1815542166004889e-05,1.774018892319873e-05,1.6614625565125607e-05,-2.366995431657415e-06,4.9896552809514105e-05
-3.1269362352759345e-06,1.9225513824494556e-05,1.5731488019810058e-05,-4.63394781036186e-06,4.7359062591567636e-05
-1.4946484043321107e-05,2.5378292775712907e-05,1.0926391951215919e-05,-4.145932052779244e-06,4.6754026698181406e-05
-2.0235123884049244e-05,2.8113669031881727e-05,5.601683369604871e-06,-4.5558231249742676e-06,4.782589167007245e-05
-2.2118392735137604e-05,2.73740261036437e-05,6.361962277878774e-06,-8.263750714831986e-06,4.902263390249573e-05
-2.4402655981248245e-05,2.792023224174045e-05,6.954666332603665e-06,-1.1337506293784827e-05,5.148895797901787e-05
-2.7504933314048685e-05,2.6487947252462618e-05,4.436914878169773e-06,-9.518980732536875e-06,5.318234980222769e-05
-2.846049210347701e-05,2.9352913770708255e-05,-4.847473974223249e-06,-1.0381698302808218e-05,5.3104351536603644e-05
-2.9496643037418835e-05,3.916622154065408e-05,-1.3616254364023916e-05,-1.4134814591670875e-05,5.3074440074851736e-05
-3.30484144797083e-05,4.4179821998113766e-05,-1.985782728297636e-05,-9.390845661982894e-06,5.366816185414791e-05
-3.712656325660646e-05,4.11555047321599e-05,-2.5608069336158223e-05,-2.4613839286757866e-06,5.623258766718209e-05
-4.1121722460957244e-05,3.386870594113134e-05,-2.7013345970772207e-05,-1.9530639292497654e-06,5.622862227028236e-05
-4.88493824377656e-05,2.839098306139931e-05,-2.220813803432975e-05,-6.790062798245344e-06,5.365280230762437e-05
-5.74209880142007e-05,2.7624553695204668e-05,-1.3015825061302166e-05,-1.4458193618338555e-05,5.032955959904939e-05
-5.897200389881618e-05,2.8222319087944925e-05,-5.09908113599522e-06,-1.7815707906265743e-05,5.046921069151722e-05
-5.122106449562125e-05,2.6492922188481316e-05,7.492244549212046e-07,-1.728739880491048e-05,5.428915028460324e-05
-3.527798980940133e-05,2.383009996265173e-05,1.5842906577745453e-06,-1.6425376088591293e-05,5.9812056861119345e-05
-1.9516794054652564e-05,2.525467971281614e-05,2.4422420210612472e-06,-1.5715690096840262e-05,6.457755080191419e-05
-1.1547721442184411e-05,3.0058607080718502e-05,4.904824891127646e-06,-1.2154544492659625e-05,6.509071681648493e-05
-8.988882655103225e-06,3.35298063873779e-05,3.7311854157451307e-06,-8.220178642659448e-06,6.201153883012012e-05
-1.0444763574923854e-05,3.114789797109552e-05,-2.2620415620622225e-06,-8.844409421726596e-06,6.0006335843354464e-05
-1.8860773707274348e-05,2.1603356799460016e-05,-5.997416337777395e-06,-1.2159573998360429e-05,5.931681880610995e-05
-2.882791704905685e-05,1.5161575902311597e-05,-6.970407866901951e-06,-1.5260111467796378e-05,5.847662396263331e-05
-3.300715616205707e-05,2.342358129681088e-05,-8.721245649212506e-06,-1.580241041665431e-05,5.768369373981841e-05
-3.134343205601908e-05,4.057081969222054e-05,-1.1941396223846823e-05,-1.1743743016268127e-05,5.645298006129451e-05
-3.156137609039433e-05,4.948983041686006e-05,-1.4411338270292617e-05,-6.074394150346052e-06,5.779887214885093e-05
-3.377912798896432e-05,4.501355942920782e-05,-1.6618143490632065e-05,-6.0789857343479525e-06,5.919012619415298e-05
-3.548337917891331e-05,3.502040635794401e-05,-1.7297932572546415e-05,-8.311475539812818e-06,6.134209252195433e-05
-3.490838935249485e-05,2.806652082654182e-05,-1.1963297765760217e-05,-9.786691407498438e-06,6.233649764908478e-05
-2.839334774762392e-05,2.3989085093489848e-05,-3.674210802273592e-06,-1.2276675988687202e-05,5.756763493991457e-05
-2.7089576178696007e-05,9.967858204618096e-06,2.5278125121985795e-06,-1.2552510270325001e-05,5.133187733008526e-05
-3.59449622919783e-05,-1.1118837392132264e-05,7.703427399974316e-06,-1.0578684850770514e-05,4.9910126108443365e-05
-5.2409301133593544e-05,-4.354740667622536e-06,1.450378022127552e-05,-7.5022958299086895e-06,5.287023668643087e-05
-6.427384505514055e-05,2.175460394937545e-05,1.91005201486405e-05,-6.5166418607987e-06,5.740932101616636e-05
-6.406526517821476e-05,3.69126682926435e-05,2.209500416938681e-05,-6.9094203354325145e-06,5.880332537344657e-05
-5.5127031373558566e-05,4.1391263948753476e-05,2.3518985472037457e-05,-9.237876838597003e-06,6.058693543309346e-05
-3.991228004451841e-05,4.152793189859949e-05,2.5066510715987533e-05,-7.577076758025214e-06,6.408921763068065e-05
-2.833626786014065e-05,4.3007730710087344e-05,2.6708583391155116e-05,-2.313934828634956e-06,6.566823867615312e-05
-2.615193443489261e-05,4.5897737436462194e-05,2.424525337119121e-05,-6.690395366604207e-06,6.57976052025333e-05
-3.1985968234948814e-05,4.178173912805505e-05,1.6768379282439128e-05,-1.4447893590840977e-05,6.0709327954100445e-05
-3.366201417520642e-05,2.9848504709661938e-05,1.1526042726472951e-05,-1.8427008399157785e-05,5.480596155393869e-05
-3.1346218747785315e-05,1.5492860256927088e-05,1.0826116522366647e-05,-1.6125133697642013e-05,5.526969471247867e-05
-3.195309909642674e-05,1.897433548947447e-06,1.0696477147575933e-05,-1.6501393474754877e-05,5.7620327424956486e-05
-3.404812014196068e-05,9.247347776408787e-08,1.2035508916596882e-05,-2.027385744440835e-05,5.7102741266135126e-05
-3.0129534934530966e-05,1.5042623090266716e-05,1.6122083252412267e-05,-2.106209831254091e-05,5.576575858867727e-05
-2.1081592421978712e-05,3.180382555001415e-05,1.885477831820026e-05,-1.877870636235457e-05,5.428906297311187e-05
-1.6738506019464694e-05,3.630471110227518e-05,1.4515718248730991e-05,-1.6821328244986944e-05,5.235863136476837e-05
-1.742965105222538e-05,3.096184445894323e-05,4.347008143668063e-06,-1.5936773706926033e-05,5.227750807534903e-05
-1.6849220628500916e-05,2.488593054295052e-05,-4.567204541672254e-06,-1.4539817129843868e-05,5.3744923206977546e-05
-1.1414488653826993e-05,2.3870112272561528e-05,-6.6129550759796984e-06,-1.4830272448307369e-05,5.374923057388514e-05
-3.0693906865053577e-06,2.956831485789735e-05,-3.434601921981084e-06,-1.7103471691370942e-05,5.011330722481944e-05
7.434372264469857e-07,3.334688881295733e-05,2.9938897228021233e-07,-1.931979386426974e-05,4.533838000497781e-05
-1.3957693454358377e-06,2.869314448616933e-05,4.508122856350383e-06,-1.7520915207569487e-05,4.369048838270828e-05
-3.6421595268620877e-06,2.614278309920337e-05,9.876394869934302e-06,-1.5928304492263123e-05,4.620750405592844e-05
-8.62031720316736e-06,2.8334578018984757e-05,1.2017093467875384e-05,-1.8193120922660455e-05,5.184228211874142e-05
-1.4775494491914287e-05,3.0890401831129566e-05,1.148699357145233e-05,-2.0663055693148635e-05,5.445499118650332e-05
-1.68537262652535e-05,3.5091718018520623e-05,8.795109351922292e-06,-1.682613219600171e-05,5.3481922805076465e-05
-1.860529118857812e-05,3.974962601205334e-05,8.985098247649148e-06,-1.3328515706234612e-05,5.5151111155282706e-05
-2.2160740627441555e-05,4.1840125049930066e-05,9.462291927775368e-06,-1.6374504411942326e-05,5.990619320073165e-05
-2.2716718376614153e-05,3.847130210488103e-05,3.4775353014993016e-06,-2.0459321603993885e-05,6.169046537252143e-05
-2.4480052161379717e-05,2.612032403703779e-05,-2.543893970141653e-06,-2.175808731408324e-05,5.773072552983649e-05
-2.5778213966987096e-05,1.2948304174642544e-05,-4.620034360414138e-06,-1.9762992451433092e-05,5.2733332267962396e-05
-2.872211734938901e-05,1.104779676097678e-05,-1.9343265194038395e-06,-1.6937105101533234e-05,5.044264253228903e-05
-3.261313395341858e-05,2.2485688532469794e-05,1.5809449678272358e-06,-1.6197942386497743e-05,5.023109042667784e-05
-3.648859274107963e-05,3.1699761166237295e-05,2.829181084962329e-06,-1.6772213712101802e-05,4.991452078684233e-05
-4.8882309783948585e-05,3.092968836426735e-05,3.889953859470552e-06,-1.761972816893831e-05,4.924241511616856e-05
-6.439659773604944e-05,2.9442931918310933e-05,4.821943548449781e-06,-1.736228477966506e-05,4.6132379793561995e-05
-7.041741628199816e-05,2.575648613856174e-05,5.788182988908375e-06,-1.5963081750669517e-05,4.4557931687450036e-05
-6.216935435077175e-05,1.7540654880576767e-05,1.1131658538943157e-05,-1.3240566659078468e-05,4.582207839121111e-05
-4.808223820873536e-05,1.4379877029568888e-05,1.8844099031412043e-05,-1.0865045624086633e-05,4.78128858958371e-05
-3.561476478353143e-05,2.2894360881764442e-05,2.2913513021194376e-05,-8.961800631368533e-06,5.1164053729735315e-05
-3.004715654242318e-05,3.588461913750507e-05,2.50667508225888e-05,-7.405021733575268e-06,5.540100755752064e-05
-3.309122985228896e-05,4.507393532549031e-05,2.7852343919221312e-05,-8.038728992687538e-06,5.8108380471821874e-05
-3.781320992857218e-05,4.862234345637262e-05,3.0121351301204413e-05,-9.979628885048442e-06,5.8041470765601844e-05
-3.826965985354036e-05,4.743717727251351e-05,2.913915886892937e-05,-9.800474799703807e-06,5.904668432776816e-05
-3.729372474481352e-05,4.347880894783884e-05,2.4646644305903465e-05,-6.337773811537772e-06,6.073691838537343e-05
-3.784474029089324e-05,4.057971091242507e-05,1.8395070583210327e-05,-3.7585857626254437e-06,6.0527960158651695e-05
-3.682075839606114e-05,4.1996776417363435e-05,1.442083976144204e-05,-3.463301027295529e-06,5.895934737054631e-05
-3.0869210604578257e-05,4.371728209662251e-05,1.7399233911419287e-05,-2.2249821540754056e-06,5.919115574215539e-05
-2.203829717473127e-05,4.200165130896494e-05,2.1599114916170947e-05,5.966136313872994e-07,5.924673314439133e-05
-2.188470352848526e-05,3.818461118498817e-05,1.737939783197362e-05,-3.140643798360543e-07,6.038501669536345e-05
-3.096228465437889e-05,3.265764098614454e-05,8.452218025922775e-06,-3.1427696285390994e-06,5.9999114455422387e-05
-3.518654921208508e-05,3.104861389147118e-05,2.378626049903687e-06,-3.527041485540394e-07,5.7205390476156026e-05
-3.1862251489656046e-05,3.937250949093141e-05,5.234932132225367e-07,4.13589577874518e-06,5.800024518975988e-05
-2.4748960640863515e-05,4.729636202682741e-05,2.3632283046026714e-06,3.3101450753747486e-06,6.344798748614267e-05
-1.850326225394383e-05,4.45017394667957e-05,4.677147444454022e-06,-6.677858550574456e-07,6.324812420643866e-05
-1.8919565263786353e-05,3.9376700442517176e-05,2.2372560124495067e-06,-4.062814241478918e-06,5.8998706663260236e-05
-1.908271042339038e-05,3.583548459573649e-05,-1.348605678685999e-06,-6.090694569138577e-06,5.899679672438651e-05
-1.470695042371517e-05,3.348605241626501e-05,-3.495720420687576e-06,-6.986086646065814e-06,5.8576879382599145e-05
-1.5272087694029324e-05,3.324484350741841e-05,-6.9137345235503744e-06,-9.96433573163813e-06,5.716144369216636e-05
-2.0419933207449503e-05,3.228697823942639e-05,-1.0903649126703385e-05,-1.2833063010475598e-05,5.5178621551021934e-05
-2.0878922441625036e-05,3.091172402491793e-05,-1.5413037544931285e-05,-1.3840033716405742e-05,5.8300644013797864e-05
-1.135089678427903e-05,3.0959014111431316e-05,-1.9677343516377732e-05,-1.4636956620961428e-05,6.443855090765283e-05
2.0236504951753886e-06,3.0260558560257778e-05,-2.268915341119282e-05,-1.144398447650019e-05,6.859328277641907e-05
1.1117705980723258e-05,2.5595587430871092e-05,-2.2155996703077108e-05,-6.40437929178006e-06,6.948158261366189e-05
1.1781835382862482e-05,2.1255867977743037e-05,-1.8541068129707128e-05,-2.102373628076748e-06,6.983774073887616e-05
9.822769243328366e-06,2.2222457118914463e-05,-1.3339998076844495e-05,-3.4032242979264993e-07,6.952684634597972e-05
6.4325113271479495e-06,2.579059400886763e-05,-1.036145204125205e-05,-1.5253534968451277e-07,6.746668805135414e-05
-1.537861862743739e-06,2.766731267911382e-05,-1.0740734069258906e-05,-2.1191158339206595e-06,6.501054303953424e-05
-1.0909626325883437e-05,2.8561851650010794e-05,-8.971612260211259e-06,-6.287902579060756e-06,6.228360871318728e-05
-2.0725106878671795e-05,2.937866338470485e-05,-2.4482606022502296e-06,-1.0777477655210532e-05,6.252427556319162e-05
-2.8449905585148372e-05,2.9480857847374864e-05,5.8708296819531824e-06,-1.5819321561139077e-05,6.63158280076459e-05
-3.2802367059048265e-05,2.9177836040616967e-05,1.1052576155634597e-05,-1.930635880853515e-05,6.888395000714809e-05
-3.5295786801725626e-05,2.705200677155517e-05,1.1679259841912426e-05,-1.852946479630191e-05,6.728211883455515e-05
-3.564256985555403e-05,2.3375501768896356e-05,8.696677468833514e-06,-1.7624495740165003e-05,6.479175499407575e-05
-3.292793553555384e-05,2.021127875195816e-05,6.150100944068981e-06,-1.9101544239674695e-05,6.331083568511531e-05
-3.239146099076606e-05,1.9761773728532717e-05,4.705440915131476e-06,-1.796711512724869e-05,6.419316923711449e-05
-3.571292108972557e-05,1.7598282283870503e-05,5.594346021098318e-06,-1.6780288206064142e-05,6.381855928339064e-05
-3.8834499719087034e-05,1.238602362718666e-05,1.0005003787227906e-05,-1.800178870325908e-05,5.844255065312609e-05
-3.780388942686841e-05,1.3229248907009605e-05,1.1526492016855627e-05,-1.6329513528035022e-05,5.184257315704599e-05
-3.553514397935942e-05,2.024227796937339e-05,8.998004886962008e-06,-1.1298627214273438e-05,5.085238444735296e-05
-3.2201260182773694e-05,2.690966175578069e-05,8.189057552954182e-06,-9.953893822967075e-06,5.429845259641297e-05
-3.1621329981135204e-05,2.9162290957174264e-05,1.0857924280571751e-05,-1.2179768418718595e-05,5.5933025578269735e-05
-3.15720280923415e-05,3.0894920200807974e-05,1.1546439964149613e-05,-1.0137227945961058e-05,5.55580627406016e-05
-3.147550523863174e-05,3.35549921146594e-05,1.1817334780062083e-05,-6.760916221537627e-06,5.825121479574591e-05
-3.066262070205994e-05,3.323480996186845e-05,1.3285588465805631e-05,-6.608450803469168e-06,6.278517685132101e-05
-2.7969826987828128e-05,2.857230902009178e-05,1.3645044418808538e-05,-8.67574544827221e-06,6.284022674662992e-05
-2.92299209831981e-05,2.5449504391872324e-05,1.3112821761751547e-05,-1.1063638339692261e-05,5.9167592553421855e-05
-3.0623425118392333e-05,3.067919169552624e-05,1.1970545529038645e-05,-7.063697921694256e-06,5.8208112022839487e-05
-3.240920705138706e-05,3.659836147562601e-05,1.0292948900314514e-05,-1.7739041595632443e-06,5.9331159718567505e-05
-3.390277561265975e-05,3.624859164119698e-05,7.431034191540675e-06,-1.7118048845077283e-06,5.999515997245908e-05
-3.5218494303990155e-05,3.231199661968276e-05,5.412343853095081e-06,-7.818734957254492e-06,5.9477115428308025e-05
-3.629562343121506e-05,2.7031141144107096e-05,6.462622877734248e-06,-1.282347602682421e-05,6.018281419528648e-05
-3.916912100976333e-05,2.37744770856807e-05,9.359936484543141e-06,-1.269330005015945e-05,5.941737617831677e-05
-4.548417200567201e-05,2.478757050994318e-05,8.437586075160652e-06,-8.24131984700216e-06,5.736762977903709e-05
-5.432212492451072e-05,2.3823304218240082e-05,4.913692009722581e-06,-2.4085341010504635e-06,5.9483507357072085e-05
-5.985876123304479e-05,1.5144015378609765e-05,2.611286618048325e-06,-1.5538485058641527e-06,6.349229079205543e-05
-5.9851383412024006e-05,4.728698513645213e-06,2.402244490440353e-06,-4.8866545512282755e-06,6.231912993825972e-05
-5.896079892409034e-05,1.3518340438167797e-06,2.2949382127990248e-06,-6.680614660581341e-06,5.676184082403779e-05
-5.5875319958431646e-05,6.0512252275657374e-06,-3.942394926070847e-07,-6.307638159341877e-06,5.391307786339894e-05
-4.9603615480009466e-05,1.3179414963815361e-05,-3.164584768455825e-06,-6.639689672738314e-06,5.3232753998599946e-05
-4.51419509772677e-05,1.7559574189363047e-05,-1.108381411540904e-06,-6.433783255488379e-06,5.302433783072047e-05
-4.434487709659152e-05,1.9424642232479528e-05,3.5347788980288897e-06,-6.306615432549734e-06,5.295705341268331e-05
-3.815082527580671e-05,2.314835728611797e-05,5.326798145688372e-06,-1.0009813195210882e-05,5.475760190165602e-05
-1.9040420738747343e-05,2.782294905046001e-05,6.715732070006197e-06,-1.35640748339938e-05,5.8411711506778374e-05
1.1787450603151228e-05,2.757512811513152e-05,9.610518645786215e-06,-9.730924830364529e-06,6.189779378473759e-05
4.5433462219079956e-05,2.056961238849908e-05,1.2509468433563598e-05,-5.212598807702307e-06,6.154040602268651e-05
6.226699042599648e-05,1.3183313967601862e-05,1.5105778402357828e-05,-3.935590484616114e-06,6.0631871747318655e-05
4.886468741460703e-05,1.176066325569991e-05,1.7605858374736272e-05,-4.414450359035982e-06,5.993267768644728e-05
1.6649806639179587e-05,1.0310094694432337e-05,1.6224130376940593e-05,-4.9015384320227895e-06,5.7883429690264165e-05
-1.2745385902235284e-05,1.3457120076054707e-05,1.0980152183037717e-05,-7.077657755871769e-06,5.595605762209743e-05
-3.23543899867218e-05,2.3879987566033378e-05,9.57892098085722e-06,-6.504264092654921e-06,5.746811075368896e-05
-4.594116398948245e-05,2.9913840990047902e-05,6.347550879581831e-06,-2.936405735454173e-06,6.0456757637439296e-05
-5.4720825573895127e-05,2.490959559509065e-05,2.4840924197633285e-06,1.6501085156050976e-06,6.072969699744135e-05
-5.9485548263182864e-05,1.68144324561581e-05,4.964397248841124e-06,4.802030616701813e-06,5.797516496386379e-05
-4.972753959009424e-05,1.775272176018916e-05,7.737587111478206e-06,2.85347687167814e-06,5.4193133109947667e-05
-2.4804628992569633e-05,2.3035603589960374e-05,7.830124559404794e-06,-1.2223456451465609e-06,5.724306538468227e-05
-4.171316732026753e-07,2.510807644284796e-05,6.628970368183218e-06,-4.8669485295249615e-06,6.315037899184972e-05
1.2236479051352944e-05,2.39898290601559e-05,8.402043931710068e-06,-6.59025590721285e-06,6.435376417357475e-05
1.020729268930154e-05,2.1319903680705465e-05,7.0217938628047705e-06,-7.319554242712911e-06,6.139674223959446e-05
-5.8856053328781854e-06,2.1118241420481354e-05,2.2193457880348433e-06,-6.26938071945915e-06,5.661912655341439e-05
-2.4154040147550404e-05,2.7353471523383632e-05,-1.5920608120723045e-07,-5.766217782365857e-06,5.2923809562344104e-05
-3.0865823646308854e-05,3.611372449086048e-05,8.662701134198869e-07,-7.896417628217023e-06,5.288188185659237e-05
-2.5747907784534618e-05,3.9484679291490465e-05,1.6235877637882368e-06,-1.3091692380839959e-05,5.395941116148606e-05
-9.777859304449521e-06,3.430419019423425e-05,-7.955267733450455e-07,-1.790024180081673e-05,5.620787851512432e-05
1.3206584299041424e-05,2.6280529709765688e-05,-5.184430392546346e-06,-1.99664482352091e-05,6.300444510998204e-05
2.949627560155932e-05,2.2212594558368437e-05,-8.57284976518713e-06,-1.8059259673464112e-05,6.763850979041308e-05
2.6676007109927014e-05,2.4497650883859023e-05,-9.052198947756551e-06,-1.4851688320050016e-05,6.620658678002656e-05
9.337827577837743e-06,3.114884748356417e-05,-7.891047971497755e-06,-1.4098167412157636e-05,6.178667536005378e-05
-6.666643912467407e-06,3.407471740501933e-05,-3.3832143344625365e-06,-1.6996667909552343e-05,5.783669985248707e-05
-1.2549251550808549e-05,3.1508523534284905e-05,1.467027686885558e-06,-1.8653647202881984e-05,5.641159805236384e-05
-1.1799970707215834e-05,2.836397834471427e-05,2.520544740036712e-06,-1.5490302757825702e-05,5.627671998809092e-05
-1.2543314369395375e-05,2.3474360205000266e-05,-5.593353193944495e-07,-1.166759102488868e-05,5.618698560283519e-05
-2.100002529914491e-05,2.22500748350285e-05,-3.6361902857606765e-06,-1.3103187484375667e-05,5.8807960158446804e-05
-3.263246253482066e-05,2.8758326152455993e-05,1.2450741451175418e-06,-1.8270455257152207e-05,6.340553954942152e-05
-4.185111174592748e-05,3.208103225915693e-05,1.2032191079924814e-05,-1.8630429622135125e-05,6.597833998966962e-05
-4.383589111967012e-05,2.8001450118608773e-05,1.7105150618590415e-05,-1.6884194337762892e-05,6.683763058390468e-05
-3.8491452869493514e-05,2.435601709294133e-05,1.8243048543808982e-05,-1.421328397555044e-05,6.677673081867397e-05
-3.467686474323273e-05,2.706140003283508e-05,2.0724870410049334e-05,-1.1365073987690266e-05,6.416688847821206e-05
-3.597857721615583e-05,3.490536619210616e-05,2.131456130882725e-05,-1.0010437108576298e-05,6.436221883632243e-05
-3.8519145164173096e-05,3.852990266750567e-05,1.562644320074469e-05,-9.16095723368926e-06,6.949406088097021e-05
-4.039821942569688e-05,3.5801000194624066e-05,9.761381988937501e-06,-9.079339179152157e-06,7.080195064190775e-05
-3.945831849705428e-05,3.6845205613644794e-05,8.995091775432229e-06,-6.818212114012567e-06,6.721389218000695e-05
-3.736942380783148e-05,3.9254853618331254e-05,7.3512751441739965e-06,-7.419208031933522e-06,6.176658644108102e-05
-3.9984228351386264e-05,3.8273756217677146e-05,7.452855697920313e-06,-1.572485052747652e-05,5.943105497863144e-05
-4.409763641888276e-05,3.780645420192741e-05,1.0894701517827343e-05,-2.2503696527564898e-05,6.081789979361929e-05
-4.432344576343894e-05,3.73906186723616e-05,1.1118313523184042e-05,-2.2511640054290183e-05,6.435306568164378e-05
-4.5054352085571736e-05,3.6731998989125714e-05,6.13271504334989e-06,-2.025634967139922e-05,6.566308002220467e-05
-4.42339078290388e-05,3.916068089893088e-05,-4.4671418208963587e-07,-1.9318908016430214e-05,6.139768083812669e-05
-3.7951311242068186e-05,4.464681842364371e-05,-3.609759232858778e-06,-1.927949779201299e-05,5.5350094044115394e-05
-3.100205503869802e-05,4.879771586274728e-05,-2.8157312499388354e-06,-2.04357311304193e-05,5.3247604228090495e-05
-3.1304189178626984e-05,4.963460742146708e-05,7.54377253997518e-07,-2.1789022866869345e-05,5.659643647959456e-05
-3.846555409836583e-05,4.705257379100658e-05,5.46941373613663e-06,-2.0908450096612796e-05,6.1166581872385e-05
-4.485950557864271e-05,4.1143011912936345e-05,8.94882577995304e-06,-1.8043891031993553e-05,6.137379386927933e-05
-4.709661880042404e-05,3.6010427720611915e-05,7.732167432550341e-06,-1.5252737284754403e-05,5.8724024711409584e-05
-4.416071897139773e-05,3.3314048778265715e-05,4.12983717978932e-06,-1.4154870768834371e-05,5.794884782517329e-05
-4.009175245300867e-05,2.51845322054578e-05,4.303708010411356e-06,-1.3139828297425993e-05,5.5677803175058216e-05
-3.618340997491032e-05,1.646561941015534e-05,7.543209449067945e-06,-1.1169453500770032e-05,5.0253049266757444e-05
-3.418360574869439e-05,2.137492992915213e-05,1.003646229946753e-05,-7.987709068402182e-06,4.4774900743504986e-05
-3.846895560855046e-05,3.0406605219468474e-05,9.150632649834733e-06,-4.382190127216745e-06,4.702871956396848e-05
-4.239839472575113e-05,3.0187738957465626e-05,7.394726708298549e-06,-3.125545390503248e-06,5.416337080532685e-05
-4.1972147300839424e-05,2.88111168629257e-05,5.354205768526299e-06,-4.61528998130234e-06,5.806684566778131e-05
-4.3200969230383635e-05,3.141132401651703e-05,4.15001341025345e-06,-9.76113551587332e-06,5.7137629482895136e-05
-4.6840552386129275e-05,3.34058677253779e-05,6.544232292071683e-06,-1.440247524442384e-05,5.0943257519975305e-05
-4.6090150135569274e-05,3.2875144825084135e-05,6.593711532332236e-06,-1.335875549557386e-05,5.012198016629554e-05
-4.421581616043113e-05,3.021386692125816e-05,4.070620434504235e-06,-9.989388672693167e-06,5.5418440751964226e-05
-4.504921525949612e-05,2.901574225688819e-05,3.0680182590003824e-06,-8.406011147599202e-06,5.8509082009550184e-05
-4.04131060349755e-05,2.9108841772540472e-05,5.247316494205734e-06,-7.510166597057832e-06,5.899277311982587e-05
-3.8613354263361543e-05,3.367711906321347e-05,7.217408892756794e-06,-4.521791652223328e-06,5.7654051488498226e-05
-3.941095928894356e-05,4.072420415468514e-05,1.9152444110659417e-06,-3.153620127704926e-06,5.8329562307335436e-05
-3.550172914401628e-05,4.014473597635515e-05,-9.801935448194854e-06,-4.9763334573071916e-06,6.0297581512713805e-05
-2.6909925509244204e-05,2.8237642254680395e-05,-1.7256103092222475e-05,-6.7700516410695855e-06,6.056090569472872e-05
-1.4503335478366353e-05,1.8822040146915242e-05,-1.3515425052901264e-05,-9.295147719967645e-06,6.037508501322009e-05
-1.9691697161761113e-06,2.496765046089422e-05,-4.686206466431031e-06,-1.3056565876468085e-05,6.248691352084279e-05
4.953795269102557e-06,3.556421506800689e-05,2.8422971354302717e-06,-1.3189937817514874e-05,6.39490463072434e-05
3.343786147524952e-06,4.047900438308716e-05,7.925718819024041e-06,-9.057863280759193e-06,6.220502109499648e-05
-6.279453373281285e-06,3.8537360524060205e-05,1.4607640878239181e-05,-5.6887274695327505e-06,5.9932754084002227e-05
-1.800142490537837e-05,3.2186424505198374e-05,2.345521716051735e-05,-5.985631105431821e-06,6.0167974879732355e-05
-2.415636663499754e-05,2.447059887344949e-05,3.084147465415299e-05,-4.974739113094984e-06,6.024576214258559e-05
-2.229857273050584e-05,1.9215460270061158e-05,3.615277819335461e-05,-2.886039510485716e-06,5.827878339914605e-05
-1.6838615920278244e-05,1.904853525047656e-05,4.012868885183707e-05,-4.011725195596227e-06,5.701580812456086e-05
-1.5274130419129506e-05,2.2222744519240223e-05,3.892386666848324e-05,-7.2338352765655145e-06,6.072805626899935e-05
-1.7915381249622442e-05,2.3193790184450336e-05,3.161899439874105e-05,-9.305791536462493e-06,6.768205639673397e-05
-2.131392466253601e-05,2.0319659597589634e-05,2.3911627067718655e-05,-8.026001523830928e-06,7.154673949116841e-05
-2.3204835088108666e-05,1.7190717699122615e-05,2.0332023268565536e-05,-6.3527695601806045e-06,6.932680844329298e-05
-2.8639000447583385e-05,1.8849035768653266e-05,1.9093273294856772e-05,-6.948131158424076e-06,6.393514922820032e-05
-3.543350248946808e-05,2.6469990189070813e-05,1.695539140200708e-05,-5.4257502597465646e-06,6.178368494147435e-05
-3.714968988788314e-05,3.276832649135031e-05,1.630522820050828e-05,-1.227043981089082e-06,6.383696745615453e-05
-3.4630847949301824e-05,3.3794407499954104e-05,1.6355252228095196e-05,-1.16483772671927e-06,6.726373248966411e-05
-3.266481144237332e-05,3.1190968002192676e-05,1.3415493413049262e-05,-5.8570312830852345e-06,6.703015969833359e-05
-3.3619857276789844e-05,2.545768438722007e-05,7.931363143143244e-06,-1.0271659448335413e-05,6.259460496949032e-05
-3.30445145664271e-05,2.1274816390359774e-05,1.6728206446714466e-06,-1.2178571523691062e-05,5.947363024461083e-05
-2.9545915822382085e-05,2.755724017333705e-05,1.3810321775054035e-07,-1.3351603229239117e-05,6.159635813673958e-05
-2.6607009203871712e-05,3.5371143894735724e-05,1.321837089562905e-06,-1.3163340554456227e-05,6.182830838952214e-05
-2.2157186322147027e-05,3.5990702599519864e-05,-2.1955122520012083e-07,-1.1601040569075849e-05,5.823753235745244e-05
-2.0508929083007388e-05,3.496649151202291e-05,-2.8630740871449234e-06,-1.0931695214821957e-05,5.51818375242874e-05
-2.1027504772064276e-05,3.717992876772769e-05,-5.628950930258725e-06,-8.07225387688959e-06,5.42625566595234e-05
-1.833279566199053e-05,4.3809104681713507e-05,-7.485063179046847e-06,-5.559048986469861e-06,5.448239608085714e-05
-1.6804568076622672e-05,4.810150494449772e-05,-7.099752110661939e-06,-8.822258678264916e-06,5.349458660930395e-05
-1.9959039491368458e-05,4.534990148385987e-05,-3.006944552907953e-06,-9.42458336794516e-06,5.247165245236829e-05
-2.3302152840187773e-05,3.811068017967045e-05,3.038650447706459e-06,-6.3304719333245885e-06,5.254081770544872e-05
-2.623065847728867e-05,3.367980752955191e-05,6.632123586314265e-06,-5.1637266551551875e-06,5.462070112116635e-05
-3.0612929549533874e-05,3.5634118830785155e-05,5.883544872631319e-06,-8.008476470422465e-06,5.861876343260519e-05
-3.444258254603483e-05,3.8002850487828255e-05,4.729199190478539e-06,-1.154718211182626e-05,6.293469050433487e-05
-3.5878809285350144e-05,3.272590402048081e-05,2.188805183322984e-06,-1.4372240912052803e-05,6.393506919266656e-05
-3.2771957194199786e-05,2.441461219859775e-05,-4.292267021810403e-06,-1.5137384252739139e-05,6.205958925420418e-05
-2.489686812623404e-05,2.2331534637487493e-05,-9.170163139060605e-06,-1.4248409570427611e-05,5.8668694691732526e-05
-1.9499697373248637e-05,2.5004957933560945e-05,-6.942655545572052e-06,-1.5046054613776505e-05,5.3006206144345924e-05
-1.8748174625216052e-05,2.7416401280788705e-05,-6.106332648414536e-07,-1.6368188880733214e-05,4.811253529624082e-05
-1.7754067812347785e-05,2.9507626095437445e-05,3.5647979075292824e-06,-1.593479282746557e-05,4.653238283935934e-05
-1.4497735719487537e-05,2.9752896807622164e-05,2.9861209895898355e-06,-1.462008003727533e-05,4.692617949331179e-05
-9.129504178417847e-06,2.7227923055761494e-05,2.4439472667836526e-07,-1.6928919649217278e-05,4.53968059446197e-05
-8.418991455982905e-06,2.513735853426624e-05,5.801713882647164e-07,-2.151100488845259e-05,3.705375638674013e-05
-1.3213754755270202e-05,2.2732365323463455e-05,2.1509531507035717e-06,-2.288554605911486e-05,2.5674775315565057e-05
-1.716317819955293e-05,2.307178874616511e-05,-3.3782223454181803e-06,-1.786201391951181e-05,1.7659143850323744e-05
-1.8631990315043367e-05,2.7092501113656908e-05,-1.382798745908076e-05,-1.0388051123300102e-05,1.2285812772461213e-05
-2.2066813471610658e-05,2.696377305255737e-05,-1.6199846868403256e-05,-6.986268545006169e-06,1.0354319783800747e-05
-2.5719778932398185e-05,2.499607580830343e-05,-1.1977482245129067e-05,-9.405192940903362e-06,1.0450256922922563e-05
-3.204748281859793e-05,2.090244561259169e-05,-9.614765076548792e-06,-8.351901669811923e-06,9.817736099648755e-06
-3.7950485420878977e-05,1.4296381777967326e-05,-5.585476174019277e-06,-3.013357400050154e-06,1.0220626791124232e-05
-3.1546638638246804e-05,1.0933948033198249e-05,1.0696489880501758e-06,-2.6826073735719547e-06,1.2301955393922981e-05
-1.9987535779364407e-05,9.516836144030094e-06,9.016782314574812e-06,-8.622645509603899e-06,1.5329362213378772e-05
-9.603979378880467e-06,1.2290606719034258e-05,1.4820832802797668e-05,-1.527298809378408e-05,1.8390759578323923e-05
-5.11434245709097e-06,1.9875333236996084e-05,1.751485251588747e-05,-1.5564170098514296e-05,1.965866977116093e-05
-8.741195415495895e-06,3.008966268680524e-05,2.037402919086162e-05,-1.1345890925440472e-05,2.233523628092371e-05
-1.4884974916640203e-05,3.4952765417983755e-05,2.1524618205148727e-05,-9.668660823081154e-06,2.709978616621811e-05
-2.114505878125783e-05,3.401219873921946e-05,1.9762928786803968e-05,-9.403741387359332e-06,2.9850571081624366e-05
-2.400934863544535e-05,2.9938069928903133e-05,1.2726583008770831e-05,-6.471985670941649e-06,2.9860579161322676e-05
-2.3562039132229984e-05,2.899633727793116e-05,3.1833540106163127e-06,-4.4697289922623895e-06,3.016768278030213e-05
-2.1261888832668774e-05,3.1752086215419695e-05,-4.755175723403227e-06,-5.558168140851194e-06,3.32079034706112e-05
-2.0392191800056025e-05,3.194711098331027e-05,-7.902547622506972e-06,-5.588344720308669e-06,3.7291036278475076e-05
-1.954908475454431e-05,2.790126745821908e-05,-4.957260898663662e-06,-5.302177214616677e-06,3.995108272647485e-05
-1.8458858903613873e-05,2.076004966511391e-05,2.1990585992170963e-06,-5.978365152259357e-06,4.097334749531001e-05
-2.0367922843433917e-05,1.4957745406718459e-05,9.11908682610374e-06,-6.214720542629948e-06,4.3957476009381935e-05
-2.7662632419378497e-05,1.3607739674625918e-05,1.3944013517175335e-05,-5.6815965763235e-06,4.659338446799666e-05
-3.328130696900189e-05,1.756030360411387e-05,1.9722821889445186e-05,-4.122145583096426e-06,4.55667577625718e-05
-3.064733027713373e-05,2.4034796297200955e-05,2.5699042453197762e-05,-3.0624933060607873e-06,4.1967341530835256e-05
-2.532540929678362e-05,3.350884435349144e-05,2.9525715945055708e-05,-2.997060164489085e-06,3.933327388949692e-05
-2.4291008230648004e-05,4.4114640331827104e-05,2.8467493393691257e-05,-1.2877983408543514e-06,4.0636772610014305e-05
-2.5975068638217635e-05,4.7328827349701896e-05,2.452560147503391e-05,6.711054538754979e-07,4.728769636130892e-05
-3.247477798140608e-05,3.760991239687428e-05,2.4431692509097047e-05,-3.1895541496851365e-07,5.437296931631863e-05
-3.886323611368425e-05,2.446890175633598e-05,2.3419001081492752e-05,-2.4430448775092373e-06,5.5947224609553814e-05
-3.357121386216022e-05,1.3204547940404154e-05,1.600117320776917e-05,-5.870752374903532e-06,5.511847120942548e-05
-2.140126707672607e-05,1.2374848665785976e-05,9.663066521170549e-06,-6.801960353186587e-06,5.812082963529974e-05
-1.2183430953882635e-05,2.805658550641965e-05,8.88533304532757e-06,-3.158802428515628e-06,6.387152097886428e-05
-2.0010225853184238e-05,4.469536725082435e-05,4.239203917677514e-06,-2.061183067780803e-06,6.350372132146731e-05
-3.576628296286799e-05,4.783660187968053e-05,-4.6995423872431275e-06,-3.353535475980607e-06,5.9887897805310786e-05
-4.0885912312660366e-05,4.305946276872419e-05,-1.0012360689870548e-05,-2.82283349406498e-06,5.776180842076428e-05
-3.7262765545165166e-05,4.019827611045912e-05,-1.1870859452756122e-05,-3.997366775365663e-07,6.12348667345941e-05
-3.748820017790422e-05,3.955585998483002e-05,-8.28388783702394e-06,7.122332590370206e-07,6.680173828499392e-05
-3.633371306932531e-05,3.917277717846446e-05,-4.174399691692088e-06,-2.843134723207186e-07,6.663000385742635e-05
-2.7853680876432918e-05,3.892857421305962e-05,-4.856736268266104e-06,-3.710894134201226e-06,6.543861672980711e-05
-2.0503386622294784e-05,3.528308661771007e-05,-7.672050742257852e-06,-8.171025910996832e-06,6.532463157782331e-05
-1.8179373000748456e-05,3.057554204133339e-05,-7.179425665526651e-06,-1.1141997674712911e-05,6.509169179480523e-05
-2.2567997802980244e-05,2.0560781194944866e-05,-3.8191610656213015e-06,-1.0100485269504134e-05,6.47599808871746e-05
-3.017235030711163e-05,4.029817773698596e-06,-1.9460217117739376e-06,-7.467244358849712e-06,6.787342863390222e-05
-3.158586332574487e-05,-1.0962236274281167e-06,-5.912872438784689e-06,-6.100569862610428e-06,7.473001460311934e-05
-2.4450080672977492e-05,1.0638560524967033e-05,-1.0330871191399638e-05,-5.9525577853491995e-06,8.168957720045e-05
-2.026303809543606e-05,2.578720886958763e-05,-8.153893759299535e-06,-6.84585347698885e-06,8.484223508276045e-05
-2.3847334887250327e-05,3.447524068178609e-05,-1.8751376273939968e-06,-6.420049885491608e-06,8.479566895402968e-05
-3.1707440939499065e-05,3.697444481076673e-05,5.918761871726019e-07,-4.699885721493047e-06,8.554662781534716e-05
-3.960621324949898e-05,3.259786171838641e-05,-4.949276899424149e-06,-4.25667940362473e-06,8.56521655805409e-05
-4.505124525167048e-05,2.529131597839296e-05,-1.237884680449497e-05,-6.1634336816496216e-06,8.670932584209368e-05
-4.785040073329583e-05,2.186718484153971e-05,-1.2913805221614894e-05,-7.7310687629506e-06,8.969891496235505e-05
-4.5078872062731534e-05,2.451997897878755e-05,-4.752696440846194e-06,-8.803026503301226e-06,9.021200094139203e-05
-3.115828076261096e-05,2.7736261472455226e-05,2.1424061742436606e-06,-8.097760655800812e-06,8.902469562599435e-05
-1.1008109140675515e-05,2.786573168123141e-05,3.508500185489538e-06,-8.407600034843199e-06,9.180581400869414e-05
5.289472937874962e-06,2.6992569473804906e-05,1.8082206452163518e-06,-1.2658020750677679e-05,9.474480611970648e-05
5.52005076315254e-06,2.6077137590618804e-05,-2.965799239973421e-06,-1.7620812286622822e-05,9.250215953215957e-05
-6.265924184845062e-06,2.596466765680816e-05,-1.0654330253601074e-05,-2.0841493096668273e-05,8.586372860008851e-05
-1.7399313946953043e-05,2.1998892407282256e-05,-2.1108064174768515e-05,-2.0785466404049657e-05,7.945774268591776e-05
-2.6538527890807018e-05,2.043449057964608e-05,-2.6494813937461004e-05,-1.763596992532257e-05,7.816074503352866e-05
-2.8244081477168947e-05,2.47825028054649e-05,-2.0395818864926696e-05,-1.8680446373764426e-05,7.771634409436956e-05
-2.8897835363750346e-05,2.5307268515462056e-05,-1.0152846698474605e-05,-2.079213118122425e-05,7.31704494683072e-05
-2.838129694282543e-05,2.0768535250681452e-05,9.603763828636147e-07,-1.8664319213712588e-05,7.198387902462855e-05
-3.1478277378482744e-05,1.3828506780555472e-05,1.134651120082708e-05,-1.6747535482863896e-05,7.486975664505735e-05
-4.5867753215134144e-05,1.1586371329030953e-05,2.0545368897728622e-05,-1.6673480786266737e-05,7.672771607758477e-05
-5.6821550970198587e-05,1.120720298786182e-05,2.511706406949088e-05,-1.8607715901453048e-05,7.958275091368705e-05
-5.5891421652631834e-05,1.3186920114094391e-05,2.5796449335757643e-05,-2.024416062340606e-05,7.850341353332624e-05
-4.832091508433223e-05,1.8454617020324804e-05,2.3879407308413647e-05,-1.759334554662928e-05,7.539153011748567e-05
-3.88854205084499e-05,2.8606424166355282e-05,2.1913796445005573e-05,-1.3318158380570821e-05,7.455204467987642e-05
-3.219395148335025e-05,4.0354967495659366e-05,2.1604486391879618e-05,-1.4105057744018268e-05,7.59719405323267e-05
-3.318393282825127e-05,4.7692490625195205e-05,2.1008207113482058e-05,-1.858936775533948e-05,7.759393338346854e-05
-3.8614878576481715e-05,5.155317921889946e-05,2.094895717164036e-05,-2.0008290448458865e-05,7.867062231525779e-05
-4.25829530286137e-05,5.249965033726767e-05,1.9482542484183796e-05,-1.6896552551770583e-05,8.030422031879425e-05
-4.355553392088041e-05,4.9099653551820666e-05,1.7729415048961528e-05,-1.4829669453320093e-05,8.082727435976267e-05
-4.411254121805541e-05,4.133647962589748e-05,1.6913836589083076e-05,-1.7242149624507874e-05,7.857791206333786e-05
-4.3948995880782604e-05,3.322994234622456e-05,1.825913932407275e-05,-1.9181041352567263e-05,7.504636596422642e-05
-4.1646497265901417e-05,2.8781631044694223e-05,1.9731376596610062e-05,-1.6622374459984712e-05,7.253820513142273e-05
-3.565785300452262e-05,3.319068127893843e-05,2.1278274289215915e-05,-1.3058741387794726e-05,7.155318598961458e-05
-2.8994974854867905e-05,3.9379741792799905e-05,2.1246545657049865e-05,-1.3338823009689804e-05,7.195141370175406e-05
-2.811252124956809e-05,4.1294984839623794e-05,1.930286998685915e-05,-1.70214752870379e-05,7.182747503975406e-05
-3.07423179037869e-05,3.984152863267809e-05,1.786791290214751e-05,-1.9952103684772737e-05,7.123563409550115e-05
-2.5050358090084046e-05,3.8481906813103706e-05,1.6525296814506873e-05,-2.123765261785593e-05,7.272906077560037e-05
-7.800917046552058e-06,3.533479684847407e-05,1.410088316333713e-05,-2.1428502805065364e-05,7.69399048294872e-05
1.4513535461446736e-05,2.968974513350986e-05,1.0595648745947983e-05,-1.901670293591451e-05,7.715417450526729e-05
3.087039658566937e-05,2.8768889023922384e-05,6.551571914314991e-06,-1.4567359357897658e-05,7.421442569466308e-05
2.7461830541142263e-05,2.9264294425956905e-05,4.66515302832704e-06,-1.2450856957002543e-05,7.229491166071966e-05
8.1611087807687e-06,2.6243440515827388e-05,5.595138190983562e-06,-1.2394655641401187e-05,7.408441160805523e-05
-1.1177831765962765e-05,2.9720718885073438e-05,4.691273261414608e-06,-6.913141987752169e-06,7.683214789722115e-05
-1.9587063434300944e-05,3.6946563341189176e-05,6.002565442031482e-06,-1.210708774124214e-06,7.470296259270981e-05
-1.8567327060736716e-05,3.975575600634329e-05,8.412295755988453e-06,-1.4943125847821648e-07,7.088407437549904e-05
-1.2836540008720476e-05,3.7939928006380796e-05,5.267714186629746e-06,-8.8010318677334e-07,6.608072726521641e-05
-8.287516720884014e-06,3.520355312502943e-05,4.17721184930997e-06,-3.916061359632295e-06,6.0270635003689677e-05
-1.2092281394870952e-05,3.186557660228573e-05,4.979212462785654e-06,-6.279049557633698e-06,5.9459263866301626e-05
-2.269742253702134e-05,2.414543087070342e-05,3.863540769089013e-06,-9.976897672459017e-06,6.287797441473231e-05
-2.661744292709045e-05,1.5446921679540537e-05,4.174760761088692e-06,-1.1084024663432501e-05,6.65631887386553e-05
-1.2259221875865478e-05,1.2886950571555644e-05,7.23112452760688e-06,-1.0669002222130075e-05,6.849240890005603e-05
1.456094287277665e-05,1.6994654288282618e-05,9.362058335682377e-06,-1.1150252248626202e-05,6.421147554647177e-05
3.761005064006895e-05,2.3583394067827612e-05,8.283129318442661e-06,-1.1743150935217272e-05,5.8115922001888976e-05
4.395140058477409e-05,3.0622184567619115e-05,6.803492397011723e-06,-1.1456637366791256e-05,5.669494566973299e-05
3.4943957871291786e-05,3.50892951246351e-05,7.922477379906923e-06,-1.0139843652723357e-05,6.011540972394869e-05
1.7374261005898006e-05,3.449152791290544e-05,1.139566029451089e-05,-8.856525710143615e-06,6.336589285638183e-05
2.047788939307793e-06,2.9120134058757685e-05,1.1299740435788408e-05,-8.708647328603547e-06,6.417196709662676e-05
-8.545617674826644e-06,2.2563539459952153e-05,8.266976692539174e-06,-1.0031757483375259e-05,6.499393202830106e-05
-1.8377721062279306e-05,1.93859996215906e-05,7.633521818206646e-06,-1.128196163335815e-05,6.524873606394976e-05
-2.630844755913131e-05,2.125424362020567e-05,1.052380775945494e-05,-1.1193864338565618e-05,6.530024256790057e-05
-2.9577478926512413e-05,2.106205647578463e-05,1.1081966476922389e-05,-7.230697974591749e-06,6.600617052754387e-05
-3.071763421758078e-05,1.8205990272690542e-05,9.836505341809243e-06,-3.569462933228351e-06,6.442493031499907e-05
-3.248682332923636e-05,2.0259913071640767e-05,1.0344607289880514e-05,-6.4248129092447925e-06,6.1300779634621e-05
-3.494495831546374e-05,2.417275209154468e-05,1.158861687144963e-05,-9.958499504136853e-06,6.165561353554949e-05
-3.6733359593199566e-05,2.4773624318186194e-05,1.0392115655122325e-05,-9.714804946270306e-06,6.398463301593438e-05
-3.4490858524804935e-05,2.690306428121403e-05,2.075292968584108e-06,-1.1033204827981535e-05,6.60947771393694e-05
-2.9398393962765113e-05,3.244076287955977e-05,-9.207596121996175e-06,-1.034419437928591e-05,6.718553777318448e-05
-2.779289752652403e-05,3.453389945207164e-05,-1.611898551345803e-05,-8.583849194110371e-06,6.366809975588694e-05
-3.055244451388717e-05,2.710654189286288e-05,-1.9309829440317117e-05,-1.2255348337930627e-05,5.775809404440224e-05
-3.2761327020125464e-05,2.3461694581783377e-05,-1.9889041141141206e-05,-1.4346093848871533e-05,5.875977876712568e-05
-3.2999210816342384e-05,3.274288974353112e-05,-1.8655828171176836e-05,-1.1134725355077535e-05,6.362557905958965e-05
-3.174101220793091e-05,4.249231642461382e-05,-1.6871266780071892e-05,-1.1971427738899365e-05,6.623650551773608e-05
-3.45256739819888e-05,3.85760904464405e-05,-1.0683779692044482e-05,-1.4539493349730037e-05,6.576276064151898e-05
-3.9125759940361604e-05,3.0745522963115945e-05,-1.892028194561135e-06,-1.6158002836164087e-05,6.390201451722533e-05
-4.4681120925815776e-05,3.309413295937702e-05,2.800575884975842e-06,-1.3522796507459134e-05,6.503610347863287e-05
-4.8819852963788435e-05,3.7285797588992864e-05,2.0024515379191143e-06,-1.22734427350224e-05,6.694995681755245e-05
-5.552613583859056e-05,3.564915095921606e-05,-7.562157406937331e-07,-1.3378876246861182e-05,6.974556163186207e-05
-6.385133019648492e-05,3.157520404784009e-05,-5.299507392919622e-07,-1.3671770830114838e-05,7.240765989990905e-05
-7.03594705555588e-05,2.9759277822449803e-05,1.1327059610266588e-06,-1.3683100405614823e-05,7.50076214899309e-05
-8.054508361965418e-05,2.4833951101754792e-05,2.323662783965119e-06,-1.4335177183966152e-05,7.521994120907038e-05
-9.108353697229177e-05,1.8579321476863697e-05,4.669439022109145e-06,-1.4627601558458991e-05,7.188836025306955e-05
-8.917771629057825e-05,1.7569849660503678e-05,7.385147000604775e-06,-1.1646508937701583e-05,7.042925426503643e-05
-5.978871922707185e-05,2.3633838281966746e-05,7.227424248412717e-06,-1.1412329513404984e-05,7.254912634380162e-05
-5.955983851890778e-06,3.012855631823186e-05,3.2888221994653577e-06,-1.5138347407628316e-05,7.561092206742615e-05
4.612619159161113e-05,2.9204858947196044e-05,-7.463739848390105e-07,-1.8166467270930298e-05,7.764723704895005e-05
6.67477142997086e-05,2.137071714969352e-05,-2.977607209686539e-06,-1.680218156252522e-05,7.809200906194746e-05
4.9665850383462384e-05,1.5390587577712722e-05,-2.1015814581915038e-06,-1.4690968782815617e-05,7.833589188521728e-05
1.2489866094256286e-05,1.8008382539846934e-05,1.542170707580226e-06,-1.2150823749834672e-05,7.649536564713344e-05
-1.8492655726731755e-05,2.116686118824873e-05,5.4127090152178425e-06,-1.1107869795523584e-05,7.197541708592325e-05
-2.9276863642735407e-05,1.895049172162544e-05,5.521091225091368e-06,-1.0859705071197823e-05,6.909353396622464e-05
-2.6032585083157755e-05,1.6806119674583897e-05,5.361085186450509e-06,-1.0446158739796374e-05,6.650861905654892e-05
-2.2216518118511885e-05,1.6824651538627222e-05,8.195203918148763e-06,-1.1327028914820403e-05,6.426411709981039e-05
-2.3757067538099363e-05,1.542521385999862e-05,1.0457149073772598e-05,-1.0313211532775313e-05,6.399357516784221e-05
-3.241797458031215e-05,1.8796417862176895e-05,1.208976664202055e-05,-5.824798790854402e-06,6.409626075765118e-05
-3.861299774143845e-05,2.471570587658789e-05,1.3642184967466164e-05,-3.7279053231031867e-06,6.226811819942668e-05
-3.601488788262941e-05,2.2950345737626776e-05,1.415274164173752e-05,-4.2436927287781145e-06,5.85167836106848e-05
-3.383683360880241e-05,1.9052034986088984e-05,1.3226395822130144e-05,-2.2466240352514433e-06,5.521604180103168e-05
-3.6148190702078864e-05,2.005534406634979e-05,1.0886621566896793e-05,-1.8368334622209659e-06,5.422503818408586e-05
-4.2389419832034037e-05,2.37686799664516e-05,5.349218554329127e-06,-4.7632429414079525e-06,5.2700761443702504e-05
-4.425839870236814e-05,2.934179428848438e-05,-1.771742745404481e-06,-1.061380226019537e-05,4.9820097046904266e-05
-3.9200625906232744e-05,3.2886153348954394e-05,-4.318446372053586e-06,-1.4120000741968397e-05,4.6018998546060175e-05
-3.722346809809096e-05,3.534049028530717e-05,-4.220054506731685e-06,-1.0848010788322426e-05,4.439145413925871e-05
-3.7124016671441495e-05,3.732563345693052e-05,-3.844529601337854e-06,-9.981718903873116e-06,4.503686795942485e-05
-3.7481298932107165e-05,3.563629070413299e-05,3.2583109259576304e-06,-1.1463582268333994e-05,4.610270116245374e-05
-3.550743713276461e-05,3.401746289455332e-05,1.309015442529926e-05,-1.4462016224570107e-05,4.5980719733051956e-05
-3.086296419496648e-05,3.277879659435712e-05,1.735170735628344e-05,-1.632441308174748e-05,4.357237776275724e-05
-2.5822848328971304e-05,3.3290907595073804e-05,1.7457306967116892e-05,-1.646343844186049e-05,4.2670249968068674e-05
-2.1472611479111947e-05,3.453728641034104e-05,1.678587796050124e-05,-1.2584214346134104e-05,4.5341523218667135e-05
-2.0478275473578833e-05,3.345779623487033e-05,1.7652240785537288e-05,-5.284423878038069e-06,5.07239528815262e-05
-2.1343023036024533e-05,3.0433189749601297e-05,1.993628939089831e-05,1.1349274018357391e-06,5.328688712324947e-05
-2.1378111341618933e-05,2.9440730941132642e-05,1.9101416910416447e-05,5.498758127941983e-06,5.079808397567831e-05
-2.138316813216079e-05,3.0592749681090936e-05,1.3698188013222534e-05,6.72280748403864e-06,4.722193261841312e-05
-2.501235758245457e-05,3.158230902045034e-05,9.611599125491921e-06,2.9757318316114834e-06,4.6877918066456914e-05
-2.8789680072804913e-05,3.105773066636175e-05,1.048919148161076e-05,-5.661077921104152e-06,5.047311424277723e-05
-2.791743099805899e-05,3.0237020837375894e-05,1.2936387975059915e-05,-1.3929256056144368e-05,5.3799212764715776e-05
-2.5642060791142285e-05,3.125692455796525e-05,1.3389900232141372e-05,-1.9262346540926956e-05,5.281848643789999e-05
-2.6195033569820225e-05,3.336603913339786e-05,1.1064769751101267e-05,-1.893123953777831e-05,5.048548700870015e-05
-2.3022914319881238e-05,3.2940679375315085e-05,5.704371233150596e-06,-1.5332894690800458e-05,5.072279600426555e-05
-2.044115353783127e-05,2.6195231839665212e-05,1.3166072676540352e-06,-1.2163776773377322e-05,5.3520900110015646e-05
-1.9987446648883633e-05,2.0704330381704494e-05,6.598185109396582e-08,-1.3256043530418538e-05,5.613947723759338e-05
-1.857473762356676e-05,2.5991268557845615e-05,-2.500472419342259e-06,-1.4879198715789244e-05,5.787558256997727e-05
-2.1478801500052214e-05,3.382952854735777e-05,-5.026527105655987e-06,-1.0932341865554918e-05,5.7312317949254066e-05
-2.9296965294633992e-05,3.110626130364835e-05,-4.757432179758325e-06,-3.886952981702052e-06,5.5425698519684374e-05
-3.734195706783794e-05,2.4262502847705036e-05,-4.649506990972441e-06,-5.177763341635e-06,5.5359298130497336e-05
-3.736733924597502e-05,2.1253277736832388e-05,-6.3385423345607705e-06,-8.7481230366393e-06,5.5948763474589214e-05
-3.27893540088553e-05,2.4288146960316226e-05,-9.180334927805234e-06,-1.0100107829202898e-05,5.789428178104572e-05
-3.0713763408130035e-05,2.647355358931236e-05,-9.141067494056188e-06,-9.546691217110492e-06,5.883588164579123e-05
-3.24686843669042e-05,2.0274423150112852e-05,-4.78249421576038e-06,-7.442494279530365e-06,5.6752855016384274e-05
-3.116447987849824e-05,1.3723553820454981e-05,-1.1246004305576207e-06,-7.090979124768637e-06,5.5519965826533735e-05
-2.5054738216567785e-05,1.3127298188919667e-05,-1.6073221331680543e-06,-9.562219929648563e-06,5.415325358626433e-05
-2.1945792468613945e-05,1.646555756451562e-05,-1.6537046576559078e-06,-1.3957577721157577e-05,5.161842273082584e-05
-2.5122411898337305e-05,2.325923378521111e-05,1.250600234925514e-06,-1.4841868505754974e-05,5.107511969981715e-05
-3.151279452140443e-05,2.9345588700380176e-05,5.937688456469914e-06,-1.2799358046322595e-05,5.499881081050262e-05
-3.506378561723977e-05,3.139800173812546e-05,1.2614029401447624e-05,-1.1346022802172229e-05,6.110867980169132e-05
-3.373247091076337e-05,3.249367364333011e-05,1.6418862287537195e-05,-1.3546604350267444e-05,6.135395233286545e-05
-2.9379552870523185e-05,3.6138131690677255e-05,1.6797219359432347e-05,-1.66360132425325e-05,5.577940464718267e-05
-2.69786651188042e-05,4.003092544735409e-05,1.719164902169723e-05,-1.7536944142193533e-05,5.220306775299832e-05
-2.7375239369575866e-05,4.184180943411775e-05,1.5865924069657922e-05,-1.7621239749132656e-05,5.4248001106316224e-05
-2.8250549803487957e-05,4.22093944507651e-05,1.2315485037106555e-05,-1.6801051970105618e-05,5.871030953130685e-05
-2.7076195692643523e-05,4.2046038288390264e-05,1.16487235573004e-05,-1.3313826457306277e-05,6.126522202976048e-05
-2.732147004280705e-05,4.240718044457026e-05,1.3826367649016902e-05,-1.2446737855498213e-05,6.0114187363069504e-05
-3.0452481951215304e-05,4.3445681512821466e-05,1.590857755218167e-05,-1.5362968042609282e-05,5.7123081205645576e-05
-3.376573295099661e-05,4.7002857172628865e-05,1.6752974261180498e-05,-1.8430295313009992e-05,5.482066626427695e-05
-3.451316661085002e-05,5.116605825605802e-05,1.662853901507333e-05,-1.8790760805131868e-05,5.1307721150806174e-05
-3.0787730793235824e-05,5.099348345538601e-05,1.7221980670001358e-05,-1.642260031076148e-05,4.821593756787479e-05
-2.6622368750395253e-05,4.559341323329136e-05,1.6267762475763448e-05,-1.3353214853850659e-05,4.929343413095921e-05
-2.575298276497051e-05,4.027329487144016e-05,1.3210216820880305e-05,-9.020451216201764e-06,5.246116052148864e-05
-2.6190919015789405e-05,3.9815957279643044e-05,7.056708454911131e-06,-5.185497684578877e-06,5.5721273383824155e-05
-2.9295893909875304e-05,4.2244704673066735e-05,5.180702373763779e-06,-4.5975584725965746e-06,5.8540441386867315e-05
-3.9848691812949255e-05,4.205701043247245e-05,1.303679255215684e-05,-7.942565389384981e-06,6.35141332168132e-05
-4.769953011418693e-05,3.496849240036681e-05,1.549593980598729e-05,-9.605623745301273e-06,6.629278504988179e-05
-3.977107917307876e-05,2.1794399799546227e-05,7.81059770815773e-06,-4.138059921388049e-06,6.432959344238043e-05
-2.6816804165719077e-05,1.478398553445004e-05,1.9188708222372952e-07,2.8192043828312308e-06,5.999982386128977e-05
-2.0411127479746938e-05,1.3906158528698143e-05,-7.086196546879364e-06,4.03287731387536e-06,5.828218490933068e-05
-1.9361075828783214e-05,1.0881476555368863e-05,-1.1890717360074632e-05,6.485634571617993e-07,5.7259345339844e-05
-2.0948175006196834e-05,5.040581527282484e-06,-9.584072358848061e-06,2.3577715069222904e-07,5.175832484383136e-05
-1.5501116649829783e-05,2.3201567955766222e-07,-4.431480192579329e-06,1.6717380049158237e-06,4.891448770649731e-05
-8.006386451597791e-06,7.996706585799984e-07,-3.1591844162903726e-06,1.7561385448061628e-06,4.725155667983927e-05
-9.753623089636676e-06,8.085271474556066e-06,-6.1727782849629875e-06,1.807750891202886e-07,4.7057332267286256e-05
-1.8207672837888822e-05,1.7359836419927888e-05,-4.6064224079600535e-06,-3.657032721093856e-06,4.787277794093825e-05
-2.646843495313078e-05,2.2514592274092138e-05,-1.2531537549875793e-06,-7.420186193485279e-06,5.1100909331580624e-05
-2.8026930522173643e-05,2.259538996440824e-05,-1.1802401331806323e-06,-1.005768990580691e-05,5.5340937251457945e-05
-2.09987374546472e-05,2.1999047021381557e-05,-2.714552010729676e-06,-1.4480384379567113e-05,5.691120895789936e-05
-1.6499003322678618e-05,2.4016580937313847e-05,-1.6566663134653936e-06,-2.070526170427911e-05,5.6048720580292866e-05
-2.342853622394614e-05,2.5126884793280624e-05,4.110136615054216e-06,-2.1794958229293115e-05,5.584095197264105e-05
-3.621654468588531e-05,2.6388954211142845e-05,1.1373425877536647e-05,-1.659312329138629e-05,5.559682904276997e-05
-4.023088331450708e-05,3.135789665975608e-05,1.6323152522090822e-05,-1.0607612239255104e-05,5.26014955539722e-05
-2.7231708372710273e-05,3.744295099750161e-05,1.1252309377596248e-05,-8.110139788186643e-06,5.133579907123931e-05
-6.301766916294582e-06,3.6538494896376505e-05,-6.103371106291888e-06,-7.014557468210114e-06,5.336944741429761e-05
3.3247945339098806e-06,3.413665763218887e-05,-2.8038120944984257e-05,-5.8421151152288076e-06,5.616106136585586e-05
-3.09450774693687e-06,3.77796714019496e-05,-4.276219988241792e-05,-6.095154276408721e-06,5.6587497965665534e-05
-1.4197359632817097e-05,4.0723109123064205e-05,-4.6158900659065694e-05,-6.7713008320424706e-06,5.624936238746159e-05
-2.4134029445121996e-05,3.452472810749896e-05,-3.937783185392618e-05,-7.272257789736614e-06,5.6762397434795275e-05
-2.994055103044957e-05,1.6235313523793593e-05,-2.9348220778047107e-05,-9.100490387936588e-06,5.828374924021773e-05
-2.9827615435351618e-05,2.8503925477707526e-06,-1.9058272300753742e-05,-1.1496168554003816e-05,6.027081690263003e-05
-2.5550563805154525e-05,4.094335963600315e-06,-2.048947180810501e-06,-1.4149005437502638e-05,6.211944855749607e-05
-2.4862176360329613e-05,6.899673735460965e-06,1.7777763787307777e-05,-1.6976327970041893e-05,6.35266478639096e-05
-2.8481999834184535e-05,1.3252064491098281e-05,2.941413185908459e-05,-1.7796332031139173e-05,6.34458483546041e-05
-2.6144503863179125e-05,2.4479277271893807e-05,3.7400579458335415e-05,-1.563736987009179e-05,6.126124935690314e-05
-2.1053378077340312e-05,3.391124846530147e-05,4.547239586827345e-05,-1.230120051332051e-05,5.880191019969061e-05
-2.4418108296231367e-05,3.5483324609231204e-05,5.269894973025657e-05,-6.513088010251522e-06,5.5110933317337185e-05
-3.0953335226513445e-05,3.101697802776471e-05,5.7578599808039144e-05,-1.6275658936137916e-06,5.45318762306124e-05
-2.8675145586021245e-05,3.25139808410313e-05,5.231102113611996e-05,-1.1515112419147044e-06,5.7505581935402006e-05
-2.0072977349627763e-05,3.7812700611539185e-05,4.142372927162796e-05,-3.233286633985699e-06,6.0603189922403544e-05
-1.5815679944353178e-05,3.8258473068708554e-05,3.087721051997505e-05,-8.821206392894965e-06,6.0447287978604436e-05
-1.7590537026990205e-05,3.691777601488866e-05,2.43344566115411e-05,-1.1321249985485338e-05,5.754355515819043e-05
-2.4857328753569163e-05,3.9754824683768675e-05,2.3216131012304686e-05,-1.0466113053553272e-05,5.585624239756726e-05
-3.238507633795962e-05,4.538910434348509e-05,2.3514623535447754e-05,-1.0424117135698907e-05,5.9470359701663256e-05
-3.3953008824028075e-05,5.082076313556172e-05,2.1392916096374393e-05,-1.2673103810811881e-05,6.513696280308068e-05
-2.855552338587586e-05,5.0322461902396753e-05,1.7225678675458767e-05,-1.4161975741444621e-05,6.511907849926502e-05
-2.3259442968992516e-05,4.2778250644914806e-05,1.3377755749388598e-05,-1.207854802487418e-05,5.956407039775513e-05
-2.421250792394858e-05,3.42769744747784e-05,9.44357907428639e-06,-8.426512977166567e-06,5.538685218198225e-05
-2.550182762206532e-05,2.7938553103012964e-05,2.954532874355209e-06,-7.334657766477903e-06,5.808621790492907e-05
-2.1984837076161057e-05,2.2303691366687417e-05,-4.7745575102453586e-06,-1.1732044185919221e-05,6.00297971686814e-05
-1.6066791431512684e-05,2.165841760870535e-05,-1.0009331163018942e-05,-1.6056475942605175e-05,5.530828275368549e-05
-1.3030113223067019e-05,2.947680331999436e-05,-1.184207485493971e-05,-1.5993933629943058e-05,4.9817910621641204e-05
-1.653940307733137e-05,3.7555553717538714e-05,-1.2886697732028551e-05,-1.5141938092710916e-05,5.2219700592104346e-05
-2.4708670025574975e-05,4.212832936900668e-05,-1.4335640116769355e-05,-1.3122425116307568e-05,5.622764001600444e-05
-3.349866165081039e-05,4.090028960490599e-05,-1.4874422049615532e-05,-9.04755052033579e-06,5.3934960305923596e-05
-3.985272269346751e-05,3.319632014608942e-05,-1.4351193385664374e-05,-1.0224855031992774e-05,4.878713298239745e-05
-3.8620069972239435e-05,3.090315294684842e-05,-1.2232569133630022e-05,-1.5137316040636506e-05,5.123082883073948e-05
-3.491853203740902e-05,3.379133340786211e-05,-9.771966688276734e-06,-1.6652382328175008e-05,5.989984856569208e-05
-3.334787834319286e-05,3.3999116567429155e-05,-6.588516043848358e-06,-1.5968435036484152e-05,6.462440796894953e-05
-2.9691820600419305e-05,3.095889405813068e-05,1.2703360425803112e-06,-1.6518137272214517e-05,6.148076499812305e-05
-2.4922939701355062e-05,2.798480272758752e-05,7.960422408359591e-06,-1.6950813005678356e-05,5.9327830967959017e-05
-2.618269354570657e-05,2.8656570066232234e-05,8.474298738292418e-06,-2.1751759049948305e-05,6.279995432123542e-05
-2.597866659925785e-05,3.2294363336404786e-05,7.6026130955142435e-06,-2.2562278900295496e-05,6.441936420742422e-05
-1.0500044481887016e-05,3.550725887180306e-05,7.761828783259261e-06,-1.738680475682486e-05,6.441547157010064e-05
1.234458432008978e-05,3.44736035913229e-05,7.772909157210961e-06,-1.3634105016535614e-05,6.51504669804126e-05
2.792536724882666e-05,3.4014927223324776e-05,4.6981203922769055e-06,-8.561326467315666e-06,6.601954373763874e-05
2.5156818082905374e-05,3.24457541864831e-05,3.4607369343575556e-06,-6.309664513537427e-06,6.328773451969028e-05
7.096143235685304e-06,2.7119771402794868e-05,4.9564191613171715e-06,-1.0118928912561387e-05,6.041457527317107e-05
-9.220960237144027e-06,2.1911155272391625e-05,8.481362783641089e-06,-1.6651996702421457e-05,5.8998972235713154e-05
-1.6368256183341146e-05,1.6434210920124315e-05,1.1889030247402843e-05,-1.8233440641779453e-05,5.8737368817673996e-05
-1.89308229892049e-05,1.3206810763222165e-05,1.588351369719021e-05,-1.2645440619962756e-05,5.8092493418371305e-05
-2.0559809854603373e-05,1.661053829593584e-05,1.7015685443766415e-05,-4.940713552059606e-06,5.607148341368884e-05
-2.1311239834176376e-05,2.618138023535721e-05,1.323147807852365e-05,-1.716698193376942e-06,5.492029231390916e-05
-2.74964768323116e-05,3.323733835713938e-05,9.431342732568737e-06,-2.205230202889652e-06,5.485470683197491e-05
-3.85829116567038e-05,3.114864375675097e-05,8.62147680891212e-06,-3.1433289677806897e-06,5.581120421993546e-05
-4.5185723138274625e-05,2.421099088678602e-05,8.376586265512742e-06,-3.009147803822998e-06,5.6091816077241674e-05
-4.213811189401895e-05,1.863808574853465e-05,6.779593604733236e-06,-1.8449992467139964e-06,5.345050885807723e-05
-3.5352979466551915e-05,1.7054204363375902e-05,5.388241788750747e-06,3.444073115588253e-08,5.2310591854620725e-05
-3.2589225156698376e-05,1.9260685803601518e-05,3.541836349540972e-06,2.1772812033304945e-06,5.588066778727807e-05
-3.427257252042182e-05,2.1958023353363387e-05,2.9738262128375936e-06,2.5819977054197807e-06,5.851956666447222e-05
-3.7474783312063664e-05,2.080350895994343e-05,4.4308376345725264e-06,2.011961868220169e-07,5.857223004568368e-05
-3.865747930831276e-05,1.479859110986581e-05,6.4325395214837044e-06,-5.5939140111149754e-06,5.832515307702124e-05
-3.5079883673461154e-05,7.324496436922345e-06,5.84910321776988e-06,-1.5502078895224258e-05,5.8494359109317884e-05
-2.8362923330860212e-05,6.216054771357449e-06,5.775802492280491e-06,-2.0569552361848764e-05,5.59516302018892e-05
-2.2997894120635465e-05,1.652530045248568e-05,1.0707933142839465e-05,-1.8674163584364578e-05,5.2889721700921655e-05
-2.423859950795304e-05,2.9480514058377594e-05,1.82512139872415e-05,-1.734193392621819e-05,5.223727930570021e-05
-3.7415738916024566e-05,3.658208152046427e-05,2.0948746168869548e-05,-1.3779085747955833e-05,5.5635449825786054e-05
-4.852877827943303e-05,3.638898124336265e-05,1.7716169168124907e-05,-8.700263606442604e-06,5.80864361836575e-05
-4.347959838923998e-05,3.423356974963099e-05,1.4306512639450375e-05,-6.383446816471405e-06,5.905481884838082e-05
-2.4340231902897358e-05,3.20665531035047e-05,1.5718829672550783e-05,-8.020844688871875e-06,5.9629113820847124e-05
9.139857297668641e-07,2.4974244297482073e-05,1.7658463548286818e-05,-8.49395746627124e-06,6.266587297432125e-05
1.5936697309371084e-05,1.6483319996041246e-05,1.6855572539498098e-05,-9.001051694212947e-06,6.910035881446674e-05
1.4424309483729303e-05,1.3752387530985288e-05,1.270574466616381e-05,-1.2015068932669237e-05,7.141043897718191e-05
-3.2539926451136125e-06,1.969679033209104e-05,1.222016362589784e-05,-1.744011024129577e-05,6.977294106036425e-05
-3.132834899588488e-05,2.8779242711607367e-05,1.750151022861246e-05,-1.8473818272468634e-05,6.603806832572445e-05
-4.812139013665728e-05,3.471145100775175e-05,2.4757600840530358e-05,-1.3317589036887512e-05,6.250915612326935e-05
-4.5805569243384525e-05,3.151184137095697e-05,2.700217009987682e-05,-8.643176443001721e-06,5.809154754388146e-05
-3.537654993124306e-05,2.3632148440810852e-05,2.3927699658088386e-05,-4.487395472096978e-06,5.350339051801711e-05
-2.7594875064096414e-05,1.8554434063844383e-05,1.9221102775190957e-05,-3.607009148254292e-06,5.081306881038472e-05
-2.7876887543243356e-05,1.7671560271992348e-05,1.737788988975808e-05,-4.990149591321824e-06,5.250781396171078e-05
-3.2549673051107675e-05,2.182216485380195e-05,1.840827644628007e-05,-7.531089067924768e-06,5.63401663384866e-05
-3.316709990031086e-05,2.8899261451442726e-05,1.8390570403425954e-05,-9.11776896828087e-06,6.151181150926277e-05
-3.215424658264965e-05,3.181614738423377e-05,1.5397028619190678e-05,-9.796468475542497e-06,6.762758857803419e-05
-3.658747300505638e-05,2.999303978867829e-05,8.268550118373241e-06,-1.0765505066956393e-05,7.013927097432315e-05
-4.2105493776034564e-05,3.493046460789628e-05,1.0585563359200023e-06,-1.1066127626691014e-05,6.820184353273362e-05
-4.2125044274143875e-05,4.413901115185581e-05,-2.519658210076159e-06,-8.35976970847696e-06,6.5464417275507e-05
-3.95587740058545e-05,4.246861863066442e-05,-1.79947062406427e-06,-4.050840288982727e-06,6.324770220089704e-05
-3.4204666008008644e-05,3.351566556375474e-05,-3.2317252589564305e-06,-5.101999818180047e-07,6.052835306036286e-05
-2.795786531351041e-05,2.7400103135732934e-05,-7.283089871634729e-06,1.9793490082520293e-06,5.564418825088069e-05
-2.4697483240743168e-05,2.3270045858225785e-05,-1.1390645340725314e-05,9.216861940331e-07,5.375722321332432e-05
-2.556743856985122e-05,2.7367630536900833e-05,-1.3561568266595714e-05,-1.7322562371191452e-06,5.865957064088434e-05
-2.7511770895216614e-05,3.543119601090439e-05,-1.4376511899172328e-05,-3.1944750844559167e-06,6.094540367485024e-05
-2.4742710593272932e-05,3.571179695427418e-05,-1.1364350939402357e-05,-6.607472641917411e-06,5.904164208914153e-05
-1.8839964468497783e-05,3.485843990347348e-05,-5.092352694191504e-06,-1.030455587169854e-05,5.534120282391086e-05
-1.2555702596728224e-05,3.640087743406184e-05,1.2299261697990005e-06,-8.276137123175431e-06,5.093626896268688e-05
-1.0299445420969278e-05,3.743553679669276e-05,2.9069408356008353e-06,-3.899062903656159e-06,4.6049495722400025e-05
-9.781720109458547e-06,4.0261678805109113e-05,-1.836124056353583e-06,-2.4437001684418647e-06,4.35332658526022e-05
-1.2411587704264093e-05,4.015363083453849e-05,-9.560229955241084e-06,-2.877314045690582e-06,4.6761444536969066e-05
-2.2414102204493247e-05,3.634765380411409e-05,-1.2180401427031029e-05,-4.676201569964178e-06,5.187314309296198e-05
-3.138244937872514e-05,3.173362711095251e-05,-1.1471852303657215e-05,-7.544105756096542e-06,5.2219402277842164e-05
-3.234099494875409e-05,3.091304824920371e-05,-6.799762559239753e-06,-9.292630238633137e-06,5.005627099308185e-05
-3.224545071134344e-05,3.63755134458188e-05,2.7905883825951605e-08,-1.0173398550250567e-05,4.733560490421951e-05
-3.456145350355655e-05,4.2552237573545426e-05,1.9523643004504265e-06,-8.106664608931169e-06,4.564141636365093e-05
-3.649127029348165e-05,4.0112743590725586e-05,-1.2124866088925046e-06,-3.3566225283720996e-06,4.4694683310808614e-05
-3.5577653761720285e-05,3.02996086247731e-05,-6.555034815391991e-06,-3.3661071938695386e-06,4.1445455281063914e-05
-3.545878644217737e-05,2.577098894107621e-05,-7.734597602393478e-06,-9.62134072324261e-06,3.920690141967498e-05
-3.848432606901042e-05,3.5528504668036476e-05,-1.659558733990707e-06,-1.625375443836674e-05,4.032675860798918e-05
-3.978431777795777e-05,4.9352885980624706e-05,4.9013819989340845e-06,-2.1270103388815187e-05,4.5288958062883466e-05
-3.732973345904611e-05,4.98535118822474e-05,3.652644636531477e-06,-2.427468280075118e-05,5.067725942353718e-05
-3.349053440615535e-05,3.715622369782068e-05,-2.1140789385754033e-07,-2.2863148842589e-05,5.357398549676873e-05
-3.309947351226583e-05,2.441578544676304e-05,-1.5322526678573922e-06,-1.6343985407729633e-05,5.2666622650576755e-05
-3.396653846721165e-05,2.3947161025716923e-05,-1.7423990357201546e-06,-1.0075884347315878e-05,5.081155904917978e-05
-3.4020518796751276e-05,3.3987409551627934e-05,-3.402467200430692e-06,-7.404813004541211e-06,5.018774027121253e-05
-3.4655287890927866e-05,3.959907189710066e-05,-2.5694625946925953e-06,-8.201025593734812e-06,5.153613165020943e-05
-3.4374737879261374e-05,3.3218693715753034e-05,-6.742525329173077e-07,-9.494592632108834e-06,5.503480133484118e-05
-3.2902240491239354e-05,2.4765766283962876e-05,-1.542312816127378e-06,-1.0157914402952883e-05,5.817629426019266e-05
-3.4789161873050034e-05,1.9770042854361236e-05,-1.6355453453797963e-06,-1.2984937711735256e-05,6.034598118276335e-05
-3.770248076762073e-05,1.8905537217506208e-05,1.7675840808806242e-06,-1.6710881027393043e-05,5.937921741860919e-05
-3.7351506762206554e-05,2.2599928342970088e-05,2.3827888071537018e-06,-2.110813329636585e-05,5.5357235396513715e-05
-3.5320757888257504e-05,2.7385052817407995e-05,-4.227390945743537e-06,-2.6171697754762135e-05,5.2289728046162054e-05
-4.006189192296006e-05,2.6504829293116927e-05,-6.584413767996011e-06,-2.308658804395236e-05,4.895335223409347e-05
-5.250078538665548e-05,2.0101835616515018e-05,-3.376113227204769e-06,-1.3625533028971404e-05,5.0366805226076394e-05
-6.0726903029717505e-05,1.7780226698960178e-05,-7.713123864050431e-07,-8.902449735614937e-06,5.443011468742043e-05
-5.792264346382581e-05,1.823089041863568e-05,5.245434294920415e-06,-9.304754712502472e-06,5.724239963456057e-05
-5.0856280722655356e-05,1.722680462989956e-05,1.154188339569373e-05,-1.1904226084880065e-05,6.037022467353381e-05
-4.307236667955294e-05,1.955382504092995e-05,1.1067469131376129e-05,-1.761783096299041e-05,6.257254426600412e-05
-3.2994892535498366e-05,2.5080418708967045e-05,7.230577921291115e-06,-2.3647104171686806e-05,6.525459320982918e-05
-2.7048321499023587e-05,2.901548577938229e-05,1.0109464710694738e-05,-2.3055325073073618e-05,6.617035978706554e-05
-2.6269652153132483e-05,2.65377493633423e-05,1.4898762856319081e-05,-1.9041939594899304e-05,6.734962516929954e-05
-2.634520933497697e-05,2.2882988560013473e-05,1.554181653773412e-05,-1.5451912986463867e-05,6.532661063829437e-05
-2.5073555661947466e-05,2.2485457520815544e-05,1.3033137292950414e-05,-1.3724556083616335e-05,5.7866891438607126e-05
-2.176346788473893e-05,2.957589276775252e-05,9.73662463366054e-06,-1.4083322639635298e-05,5.32752565050032e-05
-1.70327093655942e-05,3.865802864311263e-05,4.6062505134614184e-06,-1.769813388818875e-05,5.504610817297362e-05
-1.4155002645566128e-05,4.436028757481836e-05,9.413742532160541e-07,-2.2265621737460606e-05,5.8182369684800506e-05
-1.209213678521337e-05,4.630139665096067e-05,1.9636993329186225e-06,-2.419272277620621e-05,5.9402034821687266e-05
-9.301001227868255e-06,4.521878872765228e-05,6.7456112446961924e-06,-2.261330337205436e-05,5.806486296933144e-05
-1.2103026165277697e-05,4.6261546231107786e-05,1.0389139788458124e-05,-1.9101980797131546e-05,5.855696144863032e-05
-2.0374329324113205e-05,4.833097045775503e-05,8.699470527062658e-06,-1.498412348155398e-05,6.19435086264275e-05
-2.3671198505326174e-05,4.385208376334049e-05,4.635432560462505e-06,-1.1809756870206911e-05,6.505864439532161e-05
-2.0929506717948243e-05,2.8576927434187382e-05,2.822236183419591e-06,-1.389631324855145e-05,6.684683467028663e-05
-1.7852655219030567e-05,1.2315324966039043e-05,3.966537860833341e-06,-2.0056695575476624e-05,6.875285907881334e-05
-2.0272978872526437e-05,8.495620932080783e-06,4.184741101198597e-06,-2.6288038498023525e-05,6.82903264532797e-05
-2.7898509870283306e-05,1.766052628227044e-05,1.758409098329139e-06,-2.8114836823078804e-05,6.201084033818915e-05
-3.3065480238292366e-05,2.0454521290957928e-05,-5.62457262276439e-06,-2.101672362186946e-05,5.6793069234117866e-05
-2.9651338991243392e-05,1.4277769878390245e-05,-1.2974718629266135e-05,-1.3434294487524312e-05,5.625570338452235e-05
-2.007887451327406e-05,1.2820712981920224e-05,-1.3932272850070149e-05,-1.5776009604451247e-05,5.873118061572313e-05
-1.1452833859948441e-05,1.5506489944527857e-05,-1.0499372365302406e-05,-2.1393871065811254e-05,6.218480120878667e-05
-6.989279881963739e-06,1.108360811485909e-05,-4.871456440014299e-06,-2.534096893214155e-05,6.409920024452731e-05
-1.2064940165146254e-05,7.617339178978e-06,1.384320285069407e-06,-2.179086732212454e-05,6.855389074189588e-05
-2.1994837879901752e-05,1.1362759323674254e-05,8.108772817649879e-06,-1.5105109923752025e-05,7.381087925750762e-05
-3.0893719667801633e-05,1.1612361959123518e-05,1.4593987543776166e-05,-1.0247343197988812e-05,7.723031740169972e-05
-3.8370162656065077e-05,1.073930525308242e-05,1.5213428014249075e-05,-7.922878467070404e-06,7.689456833759323e-05
-4.6043078327784315e-05,1.7440745068597607e-05,1.3927247891842853e-05,-8.075923688011244e-06,7.348071812884882e-05
-4.9424048484070227e-05,2.78102215816034e-05,1.1500234904815443e-05,-8.162629455910064e-06,7.184418791439384e-05
-4.3529169488465413e-05,3.24385218846146e-05,1.2625976523850113e-05,-9.823175787460059e-06,6.880910223117098e-05
-2.746652353380341e-05,3.2335719879483804e-05,1.5752979379612952e-05,-9.950946150638629e-06,6.805254815844819e-05
9.462723369324522e-07,3.369685509824194e-05,1.659400550124701e-05,-9.008231245388743e-06,6.696154741803184e-05
3.553301576175727e-05,3.2718569855205715e-05,1.6790492736618035e-05,-7.210036073956871e-06,6.7013745137956e-05
6.099391612224281e-05,3.034852670680266e-05,1.8689406715566292e-05,-6.258201665332308e-06,6.751882028765976e-05
5.987803888274357e-05,3.095807915087789e-05,1.8237011317978613e-05,-4.7074527174117975e-06,6.70984445605427e-05
3.8681628211634234e-05,3.393888255232014e-05,1.3558502359956037e-05,-5.760409749200335e-07,6.806192686781287e-05
1.3944324564363342e-05,3.66378590115346e-05,9.63360071182251e-06,4.826097210752778e-06,6.773764471290633e-05
-7.273365099536022e-06,3.839980126940645e-05,7.0936812335276045e-06,5.268090262688929e-06,6.383829895639792e-05
-2.3016798877506517e-05,3.5556324291974306e-05,1.639891479499056e-06,-5.909721494390396e-07,6.025559196132235e-05
-2.9252609238028526e-05,2.7957381462329067e-05,-5.101087026559981e-06,-7.0942542151897214e-06,5.951515777269378e-05
-2.6336952942074277e-05,2.346225119254086e-05,-5.151680852577556e-06,-7.665029443160165e-06,6.085250061005354e-05
-1.9721190255950205e-05,2.61132499872474e-05,-1.318229863045417e-07,-2.3556208361696918e-06,6.57787240925245e-05
-1.5078702745086048e-05,3.137816020171158e-05,7.392917268589372e-06,-9.548305968110071e-08,6.904493784531951e-05
-1.6519414202775806e-05,3.538190867402591e-05,1.2293370673432946e-05,-3.1031504477141425e-06,6.806610326748341e-05
-1.8921511582448147e-05,3.642442243290134e-05,1.322350544796791e-05,-6.209708317328477e-06,6.592024146812037e-05
-2.171812957385555e-05,3.419072527321987e-05,1.4187002307153307e-05,-5.60311946173897e-06,6.312019831966609e-05
-2.9872064260416664e-05,3.578146061045118e-05,1.2521825738076586e-05,-3.960242338507669e-06,5.7887657021638006e-05
-3.4707289159996435e-05,3.666655538836494e-05,5.133740160090383e-06,-2.372813924012007e-06,5.367787161958404e-05
-3.4148823033319786e-05,3.216234836145304e-05,-3.4911687407657155e-07,-1.0891420743064373e-06,5.2805247833020985e-05
-3.575937444111332e-05,2.7305271942168474e-05,1.3505627975973766e-06,-3.5158566333848285e-06,5.352627340471372e-05
-3.6052431823918596e-05,2.488127393007744e-05,7.5512448347581085e-06,-2.53100347435975e-06,5.2145998779451475e-05
-3.2089352316688746e-05,2.5352159354952164e-05,1.279114712815499e-05,4.273013473721221e-06,5.1450308092171326e-05
-2.9292990802787244e-05,2.846272400347516e-05,1.645793963689357e-05,7.493694283766672e-06,5.159666034160182e-05
-3.131015182589181e-05,3.060336166527122e-05,1.6741621948312968e-05,4.769344286614796e-06,5.1984596211696044e-05
-3.128899334114976e-05,3.0920011340640485e-05,1.7978100004256703e-05,-6.482434855570318e-07,5.0160469982074574e-05
-2.7822683478007093e-05,2.969913293782156e-05,1.8580247342470102e-05,-1.1960837582591921e-06,4.624198845704086e-05
-2.340011633350514e-05,3.3656819141469896e-05,1.8138965970138088e-05,-2.0427273739187513e-06,4.318293576943688e-05
-1.805159445211757e-05,3.9848127926234156e-05,1.8418575564282946e-05,-5.440715085569536e-06,4.101898957742378e-05
-1.3712796317122411e-05,4.311643715482205e-05,1.9156963389832526e-05,-8.456207979179453e-06,4.083353633177467e-05
-1.38787427204079e-05,4.2243515053996816e-05,1.992320903809741e-05,-7.81110611569602e-06,4.3507203372428194e-05
-1.7714644855004735e-05,3.876510163536295e-05,1.9187475118087605e-05,-5.238721314526629e-06,4.776530840899795e-05
-2.1598185412585735e-05,3.6077013646718115e-05,1.952325510501396e-05,-3.1726863198855426e-06,5.113977022119798e-05
-2.3756791051710024e-05,3.2100011594593525e-05,2.0215133190504275e-05,-1.7336642486043274e-06,5.3425421356223524e-05
-2.4635246518300846e-05,2.7250413040746935e-05,1.9994407921331003e-05,-2.929844640675583e-06,5.413208418758586e-05
-2.5613015168346465e-05,2.5036690203705803e-05,1.8707756680669263e-05,-4.5537485675595235e-06,5.368998245103285e-05
-2.7146579668624327e-05,2.765484714473132e-05,1.7377353287884034e-05,-7.053043646010337e-06,5.443939153337851e-05
-2.8626662242459133e-05,2.787108678603545e-05,1.5054794857860543e-05,-9.424516974831931e-06,5.562762089539319e-05
-3.1138621125137433e-05,2.1703239326598123e-05,1.2180021258245688e-05,-9.34379204409197e-06,5.571608926402405e-05
-3.576872040866874e-05,1.4944575923436787e-05,6.3556412897014525e-06,-5.739307653129799e-06,5.474124554893933e-05
-4.164511483395472e-05,1.4963638932385948e-05,-3.5145176298101433e-06,-1.2435239113983698e-06,5.3236108215060085e-05
-4.328218710725196e-05,1.9032362615689635e-05,-1.333519958279794e-05,1.6260773918475024e-06,5.3134761401452124e-05
-4.064104359713383e-05,1.8524753613746725e-05,-1.50379983097082e-05,8.849465302773751e-07,5.482195410877466e-05
-4.046288813697174e-05,1.3163046787667554e-05,-1.0962536180159077e-05,-1.4107203014646075e-06,5.6642860727151856e-05
-4.1496979974908754e-05,1.1630578228505328e-05,-6.681324975943426e-06,-1.775681198523671e-06,5.581638833973557e-05
-3.8093065086286515e-05,1.4066104085941333e-05,-5.453570793179097e-06,-4.320771722632344e-07,5.296506060403772e-05
-2.4075436158454977e-05,1.3496967767423484e-05,-5.605038495559711e-06,-2.1176742848183494e-06,5.1547518523875624e-05
4.124723545828601e-06,1.5052689377625939e-05,3.721886059793178e-06,-3.989910965174204e-06,5.498113387147896e-05
2.75035563390702e-05,2.0805831809411757e-05,1.4173479030432645e-05,-2.119510099873878e-06,6.016407860442996e-05
2.5524181182845496e-05,2.7107769710710272e-05,1.9443217752268538e-05,7.28991437881632e-07,6.372837378876284e-05
7.019118584139505e-06,3.2757736335042864e-05,2.1952220777166076e-05,-4.7635381861255155e-07,6.624795059906319e-05
-1.4508893400488887e-05,3.314283458166756e-05,1.8145254216506146e-05,-8.581510883232113e-06,7.064493547659367e-05
-2.922853127529379e-05,3.094863859587349e-05,1.201882514578756e-05,-1.544938459119294e-05,7.23504854249768e-05
-3.469616058282554e-05,2.7376789148547687e-05,7.91501975072606e-07,-1.2751905160257593e-05,6.772052438464016e-05
-3.6844026908511296e-05,2.480565308360383e-05,-1.2858325135312043e-05,-7.000564437475987e-06,6.365872104652226e-05
-4.400786565383896e-05,2.534496525186114e-05,-1.8529661247157492e-05,-7.966467819642276e-06,6.684153049718589e-05
-4.850477125728503e-05,2.899575156334322e-05,-1.6156769561348483e-05,-1.4762114915356506e-05,7.033675501588732e-05
-4.59441653219983e-05,2.8754320737789385e-05,-1.079019330063602e-05,-1.9633043848443776e-05,6.849422788945958e-05
-4.18356285081245e-05,2.75843012786936e-05,-1.1328004347888054e-06,-2.0504448912106454e-05,6.722116813762113e-05
-4.075613833265379e-05,3.2004390959627926e-05,1.0226119229628239e-05,-1.7540924091008492e-05,6.675488111795858e-05
-4.2874835344264284e-05,3.4769986086757854e-05,1.8715940313995816e-05,-1.4800654753344133e-05,6.726208084728569e-05
-4.3184456444578245e-05,3.0242894354159944e-05,2.2220887331059203e-05,-1.5289324437617324e-05,6.74072143738158e-05
-4.162368713878095e-05,2.1606265363516286e-05,2.0159232008154504e-05,-1.408513981004944e-05,6.487413338618353e-05
-3.781800842261873e-05,1.4748730791325215e-05,1.8397669919067994e-05,-9.113458872889169e-06,6.099508755141869e-05
-3.492756513878703e-05,1.591453838045709e-05,2.0778657926712185e-05,-7.372765139734838e-06,5.90236195421312e-05
-3.041945819859393e-05,2.8635462513193488e-05,2.2740450731362216e-05,-1.3133708307577763e-05,5.933683132752776e-05
-2.7471725843497552e-05,4.045069363201037e-05,2.0355959350126795e-05,-2.0967658201698214e-05,5.888936357223429e-05
-3.174842640873976e-05,4.113013346795924e-05,1.820605029934086e-05,-2.3573749786010012e-05,5.7542412832845e-05
-3.761806510738097e-05,3.6236215237295255e-05,1.6289259292534553e-05,-1.953125865838956e-05,5.910415347898379e-05
-3.621160431066528e-05,3.39419930242002e-05,1.1337465366523247e-05,-1.3479398148774635e-05,6.180544733069837e-05
-2.8285872758715414e-05,3.148815085296519e-05,2.9805507892888272e-06,-1.015516318148002e-05,6.196548201842234e-05
-1.728797724354081e-05,3.0473951483145356e-05,-4.077150606462965e-06,-9.850104106590152e-06,5.882371624466032e-05
-8.550285201636143e-06,3.4986638638656586e-05,-7.642849595868029e-06,-8.711197551747318e-06,5.552419679588638e-05
-1.2322662769292947e-05,3.7649297155439854e-05,-9.032507477968466e-06,-9.360521289636381e-06,5.652216714224778e-05
-2.2683296265313402e-05,4.1249051719205454e-05,-6.796332854719367e-06,-1.0300685971742496e-05,6.035880869603716e-05
-2.8563430532813072e-05,5.6723292800597847e-05,-6.298705102381064e-06,-1.0213032510364428e-05,6.33142699371092e-05
-2.924906584667042e-05,6.492887041531503e-05,-8.912184966902714e-06,-9.97120514512062e-06,6.0805748944403604e-05
-2.425133607175667e-05,5.3840019972994924e-05,-8.004760275071021e-06,-1.0911406207014807e-05,5.564362436416559e-05
-2.3096050426829606e-05,3.3232950954698026e-05,-8.600821274740156e-06,-1.1608188287937082e-05,5.550527203013189e-05
-2.848453732440248e-05,7.332249424507609e-06,-1.2773437447322067e-05,-1.4333605577121489e-05,6.288406439125538e-05
-3.355889566591941e-05,-1.4759219993720762e-05,-1.5857465768931434e-05,-1.973340658878442e-05,7.128270954126492e-05
-3.950511018047109e-05,-1.9725166566786356e-05,-1.4525220649375115e-05,-2.056561061181128e-05,7.342480239458382e-05
-4.262283619027585e-05,-1.6652787962812e-05,-1.0440332516736817e-05,-1.9201474060537294e-05,7.084263779688627e-05
-3.595442831283435e-05,-1.4942844245524611e-05,-9.045545994013082e-06,-2.0218963982188143e-05,6.617105100303888e-05
-1.9213784980820492e-05,-1.016359692584956e-05,-8.566845281166025e-06,-2.0595773094100878e-05,6.382849824149162e-05
2.4699625100765843e-07,2.8861345526820514e-06,-4.225958946335595e-06,-1.9806058844551444e-05,6.593654688913375e-05
9.73367514234269e-06,2.2189995434018783e-05,7.708372322667856e-07,-1.896321373351384e-05,6.72698879498057e-05
4.566580628306838e-06,3.680950976558961e-05,1.4833990462648217e-06,-1.7453481632401235e-05,6.880981527501717e-05
-7.127080607460812e-06,4.146287392359227e-05,-1.9019994397240225e-06,-1.4156296856526751e-05,6.981974729569629e-05
-1.689773125690408e-05,3.8799513276899233e-05,-4.534087565843947e-06,-1.1256449397478718e-05,6.613053847104311e-05
-2.373021561652422e-05,3.514178388286382e-05,-2.527731112422771e-06,-1.195957520394586e-05,6.03382577537559e-05
-2.7604273782344535e-05,3.1379404390463606e-05,2.753233502517105e-06,-1.6807945939945057e-05,5.7255514548160136e-05
-2.962252256111242e-05,2.7546777346287854e-05,6.349657724058488e-06,-2.1677667973563075e-05,5.946563760517165e-05
-3.342030686326325e-05,2.7840502298204228e-05,4.995079962100135e-06,-2.057202800642699e-05,6.403167935786769e-05
-3.504455162328668e-05,3.331689367769286e-05,4.511744464252843e-06,-1.6267549654003233e-05,6.620571366511285e-05
-2.985724677273538e-05,3.7226367567200214e-05,6.855901119706687e-06,-1.4926004041626584e-05,6.53126699035056e-05
-2.503605355741456e-05,3.867064879159443e-05,8.098576472548302e-06,-1.7648442735662684e-05,6.297513755271211e-05
-2.4991661121021025e-05,3.6005410947836936e-05,8.109352165774908e-06,-1.9602468455559574e-05,5.655937275150791e-05
-2.5179440854117274e-05,3.412881778785959e-05,6.363646207319107e-06,-1.8497150449547917e-05,5.0280577852390707e-05
-2.668246816028841e-05,3.981089685112238e-05,3.962918526667636e-06,-1.4102928616921417e-05,5.131954821990803e-05
-2.9504897611332126e-05,4.411657573655248e-05,5.960399903415237e-06,-1.2231622349645477e-05,5.4834534239489585e-05
-3.363376890774816e-05,4.185230500297621e-05,1.1036463547497988e-05,-1.54467488755472e-05,5.724655420635827e-05
-3.414348611840978e-05,3.838810880552046e-05,1.0356397069699597e-05,-1.772369068930857e-05,5.7543922594049945e-05
-2.651981048984453e-05,3.503069456201047e-05,5.547034561459441e-06,-1.8304644981981255e-05,5.8877507399301976e-05
-1.5668352716602385e-05,3.4687160223256797e-05,4.944145075569395e-06,-1.8295615518582053e-05,5.998643973725848e-05
-7.976633241923992e-06,3.482765532680787e-05,8.539364898751955e-06,-1.5331193935708143e-05,5.463030902319588e-05
-4.947778961650329e-06,3.1368297641165555e-05,1.192735908261966e-05,-1.2346171388344374e-05,5.010289896745235e-05
-8.135366442729719e-06,3.472846219665371e-05,1.0565498087089509e-05,-1.1288772839179728e-05,4.9384922021999955e-05
-1.5523510228376836e-05,4.444216028787196e-05,6.214213044586359e-06,-9.559178579365835e-06,5.101814167574048e-05
-2.435800888633821e-05,4.753936445922591e-05,3.1727272471471224e-06,-9.638328265282325e-06,5.381826122174971e-05
-3.076402208535001e-05,4.341931708040647e-05,2.6855036594497506e-07,-1.209357833431568e-05,5.469580719363876e-05
-3.415169339859858e-05,3.7222576793283224e-05,-3.321781377962907e-06,-1.3778142601950094e-05,5.509777111001313e-05
-3.927053330698982e-05,3.318052040413022e-05,-7.009302294136432e-07,-1.1431248822191264e-05,5.5053227697499096e-05
-4.517933848546818e-05,3.49255496985279e-05,6.22805919192615e-06,-5.713759037462296e-06,5.326963582774624e-05
-4.565928611555137e-05,3.813000148511492e-05,1.0955461220873985e-05,-3.0970377338235267e-06,5.12520236952696e-05
-4.207635356578976e-05,3.476434721960686e-05,1.2508163308666553e-05,-3.7952361253701383e-06,4.9448644858784974e-05
-4.2211682739434764e-05,3.069529702770524e-05,1.2036596672260202e-05,-4.657980753108859e-06,4.861097477260046e-05
-4.261802678229287e-05,3.1002946343505755e-05,9.46468844631454e-06,-3.944084710383322e-06,5.201897874940187e-05
-3.857613410218619e-05,2.9162774808355607e-05,7.174491656769533e-06,-3.878139978041872e-06,5.806597619084641e-05
-3.244669642299414e-05,2.4801533072604798e-05,7.422755061270436e-06,-4.5588194552692585e-06,6.285928247962147e-05
-3.1173058232525364e-05,2.3093807612895034e-05,8.975835953606293e-06,-5.325448910298292e-06,6.245686381589621e-05
-3.243514947826043e-05,2.4572133042966016e-05,9.4593333415105e-06,-6.71529232931789e-06,5.782489097327925e-05
-2.9849743441445753e-05,2.8937954994034953e-05,9.414749911229592e-06,-7.185346476035193e-06,5.637481444864534e-05
-2.649410453159362e-05,3.04077984765172e-05,1.2044424693158362e-05,-3.886023023369489e-06,5.9040638006990775e-05
-2.614770710351877e-05,2.7567703000386246e-05,1.648194665904157e-05,-6.438195327973517e-07,5.849090302945115e-05
-2.556333492975682e-05,2.7765121558331884e-05,2.1781374016427435e-05,-2.9296986667759484e-06,5.474985664477572e-05
-2.267563650093507e-05,2.708606916712597e-05,2.4403216229984537e-05,-4.7803973757254425e-06,5.592402158072218e-05
-1.9845014321617782e-05,2.416158895357512e-05,2.397247590124607e-05,-5.571742804022506e-06,5.9609352319967e-05
-1.7469557860749774e-05,2.528144614188932e-05,2.1418669348349795e-05,-5.242424322204897e-06,5.3561867389362305e-05
-1.517283726570895e-05,3.1854735425440595e-05,1.8432729120831937e-05,-3.206695737389964e-06,4.11284709116444e-05
-1.1126295248686802e-05,3.7445035559358075e-05,1.5585159417241812e-05,-3.7291060834832024e-06,3.407718759262934e-05
-1.1344175618432928e-05,3.496929639368318e-05,1.2881564543931745e-05,-6.765403213648824e-06,3.403849041205831e-05
-1.8193499272456393e-05,3.144547008560039e-05,1.0367537470301613e-05,-7.782112334098201e-06,4.0747978346189484e-05
-2.1177655071369372e-05,3.1224379199557006e-05,1.1232707947783638e-05,-6.688998382742284e-06,5.031029286328703e-05
-1.9678545868373476e-05,2.9513637855416164e-05,1.3936241884948686e-05,-7.2497446126362775e-06,5.701004192815162e-05
-1.6070240235421807e-05,2.9972876291139983e-05,1.4770949746889528e-05,-1.1231662028876599e-05,5.6086610129568726e-05
-1.835954753914848e-05,3.155718877678737e-05,1.5616211385349743e-05,-1.42948292705114e-05,5.2682196837849915e-05
-2.2249570974963717e-05,3.330777690280229e-05,1.572436849528458e-05,-1.2772625268553384e-05,4.9651025619823486e-05
-2.2668056772090495e-05,3.200988794560544e-05,1.4189049579726998e-05,-9.739521374285687e-06,4.909123163088225e-05
-2.2608128347201273e-05,2.972457696159836e-05,1.0107807611348107e-05,-9.725990821607411e-06,5.396651977207512e-05
-2.2375734261004254e-05,2.8479660613811575e-05,6.2889166656532325e-06,-1.2090065865777433e-05,5.8899837313219905e-05
-2.2010171960573643e-05,2.9613902370329015e-05,5.13829900228302e-06,-1.3060327546554618e-05,6.222574302228168e-05
-1.9941120626754127e-05,2.780868817353621e-05,4.87006673210999e-06,-1.269882977794623e-05,6.37769844615832e-05
-1.80932129296707e-05,2.210190905316267e-05,3.2290829494741047e-06,-1.094024810299743e-05,6.463504541898146e-05
-1.9365683328942396e-05,1.9588967916206457e-05,3.5058092180406675e-06,-9.484201655141078e-06,6.450582441175357e-05
-2.7616570150712505e-05,2.1372245100792497e-05,5.605719252343988e-06,-1.0298894267180003e-05,6.364881119225174e-05
-3.801560160354711e-05,2.47491570917191e-05,4.255982730683172e-06,-1.120135493692942e-05,6.141573248896748e-05
-4.316365084378049e-05,2.453654451528564e-05,-7.892743951742887e-07,-1.0865630429179873e-05,5.8412035286892205e-05
-4.037346297991462e-05,2.1894647943554446e-05,-4.22171387981507e-06,-9.782627785170916e-06,5.686969234375283e-05
-3.727579314727336e-05,1.9787237761192955e-05,-2.1687430944439257e-06,-1.0135020602319855e-05,5.805954788229428e-05
-3.789861875702627e-05,1.6153082469827496e-05,-1.5481243735848693e-06,-1.0058672160084825e-05,6.151979323476553e-05
-4.370935130282305e-05,1.1191206795047037e-05,-6.105691682023462e-06,-9.28751160245156e-06,6.57782147754915e-05
-5.0479349738452584e-05,1.280969718209235e-05,-1.1335442650306504e-05,-1.330827217316255e-05,6.917485734447837e-05
-4.867126699537039e-05,2.3238275389303453e-05,-1.6859119568835013e-05,-1.7166257748613134e-05,6.884641334181651e-05
-4.05734681407921e-05,3.494539487292059e-05,-1.984448499570135e-05,-1.8014414308709092e-05,6.506111094495282e-05
-3.7116322346264496e-05,3.551342524588108e-05,-2.1492982341442257e-05,-1.5929279470583424e-05,5.880650496692397e-05
-3.351537816342898e-05,3.446394839556888e-05,-2.0717787265311927e-05,-1.198699465021491e-05,5.44243048352655e-05
-2.767600744846277e-05,3.762745836866088e-05,-1.5197010725387372e-05,-1.2478154530981556e-05,5.739369953516871e-05
-2.9210250431788154e-05,4.185464058537036e-05,-9.609247172193136e-06,-1.5218046428344678e-05,6.350194598780945e-05
-3.088588346145116e-05,4.47789097961504e-05,-2.6497368708078284e-06,-1.738535866024904e-05,6.733068585162982e-05
-2.9562781492131762e-05,4.1163264540955424e-05,4.9220416258322075e-06,-1.8311789972358383e-05,6.778977694921196e-05
-2.809569014061708e-05,3.634218592196703e-05,8.261710718215909e-06,-1.7349288100376725e-05,6.602761277463287e-05
-2.932939605670981e-05,3.552558337105438e-05,5.877115199837135e-06,-1.6041871276684105e-05,6.284107803367078e-05
-2.959029188787099e-05,3.350174301886e-05,5.247380158834858e-06,-1.722265915304888e-05,6.211067375261337e-05
-2.5940811610780656e-05,3.253641989431344e-05,7.340354841289809e-06,-1.7634296455071308e-05,6.444990140153095e-05
-2.768569356703665e-05,3.350797851453535e-05,6.399597168638138e-06,-1.5388448446174152e-05,6.382686115102842e-05
-3.077683868468739e-05,3.303592529846355e-05,3.774611741391709e-06,-1.309772051172331e-05,6.031393786543049e-05
-2.9428019843180664e-05,3.2848201954038814e-05,3.3686746974126436e-06,-1.1559866834431887e-05,6.019601278239861e-05
-2.7402136765886098e-05,3.627435944508761e-05,4.724345217255177e-06,-1.156169491878245e-05,6.401568680303171e-05
-2.771823710645549e-05,4.0244791307486594e-05,6.7177502387494314e-06,-1.3290418792166747e-05,6.619729538215324e-05
-2.981906436616555e-05,4.118786091567017e-05,6.571041012648493e-06,-1.5347883163485676e-05,7.051872671581805e-05
-3.342816125950776e-05,3.8957023207331076e-05,2.780413751679589e-06,-1.56556379806716e-05,8.409860311076045e-05
-3.6941761209163815e-05,3.407308759051375e-05,-2.767209934972925e-06,-1.5458492271136492e-05,9.649895218899474e-05
-3.726111026480794e-05,3.0912968213669956e-05,-8.82947824720759e-06,-1.5811137927812524e-05,9.850006608758122e-05
-3.538265445968136e-05,3.2040767109720036e-05,-1.3922556718171109e-05,-1.6891885024961084e-05,9.761082037584856e-05
-3.279067459516227e-05,3.568910324247554e-05,-1.5046962289488874e-05,-1.7243441106984392e-05,9.97132301563397e-05
-2.6847656044992618e-05,3.73513757949695e-05,-1.2837024769396521e-05,-1.6452355339424685e-05,0.0001038991249515675
-2.026348556682933e-05,3.629806451499462e-05,-1.0762863894342445e-05,-1.624482865736354e-05,0.00010845240467460826
-2.1578553059953265e-05,3.1198025681078434e-05,-6.268996457947651e-06,-1.6537604096811265e-05,0.00011220369924558327
-2.6872612579609267e-05,2.4217863028752618e-05,2.2413777855945227e-07,-1.2971867363376077e-05,0.00011134622764075175
-2.740700074355118e-05,2.1854557417100295e-05,9.08520451048389e-06,-6.971239145059371e-06,0.00010827986989170313
-2.201633651566226e-05,2.615884477563668e-05,1.683503796812147e-05,-5.556819360208465e-06,0.00010762402234831825
-1.557667383167427e-05,3.0272818548837677e-05,1.966845775314141e-05,-9.28053032112075e-06,0.00010701222345232964
-1.5535979400738142e-05,2.884765672206413e-05,1.9640297978185117e-05,-1.0673412361938972e-05,0.00010459827171871439
-2.055077493423596e-05,2.614255208754912e-05,2.1738776922575198e-05,-1.0160079000343103e-05,0.00010484967060619965
-2.4866629246389493e-05,2.0234247131156735e-05,2.5707036911626346e-05,-9.332698937214445e-06,0.0001041969662765041
-2.958104232675396e-05,6.9693078330601566e-06,2.594948273326736e-05,-6.69781456963392e-06,9.932321700034663e-05
-3.2091291359392926e-05,-3.1973650038708e-06,2.5333947633043863e-05,-4.334822278906358e-06,9.284925181418657e-05
-2.8117790861870162e-05,-6.699670848320238e-06,2.3838058041292243e-05,-3.989658125647111e-06,8.754994632909074e-05
-2.2225367501960136e-05,-5.036575657868525e-06,2.2387897843145765e-05,-6.477855094999541e-06,8.62297965795733e-05
-1.5844636436668225e-05,1.6863177734194323e-06,2.1619458493660204e-05,-6.141094672784675e-06,8.752263966016471e-05
-7.982374881976284e-06,1.18725411084597e-05,2.0274741473258473e-05,-3.4171623610745883e-06,8.758252806728706e-05
-3.839702458208194e-06,1.8680768334888853e-05,1.9134069589199498e-05,1.1555443961697165e-06,8.540315320715308e-05
-2.3885879727458814e-06,2.1410085537354462e-05,1.8044747776002623e-05,2.7128942292620195e-06,8.138574776239693e-05
-2.9374496079981327e-06,2.3197577320388518e-05,1.657453140069265e-05,-1.721881403682346e-06,7.606665894854814e-05
-3.5643702176457737e-06,2.6833793526748195e-05,1.2961558240931481e-05,-8.640668966108933e-06,7.238417310873047e-05
-4.652260031434707e-06,2.900253275583964e-05,9.931723980116658e-06,-1.1883672414114699e-05,6.83125399518758e-05
-6.060869054635987e-06,2.7389065508032218e-05,7.743044989183545e-06,-9.03002182894852e-06,6.376197416102514e-05
-9.612283975002356e-06,2.3044525732984766e-05,4.660171271098079e-06,-4.9281975407211576e-06,6.139309698482975e-05
-1.4287589692685287e-05,1.851914385042619e-05,2.8984006803511875e-06,-1.0554920208960539e-06,6.102885163272731e-05
-1.599093411641661e-05,1.695331775408704e-05,4.029265255667269e-06,5.083045380160911e-06,6.135751027613878e-05
-1.5351151887443848e-05,2.0609539205906913e-05,3.579628810257418e-06,1.1494861610117368e-05,5.945281736785546e-05
-1.5190670637821313e-05,2.6395746317575686e-05,1.3158816045688582e-06,1.1752708815038204e-05,5.258858436718583e-05
-1.5809495380381122e-05,2.648219742695801e-05,1.813800736272242e-06,8.748222171561792e-06,4.813558916794136e-05
-1.844859798438847e-05,2.5207573344232515e-05,2.7807479909824906e-06,5.371772658691043e-06,5.012063411413692e-05
-2.550002682255581e-05,2.2914595319889486e-05,-6.662468763352081e-07,-4.2152322521360475e-07,5.172862802282907e-05
-3.419779022806324e-05,2.729642073973082e-05,-5.413644885265967e-06,-5.650947969115805e-06,4.898057886748575e-05
-3.904063851223327e-05,3.4259566746186465e-05,-5.351730578695424e-06,-5.586076895269798e-06,4.0000213630264625e-05
-3.355241642566398e-05,3.112595368293114e-05,-1.3395440419117222e-06,-3.3126787002402125e-06,3.1176197808235884e-05
-2.803519782901276e-05,2.4297038180520758e-05,1.5790678844496142e-06,-4.212541171000339e-06,3.0342524041770957e-05
-2.8820977604482323e-05,2.29037777899066e-05,2.864047019102145e-06,-7.318698862945894e-06,3.349274265929125e-05
-3.267234569648281e-05,2.9771852496196516e-05,4.705669198301621e-06,-9.480556400376372e-06,3.359708352945745e-05
-4.030929630971514e-05,3.570002445485443e-05,1.128812255046796e-05,-8.065200745477341e-06,3.0939863790990785e-05
-4.664948210120201e-05,3.200450009899214e-05,1.887411781353876e-05,-5.559637429541908e-06,2.830353878380265e-05
-4.858907050220296e-05,2.4312194000231102e-05,2.088462315441575e-05,-5.539110134122893e-06,2.6151274141739123e-05
-4.960672231391072e-05,2.163691897294484e-05,1.9846971554215997e-05,-2.0773004507645965e-06,2.7007439712178893e-05
-4.574259219225496e-05,2.7584224881138653e-05,1.685059214651119e-05,3.157881565130083e-07,2.824550938385073e-05
-4.0002789319260046e-05,3.0611638067057356e-05,1.6334217434632592e-05,3.809290305412105e-08,2.8107728212489747e-05
-3.706986899487674e-05,2.6343381250626408e-05,1.572469773236662e-05,-5.1543738663895056e-06,2.652120565471705e-05
-3.89948436350096e-05,2.0555875380523503e-05,1.4085089787840843e-05,-1.1503818313940428e-05,2.5247052690247074e-05
-3.998056490672752e-05,1.8014801753452048e-05,1.4200302757672034e-05,-1.3002084415347781e-05,2.7119265723740682e-05
-3.760853360290639e-05,2.4466722607030533e-05,1.3088049854559358e-05,-1.0261553143209312e-05,3.0451055863522924e-05
-3.5986737202620134e-05,3.487306094029918e-05,1.1202020687051117e-05,-7.319973065023078e-06,3.33007556037046e-05
-3.556742376531474e-05,3.74307346646674e-05,9.268609574064612e-06,-8.680216524226125e-06,3.3425705623812973e-05
-3.6872697819489986e-05,3.020347867277451e-05,4.216361503495136e-06,-1.2742852049996145e-05,3.133972131763585e-05
-4.1182003769790754e-05,2.2226584405871108e-05,-4.416887804836733e-06,-1.739701474434696e-05,2.9124479624442756e-05
-4.422675192472525e-05,1.9387152860872447e-05,-9.614749615138862e-06,-1.9123634046991356e-05,2.6589344997773878e-05
-3.877830386045389e-05,2.3986971427802928e-05,-6.546182703459635e-06,-2.0044632037752308e-05,2.5302688300143927e-05
-2.928990579675883e-05,3.3486285246908665e-05,1.6511309013367281e-06,-2.147606028302107e-05,2.703911013668403e-05
-2.553769627411384e-05,3.6360968806548044e-05,7.612475201312918e-06,-2.1407753592939116e-05,2.8854703487013467e-05
-3.109220415353775e-05,3.4238113585161045e-05,1.0955053767247591e-05,-1.4598379493691027e-05,2.925840817624703e-05
-3.8535446947207674e-05,3.406816176720895e-05,1.5845744201214984e-05,-9.718005458125845e-06,2.9798618925269693e-05
-3.657029083115049e-05,3.152541830786504e-05,1.9856623111991212e-05,-1.1386036021576729e-05,3.4037420846289024e-05
-1.8570255633676425e-05,3.1529900297755376e-05,1.9281167624285445e-05,-1.288477869820781e-05,4.2181785829598084e-05
9.781241715245415e-06,3.70280395145528e-05,1.814360985008534e-05,-1.3532006050809287e-05,4.7696219553472474e-05
