-3.524375279084779e-05,2.832626341842115e-05,2.406553221590002e-06,-4.567886662698584e-06,7.667666795896366e-05
-3.553098576958291e-05,2.8709240723401308e-05,1.470701477046532e-06,-7.089537120918976e-06,7.725548493908718e-05
-3.136059967800975e-05,2.5199782612617128e-05,4.7561803739881725e-07,-7.212704986159224e-06,8.014309423742816e-05
-2.7341171517036855e-05,2.0635281543945894e-05,-2.2224102735890483e-07,-9.798211976885796e-06,8.02030845079571e-05
-2.910067814809736e-05,2.2315643946058117e-05,6.234152465367515e-07,-1.1084990546805784e-05,7.725718023721129e-05
-3.191981522832066e-05,2.46536383201601e-05,1.8330085822526598e-06,-1.0501467841095291e-05,7.526058470830321e-05
-2.8857677534688264e-05,2.532554935896769e-05,-1.8083873101204517e-06,-1.2686017726082355e-05,7.482194632757455e-05
-1.9578472347347997e-05,2.8227244911249727e-05,-5.3124963415029924e-06,-1.6911395505303517e-05,7.383825141005218e-05
-1.798408447939437e-05,2.5713870854815468e-05,-5.522900664800545e-06,-1.9787330529652536e-05,7.486879621865228e-05
-2.4121347451000474e-05,2.523299008316826e-05,-7.776098755130079e-06,-2.0085204596398398e-05,7.68352037994191e-05
-2.7625517759588547e-05,2.909012073359918e-05,-9.589384717401117e-06,-1.8348562662140466e-05,7.198370440164581e-05
-2.57596457231557e-05,3.197833211743273e-05,-8.91726176632801e-06,-1.4851722880848683e-05,6.606231181649491e-05
-1.8260778233525343e-05,3.463944449322298e-05,-7.33979641154292e-06,-1.1310666195640806e-05,6.377383397193626e-05
-8.002164577192161e-06,3.521288454066962e-05,-7.096385161275975e-06,-1.0324412869522348e-05,6.3470215536654e-05
-5.065828190708999e-06,3.1512037821812555e-05,-6.045750978955766e-06,-1.2459174286050256e-05,6.231697625480592e-05
-7.678330803173594e-06,2.5722343707457185e-05,-3.61590855391114e-06,-1.4637130334449466e-05,6.0701473557855934e-05
-6.439502612920478e-06,2.367174602113664e-05,-1.2366404007480014e-06,-1.4668413314211648e-05,6.048854993423447e-05
-2.343054347875295e-06,2.1844070943188854e-05,-3.5715999047170044e-07,-1.3785132068733219e-05,6.079991362639703e-05
-2.054904598480789e-06,1.6202209735638462e-05,3.4895302292170527e-07,-1.3362795471039135e-05,6.015069084241986e-05
-4.655372322304174e-06,5.327640792529564e-06,1.9596811853261897e-06,-1.285081816604361e-05,5.88935254199896e-05
-3.966254098486388e-06,-1.3745253681918257e-06,1.9968276774307014e-06,-1.4195064977684524e-05,5.8545258070807904e-05
-4.4388161768438295e-06,1.0579468835203443e-05,2.8458424594646203e-07,-1.7023709006025456e-05,5.905743455514312e-05
-1.1656753486022353e-05,3.26369954564143e-05,-3.4835312590075773e-07,-2.010766911553219e-05,6.085886343498714e-05
-1.9584625988500193e-05,4.0594430174678564e-05,-1.0816908257993418e-07,-2.312293872819282e-05,6.186880636960268e-05
-1.6171092283912003e-05,3.31630690197926e-05,1.5009695744083729e-06,-2.3586397219332866e-05,6.074156044633128e-05
-6.043130724719958e-06,2.3576289095217362e-05,4.884202553512296e-06,-2.084917650790885e-05,6.154823495307937e-05
-1.3555293207900831e-06,1.8747274225461297e-05,6.721000318066217e-06,-1.673100996413268e-05,6.32126466371119e-05
-8.517357855453156e-06,1.7367437976645306e-05,2.978919837914873e-06,-1.3909329027228523e-05,6.27772678853944e-05
-2.1543226466747e-05,1.531099042040296e-05,9.84585085461731e-07,-1.2812488421332091e-05,6.050432057236321e-05
-2.2918584363651462e-05,1.2826457350456621e-05,4.0732184061198495e-06,-7.957607522257604e-06,6.0952879721298814e-05
-1.721286025713198e-05,8.492483175359666e-06,6.947048859728966e-06,-3.300224534541485e-06,6.24579843133688e-05
-1.8389158867648803e-05,8.45815463890176e-07,8.489882020512596e-06,-5.3833264246350154e-06,6.333784403977916e-05
-2.0773821233888157e-05,-5.757025974162389e-06,5.881325250811642e-06,-4.530006208369741e-06,6.392077193595469e-05
-1.9314282326376997e-05,-5.837795015395386e-06,1.1120754095372831e-08,1.059931037161732e-06,6.549071986228228e-05
-1.7480651877122e-05,3.3512601476104464e-06,-3.7758036341983825e-06,1.4962871546231327e-06,6.645706889685243e-05
-1.6353031242033467e-05,1.2935326594742946e-05,-2.4122762170009082e-06,-4.797088422492379e-06,6.496710557257757e-05
-1.5302584870369174e-05,2.2382751922123134e-05,-7.730827746854629e-07,-1.0714165000536013e-05,6.256775668589398e-05
-1.7691021639620885e-05,3.395580279175192e-05,1.7102922811318422e-06,-1.3175676940591075e-05,6.0264657804509625e-05
-2.3277429136214778e-05,4.891783100902103e-05,2.869949412342976e-06,-1.0853205822058953e-05,5.791794683318585e-05
-2.8149135687272064e-05,6.618294719373807e-05,2.330029928998556e-06,-5.461417458718643e-06,5.536516982829198e-05
-2.8674956411123276e-05,8.11017889645882e-05,-2.2600515876547433e-06,-2.383917490078602e-06,5.384850737755187e-05
-2.5140678189927712e-05,8.692897972650826e-05,-9.924377991410438e-06,-5.076684374216711e-06,5.050333129474893e-05
-2.0560291886795312e-05,7.95899613876827e-05,-1.2368208444968332e-05,-1.0783643119793851e-05,4.5990738726686686e-05
-1.9367318600416183e-05,6.815460801590234e-05,-1.2943806723342277e-05,-1.4396491678780876e-05,4.533266110229306e-05
-2.280657281517051e-05,5.889840394956991e-05,-1.8797141819959506e-05,-1.555788367113564e-05,4.790355887962505e-05
-2.4887727704481222e-05,5.089114711154252e-05,-2.7617206797003746e-05,-1.4947477211535443e-05,4.6942277549533173e-05
-2.5317101972177625e-05,4.4772201363230124e-05,-2.8801845473935828e-05,-1.427843380952254e-05,4.480888310354203e-05
-2.6525824068812653e-05,4.004935908596963e-05,-2.1698768250644207e-05,-1.3345649676921312e-05,4.784401971846819e-05
-2.5829154765233397e-05,3.51020680682268e-05,-1.1771480785682797e-05,-1.0986805136781186e-05,5.389696889324114e-05
-2.5681316401460208e-05,3.068369915126823e-05,-1.2015889296890236e-06,-6.698341621813597e-06,5.727154712076299e-05
-3.0317905839183368e-05,2.1813435523654334e-05,1.0856108929147013e-05,-3.205295342922909e-06,5.743132714997046e-05
-3.247413405915722e-05,1.750664523569867e-05,2.047040470642969e-05,-3.8362240957212634e-06,5.680655885953456e-05
-2.9811710192007013e-05,2.4097631467157044e-05,3.025806654477492e-05,-9.56328040047083e-06,5.761846841778606e-05
-3.055201887036674e-05,3.170979834976606e-05,4.0148293919628486e-05,-1.237166998180328e-05,5.7535242376616225e-05
-3.289435335318558e-05,3.2916697819018736e-05,3.758097955142148e-05,-8.689424248586874e-06,5.585486724157818e-05
-3.455806654528715e-05,2.927922469098121e-05,2.745489837252535e-05,-3.9860710785433184e-06,5.7001532695721835e-05
-3.3280350180575624e-05,2.5946888854377903e-05,2.050957118626684e-05,-8.869996008797898e-07,5.768027767771855e-05
-2.881008549593389e-05,2.6202744265901856e-05,1.6812813555588946e-05,-6.778456054234994e-07,5.692253034794703e-05
-2.5465848011663184e-05,2.6882440579356626e-05,1.6223262718995102e-05,-4.3426684896985535e-06,5.844311817782e-05
-2.0730658434331417e-05,2.4948411009972915e-05,1.3502652109309565e-05,-8.454263479507063e-06,6.274657062022015e-05
-1.7756641682353802e-05,2.1740246666013263e-05,9.719305126054678e-06,-8.976483513833955e-06,6.729806773364544e-05
-2.0720963220810518e-05,2.057867641269695e-05,6.7918563217972405e-06,-1.167771279142471e-05,6.594116712221876e-05
-2.758292066573631e-05,2.5105713575612754e-05,4.953474672220182e-06,-1.5287714631995186e-05,5.880239405087195e-05
-3.162221400998533e-05,3.8901460357010365e-05,2.869047648346168e-06,-1.682052061369177e-05,5.3414223657455295e-05
-3.5105538700008765e-05,4.933002855977975e-05,-1.0765641889065591e-07,-1.4631611520599108e-05,5.701807822333649e-05
-4.0094917494570836e-05,4.767274731420912e-05,-1.7581533029442653e-06,-1.039448852679925e-05,6.355925142997876e-05
-4.2129759094677866e-05,3.840429417323321e-05,-3.2701257168810116e-06,-6.738790489180246e-06,6.66350606479682e-05
-4.135512426728383e-05,2.559686981840059e-05,-2.716862354645855e-06,-3.0806045288045425e-06,6.681776721961796e-05
-4.148127118241973e-05,1.0442050552228466e-05,3.1665740607422777e-07,-2.7413179850555025e-06,6.3732972193975e-05
-4.1413830331293866e-05,-3.593338533391943e-06,3.3396249818906654e-06,-4.547414391709026e-06,5.868596053915098e-05
-3.929293598048389e-05,-1.1433971849328373e-05,3.2615419058856787e-06,-4.946195531374542e-06,5.732407953473739e-05
-3.637622285168618e-05,-1.3801053682982456e-05,4.710081611847272e-06,-2.968051603602362e-06,5.8562993217492476e-05
-3.079386442550458e-05,-8.117059223877732e-06,1.0652200217009522e-05,-1.7540179442221415e-06,5.852455797139555e-05
-2.3513504856964573e-05,2.0093887087568874e-06,1.750603041728027e-05,-1.0735930544569783e-07,5.589893044088967e-05
-1.855496157077141e-05,1.2625787348952144e-05,2.0410192519193515e-05,1.8080639847539715e-06,5.23374583281111e-05
-1.7057971490430646e-05,2.5135279429377988e-05,2.1712232410209253e-05,-7.640846888534725e-07,5.3178628149908036e-05
-1.3825911992171314e-05,3.5818640753859654e-05,2.108124317601323e-05,-4.769821771333227e-06,5.7981025747722015e-05
-1.4294940228865016e-05,4.046588946948759e-05,1.9060278646065854e-05,-4.963693299941951e-06,6.069901792216115e-05
-1.7623215171624906e-05,4.418249591253698e-05,2.153836794605013e-05,-2.616264055177453e-06,5.866613719263114e-05
-1.5052153685246594e-05,4.734901085612364e-05,2.7383297492633574e-05,-1.5266980426531518e-06,5.751847493229434e-05
-1.4830389773123898e-05,4.7626344894524664e-05,3.357384048285894e-05,-2.419493966954178e-06,5.7309080148115754e-05
-1.736115154926665e-05,4.938829442835413e-05,3.419102722546086e-05,-1.7294786402999307e-06,5.690796024282463e-05
-1.6699155821697786e-05,5.08203956997022e-05,2.8685066354228184e-05,-4.110667305212701e-06,5.79719890083652e-05
-1.1497621017042547e-05,4.7836820158408955e-05,2.1539284716709517e-05,-7.492712029488757e-06,6.163981015561149e-05
-7.875138180679642e-06,4.2089093767572194e-05,1.5522182366112247e-05,-3.0904564027878223e-06,6.529955862788484e-05
-1.1803522284026258e-05,3.64103470928967e-05,1.0756170013337396e-05,6.634871141386611e-08,6.68739594402723e-05
-1.7135940652224235e-05,3.3307544072158635e-05,8.153416274581105e-06,-7.073365850374103e-06,6.455366383306682e-05
-1.7490325262770057e-05,2.744370976870414e-05,5.0458979785616975e-06,-1.5354573406511918e-05,5.8979905588785186e-05
-1.655535197642166e-05,1.8560569515102543e-05,-1.2462983249861281e-06,-1.8377253582002595e-05,5.5120952310971916e-05
-1.475523276894819e-05,9.869669156614691e-06,-5.08051562064793e-06,-1.7812144506024197e-05,5.6493128795409575e-05
-1.2007286386506166e-05,5.1491429076122586e-06,-2.776490418909816e-06,-1.2998181773582473e-05,5.7981775171356276e-05
-1.3954047062725294e-05,-4.385864826872421e-07,1.979876742552733e-06,-7.579883913422236e-06,6.0412199673010036e-05
-1.75696550286375e-05,-5.758582119597122e-06,3.5285102057969198e-06,-7.752813871775288e-06,6.322139233816415e-05
-1.896939465950709e-05,-5.858126314706169e-06,3.6376493426359957e-06,-1.3624717212223914e-05,6.149578257463872e-05
-1.710209107841365e-05,3.9663127608946525e-06,6.61894227960147e-06,-2.0146664610365406e-05,5.686773147317581e-05
-1.790240639820695e-05,1.7830700016929768e-05,1.1150423233630136e-05,-2.2196169084054418e-05,5.3375708375824615e-05
-2.022029184445273e-05,2.8805943657062016e-05,1.3860736544302199e-05,-1.8930139049189165e-05,5.211971074459143e-05
-2.1998886950314045e-05,3.636760084191337e-05,1.2130557479395065e-05,-1.4833350178378168e-05,5.194455661694519e-05
-2.521345959394239e-05,3.9346516132354736e-05,5.812889867229387e-06,-1.2766578947775997e-05,5.222871186560951e-05
-3.149640906485729e-05,4.41645534010604e-05,-1.1472526466604904e-06,-1.2847128346038517e-05,5.217004581936635e-05
-3.882597229676321e-05,5.196273195906542e-05,-3.3513667858642293e-06,-1.2224222700751852e-05,5.28309064975474e-05
-4.241696296958253e-05,5.5092394177336246e-05,-2.333662905584788e-06,-9.67457890510559e-06,5.5253349273698404e-05
-4.189596074866131e-05,5.037636583438143e-05,-6.525510343635688e-06,-8.608995813119691e-06,5.819079524371773e-05
-4.097243436262943e-05,4.771067688125186e-05,-1.5191126294666901e-05,-1.0599422239465639e-05,5.713908467441797e-05
-4.0367453038925305e-05,4.5329077693168074e-05,-1.8452266886015423e-05,-1.3802082321490161e-05,5.476550359162502e-05
-3.3669268304947764e-05,4.2434054194018245e-05,-1.4897747860231902e-05,-1.610246727068443e-05,5.158015846973285e-05
-2.3877699277363718e-05,4.358027581474744e-05,-6.6677152972260956e-06,-1.3378651601669844e-05,4.806294236914255e-05
-2.035404395428486e-05,4.556723069981672e-05,5.097918801766355e-06,-1.0974107681249734e-05,4.545829870039597e-05
-1.7148435290437192e-05,4.395893483888358e-05,1.3450932783598546e-05,-1.1167378033860587e-05,4.405334038892761e-05
-1.6953676094999537e-05,4.398945748107508e-05,1.5691035514464602e-05,-9.066256097867154e-06,4.72286919830367e-05
-2.2708669348503463e-05,4.715958493761718e-05,2.0828119886573404e-05,-8.262551091320347e-06,5.2235525799915195e-05
-2.36694158957107e-05,5.250309914117679e-05,2.6640898795449175e-05,-1.056627843354363e-05,5.327393955667503e-05
-2.65855596808251e-05,5.0599584938026965e-05,2.417520408926066e-05,-1.3421039511740673e-05,5.3871641284786165e-05
-3.1298459362005815e-05,3.904320328729227e-05,1.6807764041004702e-05,-1.773691656126175e-05,5.2934577979613096e-05
-3.315144931548275e-05,3.127927629975602e-05,1.1799048479588237e-05,-2.4981565729831345e-05,5.174534453544766e-05
-3.42271632689517e-05,3.295486749266274e-05,1.2047405107296072e-05,-3.1023548217490315e-05,5.0107631977880374e-05
-3.5861321521224454e-05,3.249420115025714e-05,1.1998402442259248e-05,-3.4194843465229496e-05,4.816507498617284e-05
-3.6588629882317036e-05,2.488696736691054e-05,9.237089216185268e-06,-3.247538552386686e-05,4.7782119509065524e-05
-3.607594771892764e-05,1.9765162505791523e-05,4.557610736810602e-06,-2.382148704782594e-05,4.573041223920882e-05
-3.279439624748193e-05,2.1441526769194752e-05,2.3166123810369754e-06,-1.617335328774061e-05,4.675630043493584e-05
-2.8776070394087583e-05,2.410828892607242e-05,6.329042889774428e-07,-1.1209616786800325e-05,5.2186314860591665e-05
-2.374206633248832e-05,2.443087760184426e-05,-2.141837512681377e-06,-5.983952632959699e-06,5.728027826990001e-05
-1.8995473510585725e-05,2.1043628294137307e-05,-3.512157263685367e-06,-3.356937668286264e-06,5.815904660266824e-05
-1.93487576325424e-05,1.584429082868155e-05,-4.273322247172473e-06,-5.922046511841472e-06,5.847374995937571e-05
-2.2386144337360747e-05,1.4586960787710268e-05,-3.06596507471113e-06,-9.057304851012304e-06,6.021565059199929e-05
-2.2400721718440764e-05,1.7836486222222447e-05,-1.5711015066699474e-06,-6.385684628185118e-06,6.125335494289175e-05
-1.8719640138442628e-05,1.984559821721632e-05,-2.321594365639612e-06,-2.3055199562804773e-06,6.275453051785007e-05
-1.8465523680788465e-05,1.8699343854677863e-05,-3.980817837145878e-06,-2.776937208182062e-06,6.490599480457604e-05
-2.4378781745326705e-05,1.8511871530790813e-05,-1.8055576447295607e-06,-6.67344238536316e-06,6.546721124323085e-05
-3.274442133260891e-05,1.7515874787932262e-05,3.0539360977854813e-06,-9.060502634383738e-06,6.583550566574559e-05
-3.5644337913254276e-05,1.2414439879648853e-05,4.630762305168901e-06,-1.0415015822218265e-05,6.720774399582297e-05
-3.393212318769656e-05,2.9938610168755986e-06,1.083941015167511e-06,-1.212376810144633e-05,6.649142596870661e-05
-3.471326272119768e-05,2.7169085115019698e-06,-4.565112249110825e-06,-1.645485644985456e-05,6.265236879698932e-05
-3.3333300962112844e-05,1.4602744158764835e-05,-7.90996455179993e-06,-1.9526367395883426e-05,5.9069636336062104e-05
-3.0967446946306154e-05,2.3654389224248007e-05,-1.9477131445455598e-06,-1.7561091226525605e-05,5.9724618040490896e-05
-3.2580708648310974e-05,2.1111607566126622e-05,5.251220954960445e-06,-1.8506179912947118e-05,6.096848301240243e-05
-3.255177944083698e-05,1.5245460417645518e-05,3.815409399976488e-06,-2.320327257621102e-05,6.114746065577492e-05
-2.8845070119132288e-05,1.9354314645170234e-05,1.9790288661170052e-06,-2.4178305466193706e-05,6.163968646433204e-05
-2.3808881451259367e-05,3.156498496537097e-05,2.13932798942551e-06,-2.0235138435964473e-05,6.3311803387478e-05
-2.7036487153964117e-05,4.3743169953813776e-05,4.114214789296966e-06,-1.7579584891791455e-05,6.351305637508631e-05
-2.995961403939873e-05,5.2644343668362126e-05,1.2618755135918036e-05,-1.6618425433989614e-05,5.90913841733709e-05
-2.77703620668035e-05,5.71242744626943e-05,1.6601667084614746e-05,-1.4632873899245169e-05,5.7609511713963e-05
-2.7294241590425372e-05,4.988885120837949e-05,8.439772500423715e-06,-1.1926724255317822e-05,5.9526537370402366e-05
-2.508304351067636e-05,2.2945123419049196e-05,-3.256203399359947e-06,-1.0230700354441069e-05,6.395413947757334e-05
-2.165825935662724e-05,-4.588224840063049e-07,-9.872203918348532e-06,-7.80490881879814e-06,6.724131526425481e-05
-2.260689507238567e-05,-1.5478682371394825e-06,-8.460031494905706e-06,-6.9937163971189875e-06,6.486311758635566e-05
-2.8581318474607542e-05,6.075431429053424e-06,-5.149657681613462e-06,-1.0402001862530597e-05,5.8603913203114644e-05
-3.0255689125624485e-05,1.8266092638441478e-06,-4.0257914406538475e-06,-1.335103479505051e-05,5.503834108822048e-05
-2.557807783887256e-05,-1.705418253550306e-05,-2.3935851913847728e-06,-1.1913428352272604e-05,5.654928463627584e-05
-2.045942164841108e-05,-4.444197111297399e-05,1.1654046829789877e-06,-6.562725047842832e-06,5.728501855628565e-05
-1.8113320038537495e-05,-6.701303937006742e-05,2.8058013867848786e-06,-2.490213773853611e-06,5.4765070672146976e-05
-1.7689293599687517e-05,-6.621115608140826e-05,1.1481233741506003e-06,-1.0593132628855528e-06,5.504468936123885e-05
-1.9060187696595676e-05,-4.160528624197468e-05,-1.0603663440633682e-06,6.94297597192417e-09,5.810708535136655e-05
-2.0937699446221814e-05,-5.870806944585638e-06,2.5041831719363472e-08,2.8655949790845625e-07,5.6210014008684084e-05
-2.0419318389031105e-05,2.417622999928426e-05,7.171289780671941e-06,-3.7342908854043344e-06,5.202429019846022e-05
-1.920565227919724e-05,4.0738483221502975e-05,1.584351048222743e-05,-6.603997462661937e-06,5.154059545020573e-05
-2.0702113033621572e-05,4.9649686843622476e-05,2.054500328085851e-05,-4.739638370665489e-06,5.4726395319448784e-05
-2.282910281792283e-05,5.60168300580699e-05,2.4937118723755702e-05,-2.3860220608185045e-06,5.8012334193335846e-05
-2.468925049470272e-05,5.762025830335915e-05,3.13076343445573e-05,-3.256464822243288e-07,5.9446381783345714e-05
-2.514920743124094e-05,5.852245521964505e-05,3.685517731355503e-05,7.451317287632264e-07,5.843206599820405e-05
-2.3687374778091908e-05,6.084718552301638e-05,3.6579876905307174e-05,-1.8714929410634795e-06,5.599173891823739e-05
-2.4896533432183787e-05,5.632254033116624e-05,3.098804518231191e-05,-9.001297257782426e-06,5.3941803344059736e-05
-2.5990479116444476e-05,4.713130329037085e-05,2.4717663109186105e-05,-1.2079218322469387e-05,5.8152811106992885e-05
-2.4071257939795032e-05,4.653711221180856e-05,2.2323967641568743e-05,-8.712145245226566e-06,6.0085316363256425e-05
-2.3439728465746157e-05,5.2161358325975016e-05,2.3222733943839557e-05,-8.767071449256036e-06,5.837312710355036e-05
-2.1022337023168802e-05,5.206778951105662e-05,2.0262430552975275e-05,-7.997487045940943e-06,5.930617044214159e-05
-1.4140433449938428e-05,4.7281344450311735e-05,1.1616933079494629e-05,-6.312837740551913e-06,6.013956954120658e-05
-1.4200468285707757e-05,5.1164730393793434e-05,-9.23668892482965e-07,-7.986797754711006e-06,6.1453552916646e-05
-1.9734061424969696e-05,5.9317913837730885e-05,-1.0184312486671843e-05,-9.260002116207033e-06,6.156844756333157e-05
-2.024616151174996e-05,5.826178676215932e-05,-1.3598810255643912e-05,-1.1755677405744791e-05,5.862486068508588e-05
-2.2197840735316277e-05,5.085909288027324e-05,-1.3089341337035876e-05,-1.2627295291167684e-05,5.7076249504461884e-05
-2.7487405532156117e-05,4.3890504457522184e-05,-1.3106541700835805e-05,-9.664632671047002e-06,6.00674502493348e-05
-3.424195165280253e-05,3.740056854439899e-05,-1.424302718078252e-05,-4.735255515697645e-06,6.358088285196573e-05
-3.963673225371167e-05,3.2449512218590826e-05,-1.4177860066411085e-05,-5.982047923680511e-07,6.502665200969204e-05
-3.734443453140557e-05,3.2349566026823595e-05,-1.560644705023151e-05,5.3996597415562064e-08,6.281685637077317e-05
-3.094632484135218e-05,3.448632196523249e-05,-1.6772039089119062e-05,-3.398690068934229e-06,6.123603816376999e-05
-2.7376068828743882e-05,3.44259970006533e-05,-1.428724772267742e-05,-7.307933174161008e-06,6.257212953642011e-05
-2.8992368243052624e-05,3.1854684493737295e-05,-9.077482900465839e-06,-8.2126643974334e-06,6.491759995697066e-05
-3.058968286495656e-05,2.9500470191123895e-05,-4.055160843563499e-06,-5.67115193916834e-06,6.615663005504757e-05
-2.344932363484986e-05,3.021385236934293e-05,5.132812361807737e-07,-1.6431667972938158e-06,6.44918909529224e-05
-7.1511935857415665e-06,3.5616871173260733e-05,3.347846586621017e-06,-4.724825686253098e-08,6.240808579605073e-05
5.946750661678379e-06,4.5154574763728306e-05,2.997650653924211e-06,-9.304744139626564e-07,6.089550151955336e-05
4.825178166356636e-06,5.139911445439793e-05,4.380213169952185e-07,-1.2232604831297067e-06,5.9041278291260824e-05
-5.175504156795796e-06,4.96197390020825e-05,2.030080104020726e-08,-2.079663090626127e-06,5.843152030138299e-05
-1.4447938156081364e-05,4.393707058625296e-05,4.752133008878445e-06,-5.079595666757086e-06,5.88642833463382e-05
-2.153583409381099e-05,3.939725138479844e-05,9.105437129619531e-06,-9.764235073816963e-06,5.9599376982077956e-05
-2.6722582333604805e-05,3.9139042200986296e-05,5.9173912632104475e-06,-1.3013160241825972e-05,6.163650687085465e-05
-3.1573057640343904e-05,3.871020453516394e-05,2.4529904294467997e-06,-1.23855825222563e-05,6.480416777776554e-05
-3.2791660487418994e-05,3.383437797310762e-05,4.756488124257885e-06,-1.057783083524555e-05,6.508740625577047e-05
-3.2365191145800054e-05,2.468634738761466e-05,1.3312683222466148e-05,-7.391538019874133e-06,6.396486423909664e-05
-3.3837539376690984e-05,1.6195808711927384e-05,1.8151040421798825e-05,-8.69329505803762e-06,6.700935045955703e-05
-3.497765646898188e-05,1.2717157915176358e-05,1.0195582035521511e-05,-1.5493622413487174e-05,6.589095573872328e-05
-3.1294704967876896e-05,1.2390180927468464e-05,2.7784651592810405e-06,-1.9809496734524146e-05,6.260604277485982e-05
-2.5602139430702664e-05,1.5627596440026537e-05,3.7311185678845504e-06,-2.059719008684624e-05,6.62609891151078e-05
-2.8437092623789795e-05,1.9462535419734195e-05,9.0446828835411e-06,-2.131656219717115e-05,7.151142199290916e-05
-3.1968018447514623e-05,2.4349532395717688e-05,1.097187396226218e-05,-2.1548332370002754e-05,7.031102722976357e-05
-3.204436507076025e-05,2.9925369744887576e-05,8.882931069820188e-06,-1.8201517377747223e-05,6.631793803535402e-05
-3.234335235902108e-05,2.869511445169337e-05,6.801547442591982e-06,-1.528307984699495e-05,6.801499694120139e-05
-3.0249526389525272e-05,2.72825600404758e-05,6.593860689463327e-06,-1.4988610928412527e-05,7.186014408944175e-05
-2.6610410714056343e-05,3.1066316296346486e-05,3.4617557957972167e-06,-1.711216646071989e-05,7.177674706326798e-05
-2.4848290195222944e-05,3.4811750083463266e-05,-4.757915121444967e-06,-1.9868404706357978e-05,6.816237146267667e-05
-2.417456198600121e-05,3.6846719012828544e-05,-1.4207380445441231e-05,-2.1460868083522655e-05,6.444003520300612e-05
-2.5771412765607238e-05,3.723929694388062e-05,-2.0367759134387597e-05,-2.2581541998079047e-05,5.937921378063038e-05
-3.108003147644922e-05,3.317046503070742e-05,-1.7616490367799997e-05,-2.3328842871706e-05,5.501807390828617e-05
-3.489540176815353e-05,2.9542925403802656e-05,-8.901549335860182e-06,-2.1416812160168774e-05,5.58000901946798e-05
-3.3982618333538994e-05,2.8628381187445484e-05,-5.112981853017118e-06,-1.7023068721755408e-05,6.145010411273688e-05
-3.381342321517877e-05,2.3828188204788603e-05,-9.586868145561311e-06,-1.4723533240612596e-05,6.509611557703465e-05
-3.6624205677071586e-05,1.648115721764043e-05,-1.2884565876447596e-05,-1.6956015315372497e-05,6.485387712018564e-05
-3.6421424738364294e-05,1.530743611510843e-05,-6.9258385337889194e-06,-2.1040030333097093e-05,6.366003071889281e-05
-3.470281444606371e-05,2.4081718947854824e-05,6.689037036267109e-06,-2.1744823243352585e-05,6.0917271184735e-05
-3.745956928469241e-05,3.524044586811215e-05,1.729205177980475e-05,-1.5987827282515354e-05,5.670499740517698e-05
-3.823406950687058e-05,3.9995084080146626e-05,2.148045132344123e-05,-8.420751328230835e-06,5.5766231525922194e-05
-3.698208456626162e-05,3.774002107093111e-05,2.3572432837681845e-05,-6.8774661485804245e-06,5.6147131545003504e-05
-3.7240813981043175e-05,3.772794661927037e-05,2.3768507162458263e-05,-9.040596523846034e-06,5.451359538710676e-05
-3.4375687391730025e-05,3.970427133026533e-05,2.7071719159721397e-05,-1.3300030332175083e-05,5.3680567361880094e-05
-3.00612737191841e-05,3.5177665267838165e-05,3.5085809940937907e-05,-1.7902133549796417e-05,5.436713763629086e-05
-3.3129490475403145e-05,2.257053529319819e-05,3.630141873145476e-05,-1.9470167899271473e-05,5.357680129236542e-05
-4.125223131268285e-05,1.331660314463079e-05,2.7297355700284243e-05,-1.9746645193663426e-05,5.287054955260828e-05
-3.930255479644984e-05,1.4774203918932471e-05,1.7815164028434083e-05,-2.250341458420735e-05,5.5905591580085456e-05
-3.617335096350871e-05,1.6790216250228696e-05,1.4270249266701285e-05,-2.500670962035656e-05,5.703509668819606e-05
-3.552883936208673e-05,1.5694135072408244e-05,1.416459690517513e-05,-2.4614224457764067e-05,5.999710629112087e-05
-3.4859087463701144e-05,1.2582130693772342e-05,1.3620020581583958e-05,-1.936205808306113e-05,6.280712113948539e-05
-3.5480647056829184e-05,1.2088621588191018e-05,9.106384823098779e-06,-1.3232568562671077e-05,6.370161281665787e-05
-3.572346395230852e-05,1.682414767856244e-05,5.045290890848264e-06,-1.1148234079882968e-05,6.230704457266256e-05
-3.5607474274002016e-05,1.995789170905482e-05,6.26200380793307e-06,-7.3921778493968304e-06,6.0268310335231945e-05
-3.532251139404252e-05,1.5042885024740826e-05,1.0349885087634902e-05,-4.69024325866485e-06,6.21245926595293e-05
-3.8234004023252055e-05,7.0492460508830845e-06,1.3390994354267605e-05,-7.10632411937695e-06,6.546738586621359e-05
-4.04572238039691e-05,3.86664260076941e-06,1.6147268979693763e-05,-1.0705521162890363e-05,6.37808334431611e-05
-3.7439720472320914e-05,8.322565918206237e-06,1.7999809642788023e-05,-9.436313121113926e-06,5.6961915106512606e-05
-3.267257852712646e-05,1.7021364328684285e-05,1.912165134854149e-05,-6.36726963421097e-06,5.2684546972159296e-05
-3.1965588277671486e-05,2.3094040443538688e-05,2.217100882262457e-05,-4.349850769358454e-06,5.250270260148682e-05
-3.269459921284579e-05,2.4587849111412652e-05,2.4661840143380687e-05,-2.4730375116632786e-06,5.471207623486407e-05
-3.334114808239974e-05,2.25592029892141e-05,2.373062125116121e-05,-9.543521173327463e-07,5.7054785429500043e-05
-3.4650449379114434e-05,2.176766429329291e-05,1.8668284610612318e-05,-7.233652468130458e-07,5.869225424248725e-05
-3.103038761764765e-05,2.7208014216739684e-05,1.3630632565764245e-05,-1.4312892062662286e-06,5.96952777414117e-05
-1.639780748519115e-05,3.949059100705199e-05,1.3469368241203483e-05,-2.741269554462633e-06,5.8761637774296105e-05
-1.2227014849486295e-06,4.818406523554586e-05,1.6786905689514242e-05,-4.714075203082757e-06,5.316503666108474e-05
4.150529548496706e-06,4.859561158809811e-05,1.6146877896972e-05,-5.2902182687830646e-06,4.832871854887344e-05
7.103481891590491e-08,4.7086079575819895e-05,1.3497577128873672e-05,-2.490376800778904e-06,4.959287616657093e-05
-7.780735359119717e-06,4.665731466957368e-05,1.1723895113391336e-05,4.382376914691122e-07,5.138543201610446e-05
-1.1647332030406687e-05,4.9911875976249576e-05,1.020302988763433e-05,-3.2686780286894646e-06,4.772256579599343e-05
-1.101917223422788e-05,5.4261498007690534e-05,8.286810043500736e-06,-7.257408014993416e-06,4.257877299096435e-05
-8.631968739791773e-06,4.9502818001201376e-05,7.551674116257345e-06,-6.562363068951527e-06,3.988168828072958e-05
-9.339027201349381e-06,3.8204994780244306e-05,7.286738309630891e-06,-3.3480514503025915e-06,4.171890395809896e-05
-1.5597524907207116e-05,3.6466979508986697e-05,5.747676368628163e-06,-3.022213604708668e-06,4.521898154052906e-05
-2.1184305296628736e-05,4.8825520934769884e-05,8.107996109174564e-06,-6.549011231982149e-06,4.481774885789491e-05
-2.2473443095805123e-05,5.82771681365557e-05,1.3376350580074359e-05,-6.187328381201951e-06,4.1951254388550296e-05
-2.3904787667561322e-05,5.945322845946066e-05,1.5189552868832834e-05,-4.466339760256233e-06,4.0899780287873e-05
-2.3544824216514826e-05,5.8696692576631904e-05,1.0264038792229258e-05,-2.1349344478949206e-06,4.218172762193717e-05
-1.5835788872209378e-05,5.6782260799081996e-05,2.896998012147378e-06,6.698940637761552e-07,4.4083128159400076e-05
-5.7639836086309515e-06,5.385074473451823e-05,3.254304829169996e-06,2.1314954210538417e-06,4.656807141145691e-05
1.095630977943074e-06,5.480989420902915e-05,8.649108167446684e-06,3.2490970625076443e-06,4.9870122893480584e-05
3.2748534977145027e-06,6.010936704115011e-05,1.0136656783288345e-05,5.426872462521715e-07,4.832158447243273e-05
5.501228272919434e-08,6.566811498487368e-05,9.213067642122041e-06,-2.4478126761096064e-06,4.548180368146859e-05
-3.2916768759605475e-06,6.780065450584516e-05,6.6217344283359125e-06,-3.919058599421987e-06,4.6401335566770285e-05
-2.5191720851580612e-06,5.3717529226560146e-05,4.878164872934576e-06,-5.11592224938795e-06,5.0540453230496496e-05
-3.4564543511805823e-06,2.5056733647943474e-05,5.449320269690361e-06,-6.099804068071535e-06,5.491905540111475e-05
-1.180402614409104e-05,4.522737526713172e-06,7.876299605413806e-06,-5.710547156922985e-06,5.582183075603098e-05
-2.0841407604166307e-05,9.505801244813483e-06,9.14621887204703e-06,-7.729437129455619e-06,5.432606121757999e-05
-1.78129666892346e-05,2.9162605642341077e-05,4.878420895693125e-06,-1.2959463674633298e-05,5.469928146339953e-05
-6.771763764845673e-06,4.281799920136109e-05,-2.5626368369557895e-06,-1.7190770449815318e-05,5.851110108778812e-05
-2.3153834263212048e-06,4.752643872052431e-05,-7.2866573646024335e-06,-1.70731327671092e-05,6.164234946481884e-05
-6.2779099607723765e-06,4.990954403183423e-05,-5.6792032410157844e-06,-1.3060966921329964e-05,6.428344204323366e-05
-1.2292368410271592e-05,5.041334225097671e-05,1.6026380933453765e-07,-1.1271908988419455e-05,6.658845086349174e-05
-1.654131119721569e-05,5.009121377952397e-05,3.2212115002039354e-06,-1.2149339454481378e-05,6.673943425994366e-05
-2.2613983674091287e-05,4.3962165364064276e-05,5.640109179694264e-07,-1.2339935892669018e-05,6.562169437529519e-05
-3.1624207622371614e-05,3.0293989766505547e-05,-3.6114795420871815e-06,-9.92537388810888e-06,6.676530028926209e-05
-3.6299948988016695e-05,1.920515569509007e-05,-8.915759281080682e-06,-6.856910204078304e-06,6.701282109133899e-05
-3.428272975725122e-05,1.2364828762656543e-05,-9.363846402266063e-06,-3.853821908705868e-06,6.549984391313046e-05
-3.421399014769122e-05,1.3097735063638538e-05,-2.8850270155089675e-06,-2.0067334389750613e-06,6.35571195743978e-05
-3.660029324237257e-05,2.379994111834094e-05,6.938698788871989e-07,-3.4450158636900596e-06,6.564931391039863e-05
-3.576330345822498e-05,2.9603099392261356e-05,-7.920755706436466e-06,-8.060325853875838e-06,6.930777453817427e-05
-3.0408766178879887e-05,2.0012070308439434e-05,-1.9927201719838195e-05,-1.1759650988096837e-05,6.42054874333553e-05
-2.508991201466415e-05,2.479942622812814e-06,-2.1103827748447657e-05,-1.1359673408151139e-05,5.4910375183681026e-05
-2.549428063503001e-05,-7.034312147879973e-06,-1.3500924978870898e-05,-7.027285391814075e-06,5.2126670198049396e-05
-3.064323391299695e-05,-2.7431299258751096e-06,-4.3812874537252355e-06,-1.4080472965360968e-06,5.355852044885978e-05
-3.29447393596638e-05,7.099840786395362e-06,1.6920758127980662e-08,-5.141862970958755e-07,5.542879443964921e-05
-3.2255509722745046e-05,1.544793303764891e-05,1.7320425058642286e-06,-7.845065397305007e-07,5.764668821939267e-05
-3.361210838193074e-05,1.828718086471781e-05,4.836735115532065e-06,-9.324273833044572e-07,5.84523550060112e-05
-3.090919926762581e-05,1.8223296137875877e-05,1.0163947081309743e-05,-4.0222307688964065e-06,5.7424251281190664e-05
-2.7521051379153505e-05,1.7254234990105033e-05,1.3728152225667145e-05,-4.211135546938749e-06,5.597444032900967e-05
-2.5531644496368244e-05,1.7915132048074156e-05,1.3756595762970392e-05,-1.3291268032844528e-06,5.5732845794409513e-05
-2.0286279323045164e-05,1.844892540248111e-05,9.866033906291705e-06,8.956284318628605e-07,5.4149841162143275e-05
-1.582110235176515e-05,1.3760382898908574e-05,4.757175247505074e-06,-9.762217132447404e-07,5.053268250776455e-05
-1.7104253856814466e-05,9.707369827083312e-06,1.5754203559481539e-06,-3.157783567075967e-06,4.856039959122427e-05
-1.9146436898154207e-05,1.1611296940827742e-05,-2.0118888244269328e-07,-2.563540419942001e-06,5.203399996389635e-05
-1.7589725757716224e-05,1.5236697436193936e-05,-7.061851761136495e-07,-2.7264941309113055e-06,5.992871228954755e-05
-1.3897692042519338e-05,1.4350586752698291e-05,-5.323494178810506e-07,-6.184341145853978e-06,6.49785142741166e-05
-1.3784481780021451e-05,1.3604654668597504e-05,-1.2409965393089806e-06,-1.0276810826326255e-05,6.628417031606659e-05
-2.1750303858425468e-05,1.6540490832994692e-05,-2.7275164029560983e-06,-1.2568654710776173e-05,6.531874532811344e-05
-2.9699711376451887e-05,1.798591620172374e-05,-1.5126225889616762e-06,-1.384848201269051e-05,6.433045928133652e-05
-3.2086940336739644e-05,1.7688224033918232e-05,-4.126900421397295e-07,-1.3622472579299938e-05,6.51808877591975e-05
-3.0323972168844193e-05,1.6049505575210787e-05,-5.098192104924237e-06,-1.3471752936311532e-05,6.414570088963956e-05
-2.964044142572675e-05,1.2439614692993928e-05,-1.2457582670322154e-05,-1.2233308552822564e-05,6.348461465677246e-05
-3.1227835279423743e-05,1.1240686944802292e-05,-1.4956256563891657e-05,-7.2018769969872665e-06,6.421282887458801e-05
-3.2129959436133504e-05,1.3020366168348119e-05,-1.3639344615512528e-05,-4.05626951760496e-06,6.523163756355643e-05
-3.1367471819976345e-05,1.5016850738902576e-05,-9.5044251793297e-06,-4.946939952787943e-06,6.409425259334967e-05
-3.081382601521909e-05,1.6626499927951954e-05,-1.5095816934262984e-06,-5.678525212715613e-06,5.806643457617611e-05
-3.453202225500718e-05,1.3870002476323862e-05,6.6745524236466736e-06,-7.673086656723171e-06,5.545627209357917e-05
-3.570054832380265e-05,9.653629604144953e-06,1.1686677680700086e-05,-1.0947738701361232e-05,5.628065628116019e-05
-3.205773464287631e-05,1.3525325812224764e-05,9.860903446679004e-06,-1.2591150152729824e-05,5.8918823924614117e-05
-3.4468153899069875e-05,1.9405131752137095e-05,3.566016175682307e-07,-1.5188521501841024e-05,6.356593075906858e-05
-3.804670268436894e-05,2.0072213374078274e-05,-4.0955278564069886e-06,-1.8982975234393962e-05,6.634792225668207e-05
-3.338721580803394e-05,2.239317291241605e-05,-3.706265943037579e-06,-1.870701089501381e-05,6.645925168413669e-05
-2.4723936803638935e-05,2.5221044779755175e-05,-3.4093388876499375e-06,-1.8009635823545977e-05,6.380293780239299e-05
-2.2492138668894768e-05,2.2110267309471965e-05,5.741032964579063e-07,-1.822356898628641e-05,6.485170888481662e-05
-2.4488525014021434e-05,1.5252605408022646e-05,6.6228999457962345e-06,-1.9391389287193306e-05,6.732507608830929e-05
-2.4732518795644864e-05,9.940774361894e-06,1.1526594789756928e-05,-2.242322989332024e-05,6.623622903134674e-05
-2.626362766022794e-05,1.2027051525365096e-05,1.5102606994332746e-05,-2.3123986466089264e-05,6.0859798395540565e-05
-2.9774048016406596e-05,1.9619183149188757e-05,1.6885926015675068e-05,-2.0578911062330008e-05,5.975163367111236e-05
-3.355045191710815e-05,2.598061109893024e-05,1.1909426575584803e-05,-1.6069665434770286e-05,6.406023749150336e-05
-3.5818815376842394e-05,2.911442243203055e-05,4.841403097088914e-06,-1.3128122191119473e-05,6.844593735877424e-05
-3.641087459982373e-05,3.043409924430307e-05,2.945243522844976e-06,-1.3958289855509065e-05,6.954147829674184e-05
-3.7024245102657005e-05,2.84532543446403e-05,6.7118348852091e-06,-1.481625258747954e-05,6.918321741977707e-05
-3.621620635385625e-05,2.589371615613345e-05,1.5095742128323764e-05,-1.4713548807776533e-05,6.850501813460141e-05
-3.119350003544241e-05,3.0642262572655454e-05,2.3829114070395008e-05,-1.6620930182398297e-05,6.78950673318468e-05
-2.814532126649283e-05,4.496060137171298e-05,2.6755358703667298e-05,-1.636897104617674e-05,6.998352910159156e-05
-3.4212749596918e-05,6.15319368080236e-05,2.791015685943421e-05,-1.0563349860603921e-05,7.176784856710583e-05
-4.54498986073304e-05,7.409539830405265e-05,3.0883111321600154e-05,-5.793874152004719e-06,6.978028250159696e-05
-4.894893936580047e-05,7.829189416952431e-05,3.154404112137854e-05,-8.024083399504889e-06,6.639895582338795e-05
-4.292567609809339e-05,6.671599840046838e-05,2.9268876460264437e-05,-1.2602868991962168e-05,6.795996887376532e-05
-3.514064883347601e-05,4.9786922318162397e-05,2.8395787012414075e-05,-1.4736791854375042e-05,6.983901403145865e-05
-3.13269229081925e-05,3.8437363400589675e-05,3.077422297792509e-05,-1.871307540568523e-05,6.835006934124976e-05
-3.3615826396271586e-05,3.1891060643829405e-05,3.315998037578538e-05,-1.9497820176184177e-05,6.578442844329402e-05
-3.6169156373944134e-05,3.184170418535359e-05,3.215084143448621e-05,-1.7676713468972594e-05,6.839494744781405e-05
-3.60463309334591e-05,3.11713338305708e-05,2.8351900255074725e-05,-1.4294163520389702e-05,7.138634828152135e-05
-3.2108917366713285e-05,2.6896104827756062e-05,2.6001378500950523e-05,-1.1261765394010581e-05,6.964830390643328e-05
-2.9784860089421272e-05,2.572310586401727e-05,2.3822936782380566e-05,-1.448953480576165e-05,6.609684351133183e-05
-3.108311284449883e-05,2.1785786884720437e-05,1.9478869944578037e-05,-1.670031269895844e-05,6.435113027691841e-05
-2.9969687602715567e-05,1.144338875747053e-05,1.688429620116949e-05,-1.4364300113811623e-05,6.318190571619198e-05
-2.5242123228963464e-05,3.0083610909059644e-06,1.2433661140676122e-05,-1.09780403363402e-05,6.133790157036856e-05
-1.685383904259652e-05,5.012643669033423e-06,4.275702849554364e-06,-1.1776414794439916e-05,5.8589812397258356e-05
-1.0323270544176921e-05,1.479696493333904e-05,-4.06709887101897e-06,-1.1452563740022015e-05,5.6858105381252244e-05
-1.1973932487308048e-05,2.264177965116687e-05,-1.299313225899823e-05,-7.175840892159613e-06,5.605788464890793e-05
-1.9184306438546628e-05,1.8471484509063885e-05,-2.014759047597181e-05,-4.429856744536664e-06,5.436567880678922e-05
-2.161715747206472e-05,1.0147461580345407e-05,-2.4751085220486857e-05,-8.160915967891924e-06,5.138988126418553e-05
-1.873011206043884e-05,9.727075848786626e-06,-2.7805124773294665e-05,-1.245696512341965e-05,4.8419991799164563e-05
-1.5553372577414848e-05,1.3937478797743097e-05,-2.533718361519277e-05,-1.3030145055381581e-05,5.136732943356037e-05
-1.16757582873106e-05,1.8439217456034385e-05,-1.5830897609703243e-05,-1.2738195437123068e-05,5.610566950053908e-05
-7.831506991351489e-06,2.3062380932969972e-05,-5.620406682282919e-06,-1.1404796168790199e-05,5.72129683860112e-05
-1.0657533493940718e-05,2.4626695449114777e-05,1.6050987596827326e-06,-1.0374367775511928e-05,5.693285493180156e-05
-1.75117911567213e-05,1.7314590877504088e-05,1.7879181086755125e-06,-1.0324923096050043e-05,5.7193570683011785e-05
-2.1618108803522773e-05,7.366404133790638e-06,-5.125938969285926e-06,-1.1378156159480568e-05,5.619126386591233e-05
-2.5828367142821662e-05,3.19661603498389e-06,-9.021538971865084e-06,-1.2866545148426667e-05,5.4374664614442736e-05
-3.255663250456564e-05,2.8047199407410517e-07,-5.145479462953517e-06,-1.5804213035153225e-05,5.330683779902756e-05
-4.133694528718479e-05,-1.0508077139093075e-05,-7.567559237031674e-07,-1.7302845662925392e-05,5.4952939535724e-05
-4.7495024773525074e-05,-1.8260199794895016e-05,6.102158067733399e-07,-1.5361221812781878e-05,5.906079968553968e-05
-4.7760539018781856e-05,-1.6268211766146123e-05,5.893813067814335e-06,-1.3756915905105416e-05,5.9381283790571615e-05
-3.981229747296311e-05,-8.790061656327453e-06,1.619070826563984e-05,-1.571180109749548e-05,5.695326399290934e-05
-3.125859802821651e-05,4.347927642811555e-06,2.1279833163134754e-05,-1.4755349184270017e-05,5.8783040003618225e-05
-3.397891123313457e-05,1.8730654119281098e-05,2.1970343368593603e-05,-8.859620720613748e-06,6.3087631133385e-05
-3.797103636316024e-05,3.4498927561799064e-05,2.5761530196177773e-05,-3.973683760705171e-06,6.633262819377705e-05
-3.7062411138322204e-05,4.266149699105881e-05,3.345430741319433e-05,-1.3582676672285743e-07,6.54828836559318e-05
-4.031512071378529e-05,4.981231177225709e-05,3.575492155505344e-05,5.881337870050629e-07,6.114588177297264e-05
-4.280710345483385e-05,6.265923730097711e-05,2.762724216154311e-05,-6.416674978027004e-07,5.990736826788634e-05
-3.819649282377213e-05,7.098648347891867e-05,1.6564457837375812e-05,-1.5685482139815576e-06,5.905397847527638e-05
-3.573652429622598e-05,7.233743963297457e-05,5.448834144772263e-06,-6.166219463921152e-06,5.554709059651941e-05
-3.214125899830833e-05,7.615773938596249e-05,-2.3212694486574037e-06,-9.33726732910145e-06,5.468580638989806e-05
-2.464755561959464e-05,9.204399975715205e-05,-3.2593268315395107e-06,-5.584143309533829e-06,5.284071448841132e-05
-1.969683034985792e-05,0.00010755391849670559,-1.0967967227770714e-06,-4.528119916358264e-06,5.129677811055444e-05
-1.682704532868229e-05,0.00011470256140455604,-5.999187919769611e-07,-1.0409115930087864e-05,5.1902272389270365e-05
-1.563550358696375e-05,0.00010253776417812333,8.483544320370129e-07,-1.2179209988971706e-05,5.119707202538848e-05
-1.672731013968587e-05,8.133772644214332e-05,5.570009307120927e-06,-6.576329724339303e-06,5.092572610010393e-05
-1.730164876789786e-05,6.772918277420104e-05,1.1902445294253994e-05,2.4948388954726397e-07,5.049624451203272e-05
-1.2547937330964487e-05,6.267864955589175e-05,1.3486848729371559e-05,1.5244709175021853e-06,4.9165737436851487e-05
-8.160818651958834e-06,5.631804378936067e-05,1.0251208550471347e-05,-4.049171820952324e-06,4.7153676860034466e-05
-7.741081390122417e-06,4.611476470017806e-05,4.5629049054696225e-06,-1.1561713108676486e-05,4.603977140504867e-05
-1.070597591024125e-05,3.566787563613616e-05,-1.6696078546374338e-06,-1.4825831385678612e-05,4.665179949370213e-05
-1.455698293284513e-05,2.5382856620126404e-05,-5.136468189448351e-06,-1.4695030586153734e-05,4.807216828339733e-05
-1.7449121514800936e-05,1.6076672181952745e-05,-3.895093414030271e-06,-1.6646179574308917e-05,4.8744099331088364e-05
-1.8678041669772938e-05,1.2219807103974745e-05,-2.044422672042856e-06,-1.7019579900079407e-05,4.9758793466025963e-05
-1.826790139602963e-05,1.5984360288712196e-05,-2.7584117106016492e-06,-1.4594912499887869e-05,4.987285865354352e-05
-1.952998536580708e-05,1.864911973825656e-05,-4.817686658498133e-06,-1.4674767953692935e-05,4.801938121090643e-05
-2.3145137674873695e-05,2.2052638087188825e-05,-9.583935025148094e-06,-1.6617144865449518e-05,4.7590390749974176e-05
-2.696230512810871e-05,2.383492756052874e-05,-1.3635844879900105e-05,-1.7783529983717017e-05,4.95039057568647e-05
-2.7777299692388624e-05,2.28529406740563e-05,-1.2180655176052824e-05,-1.815694668039214e-05,5.202050306252204e-05
-2.2114241801318713e-05,2.267127638333477e-05,-5.7740130614547525e-06,-1.5564282875857316e-05,5.625776248052716e-05
-1.718993553367909e-05,2.1406542145996355e-05,-3.5105816209579643e-07,-1.5967745639500208e-05,6.0883790865773335e-05
-2.4825476430123672e-05,1.944527139130514e-05,3.173464619976585e-06,-2.0872015738859773e-05,5.812013478134759e-05
-3.589496191125363e-05,1.9832457837765105e-05,1.5755836102471221e-06,-2.194497392338235e-05,5.348175182007253e-05
-3.442859087954275e-05,2.3172311557573266e-05,-2.841758032445796e-06,-1.7696673239697702e-05,5.555392272071913e-05
-3.202440348104574e-05,2.754954584816005e-05,6.050733531992591e-07,-1.051648268912686e-05,6.089616726967506e-05
-3.451628072070889e-05,2.20618585444754e-05,9.223042980011087e-06,-8.187142157112248e-06,6.196713366080076e-05
-3.8354079151758924e-05,1.827319101721514e-05,1.4129192095424514e-05,-7.49736636862508e-06,5.8983259805245325e-05
-4.038148472318426e-05,2.326043977518566e-05,1.4524019206874073e-05,-4.7965349949663505e-06,5.690532270818949e-05
-3.830354398814961e-05,3.007007035193965e-05,1.3326423868420534e-05,-6.849735655123368e-06,5.2049741498194635e-05
-3.6115026887273416e-05,2.9284692573128268e-05,1.3147748177289031e-05,-1.2783527381543536e-05,4.7816680307732895e-05
-3.196883335476741e-05,2.4803754058666527e-05,1.5348032320616767e-05,-1.9103035810985602e-05,4.7447414544876665e-05
-2.9039660148555413e-05,2.2156498744152486e-05,1.909151251311414e-05,-2.1659901904058643e-05,4.9467307690065354e-05
-2.6515681383898482e-05,1.981804598472081e-05,2.0769504772033542e-05,-2.1516749256988987e-05,5.330496787792072e-05
-2.435263195366133e-05,1.8909346181317233e-05,2.0711075194412842e-05,-2.0610817955457605e-05,5.7167439081240445e-05
-2.2112353690317832e-05,1.883072400232777e-05,1.802987389964983e-05,-1.8863296645577066e-05,6.114871939644217e-05
-2.2151998564368114e-05,1.8148402887163684e-05,1.5206443094939459e-05,-1.5831899872864597e-05,6.46116241114214e-05
-2.398431024630554e-05,1.8284983525518328e-05,1.6159339793375693e-05,-1.3680250049219467e-05,6.601389759453014e-05
-2.993945417983923e-05,2.3776947273290716e-05,1.8137154256692156e-05,-1.1774525773944333e-05,6.578635657206178e-05
-3.813538933172822e-05,3.0218958272598684e-05,1.620403418201022e-05,-1.0311954611097462e-05,6.408215995179489e-05
-4.100117803318426e-05,3.722743349499069e-05,1.1219774023629725e-05,-9.418066838406958e-06,6.408313493011519e-05
-3.6879464460071176e-05,4.317139973863959e-05,7.191094027803047e-06,-7.655668014194816e-06,6.669673166470602e-05
-3.278347503510304e-05,4.768624057760462e-05,5.074200544186169e-06,-7.387142431980465e-06,6.738201045664027e-05
-3.275496419519186e-05,5.365582910599187e-05,4.626842383004259e-06,-8.556468856113497e-06,6.379999831551686e-05
-3.135196311632171e-05,5.602262172033079e-05,3.4738195608952083e-06,-7.779046427458525e-06,6.052829121472314e-05
-3.085089338128455e-05,4.206867015454918e-05,4.303219157009153e-06,-3.764311941267806e-06,6.35805117781274e-05
-3.287476283730939e-05,1.8126780560123734e-05,4.036266091134166e-06,-1.3970633290227852e-06,6.833975930931047e-05
-2.610229785204865e-05,8.023393093026243e-06,6.839175057393732e-07,7.233240921777906e-07,6.791119812987745e-05
-1.221247930516256e-05,1.1502442248456646e-05,-9.106327638619405e-07,5.9183525991102215e-06,6.274106272030622e-05
-8.443261322099715e-06,7.333208941417979e-06,3.577746667815518e-07,8.215232810471207e-06,6.16027318756096e-05
-1.5319754311349243e-05,1.4735835520696128e-06,6.490827786365116e-07,2.9383268156379927e-06,6.385000597219914e-05
-1.766417881299276e-05,-1.2945239404871245e-06,-3.359949914738536e-06,-4.018582160369988e-07,6.29254718660377e-05
-1.660917951085139e-05,2.2222204165700532e-07,-8.373105629289057e-06,1.3685523470030603e-07,5.399111978476867e-05
-2.219681118731387e-05,5.301129476720234e-06,-1.4801553334109485e-05,-3.3198637083842186e-06,4.310243821237236e-05
-2.531148311391007e-05,6.493535238405457e-06,-2.1503014068002813e-05,-6.960322480153991e-06,4.188489037915133e-05
-2.675899668247439e-05,1.1874582014570478e-05,-2.444386700517498e-05,-9.079552910407074e-06,4.630413604900241e-05
-2.3016023988020606e-05,2.897426202252973e-05,-2.141756885976065e-05,-1.347228044323856e-05,4.942634768667631e-05
-1.1156518667121418e-05,4.4799071474699304e-05,-1.3534021491068415e-05,-1.7252183170057833e-05,5.145379691384733e-05
1.8420456626699888e-06,4.743336467072368e-05,-3.2053631002781913e-06,-1.904838063637726e-05,5.376277113100514e-05
7.25343443264137e-06,4.209346298011951e-05,8.81125743035227e-06,-2.0787374523933977e-05,5.604544639936648e-05
4.094171117685619e-07,2.897725426009856e-05,1.723383138596546e-05,-2.2320387870422564e-05,5.704996510758065e-05
-1.2113470802432857e-05,5.416427484306041e-06,1.9823371985694394e-05,-2.1753687178716063e-05,5.806151602882892e-05
-2.2893931600265205e-05,-1.1057929441449232e-05,1.9489467376843095e-05,-2.0118732209084556e-05,5.9491012507351115e-05
-2.896554178732913e-05,-3.21043080475647e-06,1.971166602743324e-05,-2.3329397663474083e-05,6.0130074416520074e-05
-3.200107312295586e-05,1.6915446394705214e-05,1.9666833395604044e-05,-2.6978037567459978e-05,5.940862320130691e-05
-3.4219763620058075e-05,3.097989974776283e-05,1.691943543846719e-05,-2.178480281145312e-05,5.9550806327024475e-05
-3.6738740163855255e-05,3.6078250559512526e-05,1.214769326907117e-05,-1.2588380741362926e-05,6.241702067200094e-05
-3.8758767914259806e-05,3.86525243811775e-05,7.799595550750382e-06,-1.0054110134660732e-05,6.74134207656607e-05
-3.971411570091732e-05,4.316237027524039e-05,6.047855094948318e-06,-1.3716379726247396e-05,7.325525803025812e-05
-3.4683234844123945e-05,4.517076740739867e-05,6.9603484007529914e-06,-1.6508261978742667e-05,7.521010411437601e-05
-2.5227132937288843e-05,3.999819455202669e-05,6.9993402576074e-06,-1.476629313401645e-05,7.400868344120681e-05
-1.8459306375007145e-05,3.461091182543896e-05,6.528400717797922e-06,-1.1407138117647264e-05,7.418228778988123e-05
-1.4187889064487536e-05,2.8996742912568152e-05,7.468308467650786e-06,-9.64051560004009e-06,7.515442121075466e-05
-6.512244453915628e-06,2.823475733748637e-05,8.022053407330532e-06,-9.659391253080685e-06,7.656231173314154e-05
2.56085695582442e-06,3.528065644786693e-05,2.5266936063417234e-06,-1.1093864486610983e-05,7.649547478649765e-05
-1.3343278482125243e-08,3.584475416573696e-05,-3.0986916499387007e-06,-1.1069159882026725e-05,7.595507486257702e-05
-1.563524710945785e-05,2.4979020963655785e-05,-1.2383216017042287e-06,-1.0219128853350412e-05,7.66992598073557e-05
-2.9442291634040885e-05,1.926778713823296e-05,3.004032009812363e-07,-7.738975909887813e-06,7.557874778285623e-05
-3.472293246886693e-05,2.511330421839375e-05,1.908055537569453e-06,-9.038771167979576e-06,7.339649891946465e-05
-3.279252632637508e-05,3.503009065752849e-05,4.110408553970046e-06,-1.4240747077565175e-05,7.309531065402552e-05
-3.4193617466371506e-05,3.743911292986013e-05,3.133798827548162e-06,-1.8182598068960942e-05,7.428089884342626e-05
-4.439800250111148e-05,2.6392046493128873e-05,2.085076175717404e-06,-1.584254096087534e-05,7.309087959583849e-05
-4.61149393231608e-05,1.7851290976977907e-05,1.8520958064982551e-06,-8.188711035472807e-06,7.019102486083284e-05
-3.83661717933137e-05,1.9746199541259557e-05,2.8840076993219554e-06,-3.6531359910441097e-06,6.643185770371929e-05
-3.289167943876237e-05,2.4119368390529417e-05,5.877071998838801e-06,-4.4227508624317124e-06,6.467437196988612e-05
-3.532925984472968e-05,2.4337117793038487e-05,7.827611625543796e-06,-9.384486475028098e-06,6.406065949704498e-05
-4.360825914773159e-05,2.4380709874094464e-05,1.077348042599624e-05,-1.1188210919499397e-05,6.505158671643585e-05
-4.6976336307125166e-05,2.8278727768338285e-05,1.4879564332659356e-05,-9.056426279130392e-06,6.617170583922416e-05
-4.3929718231083825e-05,3.623243173933588e-05,1.5653295122319832e-05,-6.827871402492747e-06,6.371817289618775e-05
-4.0973078284878284e-05,4.293819438316859e-05,1.325127414020244e-05,-8.837088898872025e-06,5.930165571044199e-05
-4.174726200290024e-05,4.452910798136145e-05,1.2861071809311397e-05,-1.1917708434339147e-05,5.8208941482007504e-05
-4.120109952054918e-05,4.429217369761318e-05,1.4389800526259933e-05,-1.3787878742732573e-05,5.891480032005347e-05
-3.6723940866068006e-05,4.234643711242825e-05,1.2834705557907e-05,-1.666089883656241e-05,5.6217766541521996e-05
-3.34565484081395e-05,3.761721745831892e-05,8.277986125904135e-06,-1.9051369235967286e-05,5.268696622806601e-05
-3.092107726843096e-05,3.6553057725541294e-05,4.13957377531915e-06,-1.9981973309768364e-05,5.226564462645911e-05
-2.5086195819312707e-05,4.18223935412243e-05,2.217502014900674e-06,-2.1932737581664696e-05,5.386725388234481e-05
-2.0164885427220725e-05,4.572576654027216e-05,1.837579134189582e-06,-2.230994687124621e-05,5.495299774338491e-05
-2.1971169189782813e-05,4.1630748455645517e-05,1.781231048880727e-06,-1.6919138943194412e-05,5.469383540912531e-05
-3.0290808354038745e-05,3.291027678642422e-05,4.817444221316691e-08,-7.096087301761145e-06,5.010911627323367e-05
-3.75464151147753e-05,2.4781411411822774e-05,5.053427685197676e-07,9.106124139179883e-07,4.4005912059219554e-05
-3.68247929145582e-05,2.015867539739702e-05,3.858066975226393e-06,2.0818424673052505e-06,4.308150164433755e-05
-2.9430535505525768e-05,1.650673038966488e-05,3.833201390079921e-06,4.897387952951249e-06,5.043850978836417e-05
-2.2774440367356874e-05,7.058377832436236e-06,3.2573320822848473e-06,9.82887559075607e-06,5.683097697328776e-05
-1.9380278899916448e-05,-8.201865853152412e-07,5.454272923088865e-06,9.993065759772435e-06,5.928233440499753e-05
-1.5607343812007457e-05,3.204842187187751e-06,8.683736268721987e-06,7.856286174501292e-06,5.732231147703715e-05
-1.4032346371095628e-05,1.8221155187347904e-05,1.0329862561775371e-05,6.616157406824641e-06,5.420631714514457e-05
-1.3206135008658748e-05,2.6618157789926045e-05,7.819166057743132e-06,4.744807483803015e-06,5.308495383360423e-05
-1.6197187505895272e-05,2.8968970582354814e-05,4.323340363043826e-06,-2.0982047317374963e-06,5.1067159802187234e-05
-1.8863209334085695e-05,3.2323783671017736e-05,2.7112387215311173e-06,-7.80662230681628e-06,5.229951784713194e-05
-1.489017449785024e-05,3.6436511436477304e-05,1.1771669505833415e-06,-7.042719971650513e-06,5.50270669918973e-05
-9.57173961069202e-06,3.946099241147749e-05,-8.800318482826697e-07,-7.4315139499958605e-06,5.487415910465643e-05
-3.2238096991932252e-06,3.821247810265049e-05,-2.5559565983712673e-06,-1.1154826097481418e-05,5.108117329655215e-05
5.131586817697098e-07,3.879162250086665e-05,-7.4279773798480164e-06,-1.7300897525274195e-05,4.672987051890232e-05
-7.403509130199382e-07,4.346089554019272e-05,-1.4789842680329457e-05,-1.8390615878161043e-05,4.498131966101937e-05
-8.848622201185208e-06,4.897837061434984e-05,-1.7245032722712494e-05,-1.3954992027720436e-05,4.42729469796177e-05
-1.7900651073432527e-05,5.1016748329857364e-05,-1.5041073311294895e-05,-1.1891458598256577e-05,4.367543806438334e-05
-2.280648914165795e-05,4.789375088876113e-05,-1.1586073014768772e-05,-1.4074862519919407e-05,4.418299431563355e-05
-2.1101010133861564e-05,3.850579014397226e-05,-7.135671694413759e-06,-1.3857178601028863e-05,4.504021489992738e-05
-2.0594832676579244e-05,2.73831064987462e-05,-1.7831939658208285e-06,-9.21422088140389e-06,4.390006870380603e-05
-2.643454536155332e-05,2.2504202206619084e-05,7.417049232572026e-07,-6.841464255558094e-06,4.126163912587799e-05
-2.897305239457637e-05,2.4731800294830464e-05,-2.0657093955378514e-06,-9.060413503902964e-06,3.947155346395448e-05
-2.3289299861062318e-05,2.8942249628016725e-05,-7.925650606921408e-06,-1.2019814676023088e-05,4.140793316764757e-05
-1.3838287486578338e-05,3.0621369660366327e-05,-1.000932479655603e-05,-1.2877228982688393e-05,4.3364951125113294e-05
-7.331874257943127e-06,2.7132429750054143e-05,-7.1583472163183615e-06,-1.3135696462995838e-05,4.384636486065574e-05
-8.52324865263654e-06,2.203329131589271e-05,-2.2624928988079773e-06,-1.1537268619576935e-05,4.743235695059411e-05
-1.9027294911211357e-05,1.4272780390456319e-05,1.9736291960725794e-06,-8.252232873928733e-06,5.454003985505551e-05
-2.9548444217653014e-05,6.4384553297713865e-06,3.9474598452216014e-06,-4.250479378242744e-06,5.8882749726762995e-05
-3.180688509019092e-05,7.121753242245177e-06,6.64931667415658e-06,-1.2613279523066012e-06,5.7011890021385625e-05
-2.7724478059099056e-05,1.704812893876806e-05,5.2979689826315735e-06,3.2441303119412623e-06,5.476070873555727e-05
-2.299606057931669e-05,2.2476720914710313e-05,2.6293266728316667e-06,5.316496753948741e-06,5.343693192116916e-05
-2.2633876142208464e-05,1.6723430235288106e-05,-1.8632516685102019e-06,-7.632394982692858e-08,5.360969225876033e-05
-2.3610798962181434e-05,1.088739008991979e-05,-1.4162579645926598e-05,-5.884857728233328e-06,5.6288183259312063e-05
-1.6409747331636027e-05,1.0212635061179753e-05,-2.4118258806993254e-05,-5.519513251783792e-06,6.018834756105207e-05
-1.3818115803587716e-05,1.592547596374061e-05,-2.3342696295003407e-05,-4.729932697955519e-06,6.197542097652331e-05
-1.9100938516203314e-05,2.2140262444736436e-05,-1.2041093214065768e-05,-8.709922440175433e-06,6.0107242461526766e-05
-2.491514169378206e-05,2.3659868020331487e-05,1.6621518383885814e-08,-1.2263386452104896e-05,6.063519685994834e-05
-2.8116621251683682e-05,2.7432877686806023e-05,-4.868234881882927e-08,-1.3617119293485302e-05,6.329749885480851e-05
-2.6526973670115694e-05,3.377771281520836e-05,-8.264801181212533e-06,-1.3961017430119682e-05,6.091873365221545e-05
-2.2605770936934277e-05,3.742641274584457e-05,-1.3199889508541673e-05,-1.4526262020808645e-05,5.845392297487706e-05
-2.1436177121358924e-05,3.503862535580993e-05,-1.3306332220963668e-05,-1.4596977052860893e-05,6.006910916767083e-05
-2.340903301956132e-05,2.602628774184268e-05,-1.0023670256487094e-05,-1.4944323083909694e-05,6.291989120654762e-05
-2.4245158783742227e-05,1.985686867556069e-05,-3.5353041312191635e-06,-1.3287639376358129e-05,6.296252831816673e-05
-2.65061498794239e-05,2.6377965696156025e-05,5.78539493290009e-06,-8.892038749763742e-06,6.07450601819437e-05
-3.130569893983193e-05,4.153980626142584e-05,1.564343983773142e-05,-7.983563591551501e-06,6.025191396474838e-05
-3.644480602815747e-05,5.1009392336709425e-05,2.4695840693311766e-05,-1.0835862667590845e-05,6.0294340073596686e-05
-3.828372427960858e-05,5.010655877413228e-05,3.434742029639892e-05,-1.3616946489491966e-05,6.045597547199577e-05
-3.917713547707535e-05,4.972713941242546e-05,4.3298903619870543e-05,-1.3219743777881376e-05,6.285315612331033e-05
-4.376747892820276e-05,5.865179264219478e-05,5.041937401983887e-05,-1.155477457359666e-05,6.668586138403043e-05
-4.9933030823012814e-05,7.228502363432199e-05,5.337191396392882e-05,-1.2480039913498331e-05,6.864209717605263e-05
-5.138192864251323e-05,8.049259486142546e-05,5.2525560022331774e-05,-1.405258535669418e-05,6.865607429062948e-05
-5.088288162369281e-05,7.772801473038271e-05,4.8157588025787845e-05,-1.226854874403216e-05,6.924136687302962e-05
-4.9370937631465495e-05,6.477031274698675e-05,3.98591291741468e-05,-6.280164598138072e-06,7.120152440620586e-05
-4.2215309804305434e-05,4.482219083001837e-05,3.382829891052097e-05,-1.227063989972521e-06,7.175718201324344e-05
-3.209492570022121e-05,1.9602177417255007e-05,3.2655272661941126e-05,-5.389938451116905e-06,7.099821959855035e-05
-2.2315141904982738e-05,-2.464115823386237e-06,3.274663322372362e-05,-1.2433313713700045e-05,6.918350845808163e-05
-1.4000117516843602e-05,-9.512490350971348e-07,2.921679879364092e-05,-1.52606353367446e-05,6.50610527372919e-05
-1.0440471669426188e-05,1.6712052456568927e-05,2.5462761186645366e-05,-1.4666046808997635e-05,6.237727211555466e-05
-1.2675958714680746e-05,2.5900551918311976e-05,2.698219941521529e-05,-1.3660659533343278e-05,6.392500654328614e-05
-1.565539241710212e-05,2.3376920580631122e-05,2.5166084014927037e-05,-1.2194152986921836e-05,6.594531441805884e-05
-1.6585419871262275e-05,1.8430897398502566e-05,2.3241242161020637e-05,-1.0913989171967842e-05,6.780988769605756e-05
-1.3046593267063145e-05,1.843111022026278e-05,2.4558219593018293e-05,-1.2795391739928164e-05,6.726662104483694e-05
-9.25526001083199e-06,1.993696241697762e-05,2.3618737031938508e-05,-1.752870957716368e-05,6.704782572342083e-05
-1.4898753761372063e-05,2.1092017050250433e-05,1.53531273099361e-05,-2.2410786186810583e-05,6.726953142788261e-05
-2.155655784008559e-05,2.243124254164286e-05,1.926702225318877e-06,-2.1730958906118758e-05,6.430417852243409e-05
-2.233412305940874e-05,2.459780080243945e-05,-2.6404518393974286e-06,-1.7261378161492757e-05,6.090118404245004e-05
-2.1942227249382995e-05,2.3553453502245247e-05,2.266506271553226e-06,-1.3227616364019923e-05,5.678047818946652e-05
-2.356771619815845e-05,1.9683500795508735e-05,8.340856766153593e-06,-1.1746672498702537e-05,5.481205880641937e-05
-2.5981680664699525e-05,1.4866405763314106e-05,9.785137081053108e-06,-1.1692915904859547e-05,5.671139297191985e-05
-2.9261938834679313e-05,1.3666192899108864e-05,1.10213877633214e-05,-1.6612009858363308e-05,5.868926746188663e-05
-3.301674223621376e-05,1.9241753761889413e-05,1.0431992450321559e-05,-2.1630512492265552e-05,5.6091375881806016e-05
-3.637159170466475e-05,2.5778823328437284e-05,7.878287760831881e-06,-2.0411489458638243e-05,5.3605275752488524e-05
-3.703986294567585e-05,2.8106722311349586e-05,7.237133104354143e-06,-1.5180728951236233e-05,5.445894566946663e-05
-3.476726487861015e-05,2.669724744919222e-05,7.933565029816236e-06,-1.0613592166919261e-05,5.6537559430580586e-05
-3.5557688534026965e-05,2.585798029031139e-05,6.2083254306344315e-06,-8.104937478492502e-06,5.717736348742619e-05
-3.9057711546774954e-05,2.4328010113094933e-05,3.1819467949389946e-06,-5.750120635639178e-06,5.716570740332827e-05
-4.011720739072189e-05,2.5177672796417028e-05,2.566577904872247e-06,-4.995143171981908e-06,5.811406663269736e-05
-3.856760304188356e-05,2.7928217605222017e-05,4.542682745523052e-06,-9.482829227636103e-06,5.8942943724105135e-05
-3.698782529681921e-05,2.5869871024042368e-05,7.243894287967123e-06,-1.618097667233087e-05,6.184857193147764e-05
-3.1728755857329816e-05,2.0478064470808022e-05,4.588506271829829e-06,-1.6461852283100598e-05,6.743731501046568e-05
-2.5887655283440836e-05,2.2143027308629826e-05,-3.008372232216061e-06,-1.1686681318678893e-05,6.947253132238984e-05
-2.4168677555280738e-05,2.617828613438178e-05,-8.822511517792009e-06,-9.294782103097532e-06,6.831553037045524e-05
-2.0161945940344594e-05,2.4951246814453043e-05,-1.2233575034770183e-05,-1.3488473996403627e-05,6.972158007556573e-05
-1.4612541235692333e-05,2.58561904047383e-05,-1.7002492313622497e-05,-1.5770929167047143e-05,7.019224722171202e-05
-1.4281261428550351e-05,2.8018210286973044e-05,-1.565646925882902e-05,-1.3293500160216354e-05,6.951412797207013e-05
-2.145876169379335e-05,2.1996256691636518e-05,-5.168668394617271e-06,-1.2916657396999653e-05,6.946540815988556e-05
-2.7788779334514402e-05,1.5445966710103676e-05,2.750581870714086e-06,-1.2967218026460614e-05,7.338384602917358e-05
-2.7739610231947154e-05,1.530820009065792e-05,2.9953466764709447e-06,-1.2855672139266971e-05,7.868443935876712e-05
-2.7699865313479677e-05,1.5783340131747536e-05,1.5075786450324813e-06,-1.1224390618735924e-05,7.829903915990144e-05
-2.9143879146431573e-05,1.3783255781163462e-05,-1.146389536188508e-06,-6.834455689386232e-06,7.302417361643165e-05
-3.43493593391031e-05,1.1025694220734295e-05,-7.825756256352179e-06,-7.173949597927276e-06,6.60088553559035e-05
-3.6381268728291616e-05,1.2387292372295633e-05,-1.544826773169916e-05,-9.670568033470772e-06,6.163317448226735e-05
-2.9893068131059408e-05,1.6830812455737032e-05,-1.4521626326313708e-05,-7.879889381001703e-06,6.11904906691052e-05
-1.951067133632023e-05,2.2396812710212544e-05,-8.8612378021935e-06,-4.735455149784684e-06,6.186659447848797e-05
-1.4658249710919335e-05,2.71403587248642e-05,-3.005774487974122e-06,-5.448215688375058e-06,6.15370663581416e-05
-1.7121414202847518e-05,2.9587412427645177e-05,7.008385409790208e-07,-9.112657608056907e-06,5.960871931165457e-05
-1.910368155222386e-05,3.4019143640762195e-05,2.481975116097601e-06,-1.2353498277661856e-05,5.8385179727338254e-05
-1.7897147699841298e-05,4.177189475740306e-05,5.028137366025476e-06,-1.1139684829686303e-05,6.0824022511951625e-05
-1.326867459283676e-05,4.889039701083675e-05,7.097687557688914e-06,-8.472326044284273e-06,6.43449166091159e-05
-7.561748589068884e-06,5.0021644710795954e-05,9.439805580768734e-06,-7.73654301156057e-06,6.240461516426876e-05
-5.318414423527429e-06,4.531727245193906e-05,1.2771636647812556e-05,-8.590051947976463e-06,5.539948688237928e-05
-7.17781949788332e-06,3.8356880395440385e-05,1.551386230858043e-05,-1.0392228432465345e-05,5.1702929340535775e-05
-8.54788322612876e-06,3.0224678994272836e-05,1.5924000763334334e-05,-1.1696391993609723e-05,5.4808453569421545e-05
-7.520124654547544e-06,2.3737780793453567e-05,1.3310746908246074e-05,-1.3217386367614381e-05,5.803447857033461e-05
-5.059661816630978e-06,2.108352600771468e-05,8.10342862678226e-06,-1.2924038855999243e-05,5.702722046407871e-05
-6.046665021131048e-06,2.0599132767529227e-05,3.109093086095527e-06,-1.0252935680910014e-05,5.4590032959822565e-05
-1.2692575182882138e-05,1.9615443306975067e-05,1.828953713811643e-06,-8.85237295733532e-06,5.215008422965184e-05
-2.291972305101808e-05,1.7994650988839567e-05,3.826686679531122e-06,-9.49933109950507e-06,5.2876712288707495e-05
-3.208572161383927e-05,1.5666864783270285e-05,4.617478225554805e-06,-7.854921022953931e-06,5.586527186096646e-05
-3.518812081892975e-05,1.7754766304278746e-05,7.031453606032301e-06,-3.308927034595399e-06,5.6928030971903354e-05
-3.327041122247465e-05,2.5488978280918673e-05,8.884754606697243e-06,-1.0879792853302206e-06,5.6751650845399126e-05
-3.1953641155269e-05,3.30248694808688e-05,7.343837751250248e-06,-6.23819346401433e-07,5.516507735592313e-05
-2.8969121558475308e-05,3.4602551750140265e-05,3.643800255304086e-06,-3.8044797179281886e-07,5.236883589532226e-05
-2.5675188226159662e-05,2.6200774300377816e-05,3.446246523708396e-07,-8.355869596243792e-08,5.286221130518243e-05
-2.5751774956006557e-05,1.4720892067998648e-05,-6.978493161113875e-07,1.7093896076403325e-06,5.5878659622976556e-05
-2.743774894042872e-05,1.4619035027862992e-05,-1.6253035255431314e-06,1.8204453908765572e-06,5.807523848488927e-05
-2.8246464353287593e-05,2.526096250221599e-05,-1.4560378076566849e-06,3.1067393138073385e-06,5.9984693507431075e-05
-2.810973637679126e-05,3.2516934879822657e-05,6.207532692314999e-07,2.6841250928555382e-06,5.789338320028037e-05
-2.7155823772773147e-05,3.843154991045594e-05,2.985286528200959e-06,-1.3354048178371158e-06,5.355788380256854e-05
-2.4439683329546824e-05,4.653158612200059e-05,4.447638275451027e-06,-4.954129053658107e-06,5.1015733333770186e-05
-2.3272637918125838e-05,5.06987635162659e-05,4.42346254203585e-06,-4.458627699932549e-06,4.95299682370387e-05
-2.470312210789416e-05,5.057268208474852e-05,4.245011041348334e-06,-4.002426976512652e-06,4.760559386340901e-05
-2.7375090212444775e-05,5.035001959186047e-05,1.948012823049794e-06,-7.3555088420107495e-06,4.738021380035207e-05
-2.802386552502867e-05,5.328878978616558e-05,-1.5310666867662803e-06,-1.1296348930045497e-05,4.836600419366732e-05
-2.5756038667168468e-05,6.213341112015769e-05,-3.742994522326626e-06,-1.246957981493324e-05,4.7882938815746456e-05
-2.2645608623861335e-05,7.529165304731578e-05,-1.4370367580340826e-06,-1.3977518392493948e-05,4.66809215140529e-05
-2.1159592506592162e-05,8.598794374847785e-05,3.3867079309857218e-06,-1.937428896781057e-05,4.814908970729448e-05
-2.114220114890486e-05,8.869761950336397e-05,6.306294380920008e-06,-2.399695040367078e-05,5.13617014803458e-05
-2.3258391593117267e-05,8.07276665000245e-05,5.7564457165426575e-06,-2.3626582333236e-05,5.308629260980524e-05
-2.82499058812391e-05,6.197878974489868e-05,5.20156118000159e-06,-1.843641439336352e-05,5.3969848522683606e-05
-3.189145718351938e-05,2.8035474315402098e-05,8.101801540760789e-06,-1.419485761289252e-05,5.558307748287916e-05
-3.420594293856993e-05,-1.627552046556957e-05,1.0752420166681986e-05,-1.5377163435914554e-05,5.740487540606409e-05
-3.717159415828064e-05,-4.849200195167214e-05,1.0299208042852115e-05,-1.9415900169406086e-05,5.7246998039772734e-05
-3.991045377915725e-05,-5.466382935992442e-05,8.92753178050043e-06,-2.006050999625586e-05,5.667055302183144e-05
-4.167344741290435e-05,-4.641809573513456e-05,8.934154720918741e-06,-1.6789703295216896e-05,5.6216831580968574e-05
-4.0262166294269264e-05,-3.7159228668315336e-05,9.540896826365497e-06,-1.2737173165078275e-05,5.702390626538545e-05
-3.619469134719111e-05,-2.5146531697828323e-05,1.1641456694633234e-05,-1.2048211829096545e-05,5.683319250238128e-05
-3.22739033435937e-05,-5.931003670411883e-06,1.1666800673992839e-05,-1.4479227502306458e-05,5.1521048590075225e-05
-2.5944900698959827e-05,1.4447265130002052e-05,9.329216482001357e-06,-1.5950681699905545e-05,4.748544961330481e-05
-1.8785851352731697e-05,3.1553729058941826e-05,3.0921755751478486e-06,-1.3914552255300805e-05,4.868268661084585e-05
-1.7906493667396717e-05,4.1508174035698175e-05,-2.7010496523871552e-06,-1.335170691163512e-05,5.2547664381563663e-05
-1.753403375914786e-05,4.3615327740553766e-05,-2.3048755792842712e-06,-1.5904204701655544e-05,5.496159792528488e-05
-1.888455699372571e-05,4.719208300230093e-05,4.544258899841225e-06,-1.4130237104836851e-05,5.646975841955282e-05
-2.2490541596198454e-05,5.779551429441199e-05,1.238450022356119e-05,-6.722324542351998e-06,6.081833635107614e-05
-2.758958908088971e-05,6.828249024692923e-05,1.9706241801031865e-05,-4.7753746912349015e-06,6.325582216959447e-05
-2.6937634174828418e-05,6.876348197693005e-05,2.6701800379669294e-05,-5.936374691373203e-06,6.500293966382742e-05
-2.0245475752744824e-05,6.188623228808865e-05,3.134018697892316e-05,-5.689637873729225e-06,6.269371078815311e-05
-1.995000093302224e-05,5.5155640438897535e-05,3.494480188237503e-05,-4.60248611489078e-06,5.704456634703092e-05
-2.3730068278382532e-05,5.250891626928933e-05,3.41126651619561e-05,-8.281361942863441e-07,5.3458617912838235e-05
-2.9997618185007013e-05,4.612520569935441e-05,3.216478580725379e-05,1.3663460549651063e-06,5.6175023928517476e-05
-2.9443506718962453e-05,3.710191595018841e-05,3.015439142473042e-05,3.4030261986117694e-07,6.158003088785335e-05
-2.861183020286262e-05,3.317035952932201e-05,2.664704697963316e-05,-5.890730676583189e-07,6.455356924561784e-05
-3.005116195708979e-05,3.406312316656113e-05,2.264372778881807e-05,1.3968964367450099e-06,6.385153392329812e-05
-3.079352973145433e-05,3.2733729312894866e-05,2.0041561583639123e-05,2.4010032575461082e-06,6.14905366091989e-05
-3.372500214027241e-05,3.0064446036703885e-05,1.8012420696322806e-05,9.974526449241239e-08,6.174750888021663e-05
-4.198712485958822e-05,2.9002860173932277e-05,1.5100524251465686e-05,-2.992929694300983e-06,6.318664964055642e-05
-4.6313347411341965e-05,2.9151569833629765e-05,9.957045222108718e-06,-2.631754341564374e-06,6.316700455499813e-05
-4.092330709681846e-05,3.1352661608252674e-05,6.352674063236918e-06,-1.0324423982410735e-07,6.045863119652495e-05
-3.691543315653689e-05,3.249934525229037e-05,8.260114555014297e-06,-4.5913996160606985e-08,5.760857675340958e-05
-3.955860302085057e-05,2.8834594559157267e-05,1.0089985153172165e-05,-3.486377408989938e-06,5.492666969075799e-05
-4.2973028030246496e-05,2.2182486645760946e-05,2.771357912934036e-06,-5.309852895152289e-06,5.3040002967463806e-05
-3.989332617493346e-05,1.434969362890115e-05,-8.974784577731043e-06,-6.4700129769335035e-06,5.065801815362647e-05
-3.762297274079174e-05,3.178499810019275e-06,-1.4307404853752814e-05,-1.002846511255484e-05,5.104556112200953e-05
-3.451426891842857e-05,-2.7886540010513272e-06,-1.513883671577787e-05,-1.3078674783173483e-05,5.766718095401302e-05
-2.2814765543444082e-05,3.779228109124233e-06,-1.1062059456889983e-05,-9.679930371930823e-06,6.29208589089103e-05
-1.5035337128210813e-05,1.172636439150665e-05,-4.85179907627753e-06,-6.6717047957354225e-06,6.203426892170683e-05
-2.2682312192046084e-05,5.741993845731486e-06,-4.813249688595533e-06,-8.798402632237412e-06,6.071995449019596e-05
-2.9720657039433718e-05,4.09101448894944e-06,-6.667268280580174e-06,-1.0614389793772716e-05,5.9356414567446336e-05
-2.4007278625504114e-05,1.6451602277811617e-05,-5.044417775934562e-06,-8.714800969755743e-06,6.002745431032963e-05
-6.631210453633685e-06,2.9147688110242598e-05,-4.601526143233059e-06,-8.416735909122508e-06,6.317048973869532e-05
1.4081790141062811e-05,2.9457933123921975e-05,-1.072794702849933e-06,-1.3939405107521452e-05,6.544109783135355e-05
2.4136516003636643e-05,2.35574298130814e-05,2.3899576717667514e-06,-1.5883106243563816e-05,6.34286116110161e-05
2.0611234504031017e-05,2.8919987016706727e-05,1.4246132877815398e-06,-1.7486901924712583e-05,6.0014841437805444e-05
1.295311358262552e-05,3.507593646645546e-05,-1.9870813048328273e-06,-1.7144877347163856e-05,5.687968950951472e-05
2.24508335122664e-06,3.0301605875138193e-05,-6.123916591604939e-06,-1.5094921764102764e-05,5.5430151405744255e-05
-4.073010586580494e-06,2.4048447812674567e-05,-8.544461707060691e-06,-1.2156984666944481e-05,5.581974983215332e-05
-5.3732164815301076e-06,2.3749451429466717e-05,-8.170973160304129e-06,-9.180883353110403e-06,5.7866891438607126e-05
-4.342454758443637e-06,2.2663620256935246e-05,-6.812081664975267e-06,-8.284413524961565e-06,5.9319307183614e-05
-4.135651579417754e-06,2.572368066466879e-05,-8.184553735191002e-06,-1.1356001778040081e-05,5.854936898685992e-05
-5.653675543726422e-06,3.120729888905771e-05,-9.731420504976995e-06,-1.740439074637834e-05,6.0047088481951505e-05
-6.7631740421347786e-06,3.0244100344134495e-05,-9.037856216309592e-06,-2.075483280350454e-05,6.48750938125886e-05
-9.187233445118181e-06,2.7430061891209334e-05,-1.103068370866822e-05,-2.058124664472416e-05,6.690062582492828e-05
-1.4632949387305416e-05,3.091264079557732e-05,-1.75283603311982e-05,-1.8521261154091917e-05,6.366599700413644e-05
-2.1683659724658355e-05,3.647807170636952e-05,-2.148836756532546e-05,-1.8943746908917092e-05,6.216495967237279e-05
-2.6578787583275698e-05,3.770504190470092e-05,-1.956801315827761e-05,-2.164031502616126e-05,6.402705184882507e-05
-3.0381333999685012e-05,3.6324039683677256e-05,-1.3357081115827896e-05,-2.5670038667158224e-05,6.598324398510158e-05
-3.754311546799727e-05,3.08850321744103e-05,-4.8165097723540384e-06,-2.5669916794868186e-05,6.503167242044583e-05
-4.2623578337952495e-05,2.1961741367704235e-05,8.201266609830782e-06,-1.8036898836726323e-05,6.403893348760903e-05
-3.8926526030991226e-05,1.838487878558226e-05,2.3775732188369147e-05,-8.763106052356306e-06,6.519989983644336e-05
-3.9969403587747365e-05,1.8124948837794363e-05,3.6386500141816214e-05,-8.584657734900247e-06,6.430930079659447e-05
-4.608836388797499e-05,1.2920076187583618e-05,4.321678352425806e-05,-1.2013631931040436e-05,6.238248897716403e-05
-4.719612843473442e-05,8.46193142933771e-06,3.992709389422089e-05,-1.0088429007737432e-05,6.65522093186155e-05
-4.683400766225532e-05,4.9064169616030995e-06,2.811672311509028e-05,-8.190215339709539e-06,6.920527084730566e-05
-5.205759953241795e-05,1.9344890915817814e-06,1.7787218894227408e-05,-9.706400305731222e-06,6.480074807768688e-05
-5.319640695233829e-05,3.1258855415217113e-06,1.3237887287687045e-05,-1.1426887795096263e-05,6.160832708701491e-05
-4.3569394620135427e-05,7.81260405346984e-06,1.470610368414782e-05,-1.1940041986235883e-05,6.251234299270436e-05
-3.3086609619203955e-05,1.365583830192918e-05,1.5558905943180434e-05,-1.1088816791016143e-05,6.463894533226267e-05
-3.0425786462728865e-05,1.9007888113264926e-05,1.2611425518116448e-05,-9.172877071250696e-06,6.874553946545348e-05
-3.3940388675546274e-05,2.0277762814657763e-05,8.289803190564271e-06,-6.034599664417328e-06,7.001452468102798e-05
-3.914281114703044e-05,2.2293001165962778e-05,5.069685357739218e-06,-6.6865954977402e-06,6.65708867018111e-05
-3.4668872103793547e-05,2.545302595535759e-05,4.574138984025922e-06,-8.825878467177972e-06,6.022925299475901e-05
-3.1983188819140196e-05,2.9374428777373396e-05,6.93828405928798e-06,-1.0767903404484969e-05,5.633876571664587e-05
-4.053817974636331e-05,3.4098677133442834e-05,1.064922889781883e-05,-1.209590209327871e-05,5.6352328101638705e-05
-4.994487971998751e-05,3.661916343844496e-05,1.0090399882756174e-05,-1.0326602023269515e-05,5.637716458295472e-05
-5.055002839071676e-05,3.800924969254993e-05,6.442533049266785e-06,-7.752826604701113e-06,5.500835686689243e-05
-4.6423589083133265e-05,4.206445373711176e-05,4.230703325447394e-06,-5.171678822080139e-06,5.485252768266946e-05
-4.6306093281600624e-05,4.964663821738213e-05,3.3873855045385426e-06,-5.29479166289093e-06,5.676264117937535e-05
-4.793662446900271e-05,5.806904300698079e-05,4.132815320190275e-06,-6.763501914974768e-06,5.779303319286555e-05
-4.523075767792761e-05,6.739168020430952e-05,7.960687071317807e-06,-6.107453373260796e-06,5.780426727142185e-05
-3.576981907826848e-05,7.066678517730907e-05,1.4317054592538625e-05,-4.476692083699163e-06,5.813341340399347e-05
-2.7236492314841598e-05,6.123883213149384e-05,2.0261451936676167e-05,-5.546869033423718e-06,5.695699655916542e-05
-2.2851896574138664e-05,4.064104723511264e-05,2.0578836483764462e-05,-8.314589649671689e-06,5.587788109551184e-05
-2.2304360754787922e-05,1.9679131582961418e-05,1.4622826711274683e-05,-1.0981922969222069e-05,5.823021274409257e-05
-1.8343207557336427e-05,1.1970236300840043e-05,9.657074770075269e-06,-1.0711303730204236e-05,6.0030452004866675e-05
-8.947714377427474e-06,2.1083795218146406e-05,9.18296427698806e-06,-9.660430805524811e-06,5.7820798247121274e-05
-5.852171852893662e-06,2.975436655106023e-05,8.886202522262465e-06,-1.1444741176092066e-05,5.359251008485444e-05
-1.5932359019643627e-05,2.705512633838225e-05,4.5860156205890235e-06,-1.2094593330402859e-05,5.4021587857278064e-05
-2.533404949645046e-05,2.227489858341869e-05,-5.711838184652152e-07,-1.2258900824235752e-05,5.5075070122256875e-05
-2.482117633917369e-05,2.5335191821795888e-05,-3.4240124477946665e-06,-1.368033917970024e-05,5.493506614584476e-05
-2.174584733438678e-05,3.065794589929283e-05,-4.540582267509308e-06,-1.1346893188601825e-05,5.3593226766679436e-05
-2.1015854144934565e-05,3.3946253097383305e-05,-7.751186785753816e-07,-6.822263912908966e-06,5.4343545343726873e-05
-2.7009085897589102e-05,3.615312016336247e-05,8.733678669159417e-07,-3.5201931041228818e-06,5.7244546042056754e-05
-3.883708632201888e-05,4.078715210198425e-05,-2.9965060548420297e-06,-6.2439166867989115e-06,5.478904859046452e-05
-4.6027402277104557e-05,5.2237952331779525e-05,-3.704605887833168e-06,-1.104374950955389e-05,4.804592754226178e-05
-4.789032755070366e-05,6.373560609063134e-05,-9.035076686814136e-07,-1.2557786249089986e-05,4.3369003833504394e-05
-4.9560298066353425e-05,6.625593232456595e-05,1.7715530020723236e-07,-1.3485709132510237e-05,4.563989568850957e-05
-4.950470611220226e-05,5.921872070757672e-05,-3.233447614547913e-06,-1.4700894098496065e-05,5.2261868404457346e-05
-4.1308918298454955e-05,4.8204496124526486e-05,-4.732450634037377e-06,-1.53738528752001e-05,5.47677518625278e-05
-3.4483291528886184e-05,3.590974665712565e-05,-8.750959068493103e-07,-1.4801335964875761e-05,5.378383139031939e-05
-3.158579420414753e-05,2.7734824470826425e-05,-7.423215265589533e-06,-1.289518149860669e-05,5.476363730849698e-05
-3.2622087019262835e-05,2.44322327489499e-05,-2.851113458746113e-05,-1.039509879774414e-05,5.721145498682745e-05
-3.542911872500554e-05,2.140457036148291e-05,-4.632920536096208e-05,-1.0274112355546094e-05,6.031426164554432e-05
-3.803138679359108e-05,1.8502956663724035e-05,-4.747639104607515e-05,-1.0437881428515539e-05,6.404289888450876e-05
-4.088600690010935e-05,1.879511728475336e-05,-3.4822398447431624e-05,-9.439945642952807e-06,6.702273094560951e-05
-3.919925438822247e-05,2.5852812541415915e-05,-1.5584017091896385e-05,-9.889036846288946e-06,6.592491263290867e-05
-3.528389424900524e-05,4.179742245469242e-05,3.911285148205934e-06,-1.1565452950890176e-05,6.197876064106822e-05
-3.246066262363456e-05,6.011935693095438e-05,2.1898797058383934e-05,-1.216750570165459e-05,6.121862679719925e-05
-3.23415151797235e-05,6.902571476530284e-05,3.7797613913426176e-05,-1.1901002835656982e-05,6.356737139867619e-05
-2.9691029340028763e-05,6.396450044121593e-05,4.736621485790238e-05,-1.298405186389573e-05,6.596070306841284e-05
-2.268545540573541e-05,4.327172791818157e-05,4.8869351303437725e-05,-1.4968355571909342e-05,6.717521318932995e-05
-1.2526504178822506e-05,7.011989964667009e-06,4.498711496125907e-05,-1.3330770343600307e-05,6.634666351601481e-05
-6.467632374551613e-06,-2.7766738639911637e-05,4.230106060276739e-05,-9.515101737633813e-06,6.583635695278645e-05
-6.42710483589326e-06,-3.580604970920831e-05,4.0249706216854975e-05,-7.750070835754741e-06,6.741273682564497e-05
-1.1146207725687418e-05,-1.6861737094586715e-05,3.50874979631044e-05,-6.976094937272137e-06,6.771974585717544e-05
-1.4659433873021044e-05,6.380277227435727e-06,2.822722126438748e-05,-2.3425106974173104e-06,6.389432383002713e-05
-1.436688944522757e-05,1.6430323739768937e-05,2.1115783965797164e-05,9.449708500142151e-07,5.834762487211265e-05
-1.6055240848800167e-05,1.2724544831144158e-05,1.3062209291092586e-05,-2.362518671361613e-06,5.5970238463487476e-05
-2.281107663293369e-05,5.509882612386718e-06,2.9792283839924494e-06,-5.265035269985674e-06,5.384282485465519e-05
-2.491606937837787e-05,8.503550816385541e-06,-6.27562894806033e-06,-4.072802767041139e-06,4.717451156466268e-05
-2.0931722247041762e-05,2.123699596268125e-05,-1.2691279152932111e-05,-2.9072195957269287e-06,4.1609160689404234e-05
-1.604632052476518e-05,2.994558417412918e-05,-1.5200757843558677e-05,-6.731489975209115e-06,4.207133315503597e-05
-1.0163221304537728e-05,2.8472364647313952e-05,-1.4883081348671112e-05,-1.2453786439436954e-05,4.805985008715652e-05
-6.390524049493251e-06,2.764218697848264e-05,-1.248080388904782e-05,-1.2809868167096283e-05,5.2133051212877035e-05
-6.307226158241974e-06,3.6622830521082506e-05,-7.95979121903656e-06,-1.2011996659566648e-05,5.308090112521313e-05
-1.0704436135711148e-05,4.686130705522373e-05,-4.172909029875882e-06,-1.268069081561407e-05,5.2839786803815514e-05
-1.2503387551987544e-05,5.4465293942485005e-05,1.6065550880739465e-06,-1.0195165486948099e-05,5.122036236571148e-05
-8.32456771604484e-06,5.6414948630845174e-05,9.2569071057369e-06,-1.1372583685442805e-05,5.245445208856836e-05
-4.120990979572525e-06,5.018462616135366e-05,1.8242932128487155e-05,-1.5401181371998973e-05,5.6492513976991177e-05
-7.5230232141620945e-06,4.090349830221385e-05,2.0944180505466647e-05,-1.4023680705577135e-05,5.982770016998984e-05
-1.1941973752982449e-05,3.708871372509748e-05,1.8203756553702988e-05,-1.0398937774880324e-05,5.978527042316273e-05
-1.0592259968689177e-05,3.6383207770995796e-05,1.5991034160833806e-05,-1.1535556950548198e-05,5.7710854889592156e-05
-8.732883543416392e-06,3.302301047369838e-05,1.6148946087923832e-05,-1.4156692486722022e-05,5.3090239816810936e-05
-1.1290614565950818e-05,3.177315375069156e-05,1.7466054487158544e-05,-1.3868187124899123e-05,4.679889025283046e-05
-1.6183799743885174e-05,3.504988126223907e-05,1.7193011444760486e-05,-1.2033261555188801e-05,4.398805685923435e-05
-1.8314658518647775e-05,3.428207855904475e-05,1.3737087101617362e-05,-1.0195321920036804e-05,4.407197411637753e-05
-1.6745847460697405e-05,2.8425945856724866e-05,1.0472589565324597e-05,-7.020812972768908e-06,4.4402648200048134e-05
-1.1793426892836578e-05,2.8422273317119107e-05,1.2359080756141338e-05,-3.004630343639292e-06,4.446299499250017e-05
-7.396668024739483e-06,3.58579600288067e-05,1.5302919564419426e-05,-2.567335059211473e-06,4.4182488636579365e-05
-9.350068467028905e-06,4.4104217522544786e-05,1.4927340089343488e-05,-4.290942342777271e-06,4.544162220554426e-05
-1.750576848280616e-05,4.662160426960327e-05,8.741257261135615e-06,-7.44211229175562e-06,4.935033211950213e-05
-2.1015981474192813e-05,4.0369955968344584e-05,-2.398238621026394e-06,-1.1237730177526828e-05,5.101454007672146e-05
-1.4656213352282066e-05,2.601406777102966e-05,-1.2098807928850874e-05,-1.370562949887244e-05,4.810143218492158e-05
-9.875365321931895e-06,1.0898741493292619e-05,-1.2389490620989818e-05,-1.4498739801638294e-05,4.6103697968646884e-05
-1.2109185263398103e-05,2.812106686178595e-06,-1.214217354572611e-05,-1.5009986782388296e-05,4.776523928740062e-05
-1.4984106201154646e-05,-1.1574045402085176e-06,-1.4087841918808408e-05,-1.3747512639383785e-05,5.1079943659715354e-05
-1.8528284272179008e-05,-4.578327548188099e-07,-1.4115271369519178e-05,-1.2056656487402506e-05,5.3260690037859604e-05
-2.402094833087176e-05,9.96496692096116e-06,-1.1155995707667898e-05,-1.5607347449986264e-05,5.446466093417257e-05
-2.7672769647324458e-05,1.7285939975408837e-05,-2.646137090778211e-06,-1.812503978726454e-05,5.5855231039458886e-05
-3.072078834520653e-05,1.764219814504031e-05,4.583080226439051e-06,-1.671997961238958e-05,5.87816430197563e-05
-3.5279412259114906e-05,1.763944237609394e-05,5.722614332626108e-06,-1.2255100045877043e-05,6.190497515490279e-05
-3.2759711757535115e-05,2.41039706452284e-05,7.033437668724218e-06,-8.611670637037605e-06,6.195913738338277e-05
-2.2351916413754225e-05,3.199818092980422e-05,9.34887066250667e-06,-1.22587716759881e-05,6.281293462961912e-05
-1.5641928257537074e-05,3.217778794351034e-05,9.47316857491387e-06,-1.763577529345639e-05,6.295132334344089e-05
-1.752268144628033e-05,3.0051473004277796e-05,8.248032827395946e-06,-2.1874691810808145e-05,6.172536814119667e-05
-2.27087912207935e-05,2.68014773610048e-05,9.705295269668568e-06,-2.170995867345482e-05,6.260379450395703e-05
-2.3243575924425386e-05,2.15538966585882e-05,1.1506023838592228e-05,-1.751761737978086e-05,6.274006591411307e-05
-2.0262610632926226e-05,1.650369813432917e-05,7.029550488368841e-06,-1.2205713574076071e-05,5.9876390878343955e-05
-1.4974813893786632e-05,1.4607947377953678e-05,-5.97643747823895e-07,-8.485199032293167e-06,5.738020990975201e-05
-9.890399269352201e-06,1.7095651855925098e-05,-2.9704840471822536e-06,-1.04651016954449e-05,5.949726983089931e-05
-9.210334610543214e-06,2.2324462406686507e-05,5.888322789360245e-07,-1.6524947568541393e-05,6.451411900343373e-05
-1.3796360690321308e-05,2.6610361601342447e-05,1.543866346764844e-06,-1.8420314518152736e-05,6.878235581098124e-05
-2.148190287698526e-05,2.9132464987924322e-05,-3.892700533469906e-06,-1.5047832675918471e-05,6.940358434803784e-05
-2.9004058887949213e-05,3.0453604267677292e-05,-1.068239907908719e-05,-1.273593443329446e-05,6.601381755899638e-05
-3.496021236060187e-05,3.2288535294355825e-05,-1.3775319530395791e-05,-1.0772701898531523e-05,6.043630855856463e-05
-3.757472586585209e-05,3.476315032457933e-05,-1.1266877663729247e-05,-7.284520961547969e-06,5.740910637541674e-05
-3.643149102572352e-05,3.8491176383104175e-05,-5.599617907137144e-06,-4.33874765803921e-06,5.7337274483870715e-05
-3.486204514047131e-05,4.1465344111202285e-05,-2.2834738047095016e-06,-2.6843483738048235e-06,5.6940039939945564e-05
-3.4907960070995614e-05,3.7408684875117615e-05,-1.1464346698630834e-06,-1.7201987247972284e-06,5.647235593642108e-05
-3.674421532195993e-05,2.9869539503124543e-05,4.924734184896806e-07,-2.574474365246715e-06,5.862765101483092e-05
-3.820562415057793e-05,2.792601299006492e-05,3.550578639988089e-06,-4.814160092792008e-06,6.103299165260978e-05
-3.9886406739242375e-05,2.3748907551635057e-05,5.3735211622552015e-06,-6.160616976558231e-06,5.990680801915005e-05
-4.377750519779511e-05,1.0563901014393196e-05,2.785698598017916e-06,-7.953256499604322e-06,5.8761062973644584e-05
-4.2214334825985134e-05,3.150860266032396e-06,8.743504054109508e-07,-9.0385274233995e-06,5.7354398450115696e-05
-3.8819413020974025e-05,4.2081819628947414e-06,2.2289152639132226e-06,-8.193821486202069e-06,5.582367521128617e-05
-3.685812043840997e-05,1.0269997801515274e-05,4.40050143879489e-06,-6.788805876567494e-06,5.7017379731405526e-05
-3.649447171483189e-05,2.010724347201176e-05,5.27239990333328e-06,-7.898300395936531e-07,5.656938083120622e-05
-4.163538324064575e-05,2.616558958834503e-05,2.9710390663240105e-06,2.576591896286118e-06,5.536244498216547e-05
-4.042791624669917e-05,3.2378335163230076e-05,3.647225412350963e-06,1.614163011254277e-06,5.754287849413231e-05
-3.341646515764296e-05,3.6808276490774006e-05,6.237254183361074e-06,-1.3904440265832818e-06,6.082639447413385e-05
-2.943476829386782e-05,3.667928103823215e-05,3.8083512663433794e-06,-6.88780573909753e-06,6.384985317708924e-05
-3.129671677015722e-05,3.648547863122076e-05,2.0342595234978944e-06,-1.3371972272580024e-05,6.422884325729683e-05
-3.8922764360904694e-05,3.475850826362148e-05,5.604356829280732e-06,-1.586926737218164e-05,6.33713134448044e-05
-4.190273102722131e-05,3.300917524029501e-05,8.869627890817355e-06,-1.2254232387931552e-05,6.280115485424176e-05
-3.8595251680817455e-05,3.5008444683626294e-05,9.648703780840151e-06,-6.240861239348305e-06,6.096582728787325e-05
-3.302557161077857e-05,3.918932270607911e-05,8.877123036654666e-06,-2.7714063435269054e-06,5.899605093873106e-05
-2.8541338906507008e-05,3.966879012295976e-05,9.162622518488206e-06,-6.119795671111206e-06,5.9084133681608364e-05
-2.4883505830075592e-05,3.3325970434816554e-05,7.929795174277388e-06,-1.2021920156257693e-05,6.020987711963244e-05
-2.212322215200402e-05,2.6415589672978967e-05,3.990514869656181e-06,-1.443577821191866e-05,6.007063711876981e-05
-2.410821252851747e-05,2.5850893507595174e-05,2.6603013338899473e-06,-1.2177430107840337e-05,5.860954843228683e-05
-3.100949106737971e-05,3.195242243236862e-05,5.581137429544469e-06,-1.0845024917216506e-05,5.586105544352904e-05
-3.619229391915724e-05,4.311868178774603e-05,7.49439095670823e-06,-1.3900469639338553e-05,5.374656757339835e-05
-3.494727206998505e-05,5.396971391746774e-05,4.988457476429176e-06,-1.948101635207422e-05,5.503586362465285e-05
-3.304268830106594e-05,5.7790777646005154e-05,3.717148047144292e-06,-2.1065397959318943e-05,5.9088310081278905e-05
-3.7855268601560965e-05,5.64557449251879e-05,4.809559868590441e-06,-1.7170090359286405e-05,6.371925701387227e-05
-4.448418258107267e-05,5.629878069157712e-05,7.63823845773004e-06,-1.2209681699459907e-05,6.42451414023526e-05
-4.464328594622202e-05,5.79898915020749e-05,1.3557761121774092e-05,-1.2734240954159759e-05,6.268222932703793e-05
-4.0136175812222064e-05,5.5141805205494165e-05,1.6803265680209734e-05,-1.3209963981353212e-05,6.600688357139006e-05
-3.57317112502642e-05,3.6884503060719e-05,1.5827376046217978e-05,-6.13191969023319e-06,6.936409045010805e-05
-3.402248694328591e-05,1.453005552320974e-05,1.6889658581931144e-05,-5.00928217661567e-06,6.873041274957359e-05
-3.076492794207297e-05,1.0819981071108487e-05,1.869354491645936e-05,-1.0719218153099064e-05,6.80013545206748e-05
-2.5626051865401678e-05,1.7845093680080026e-05,1.93651212612167e-05,-1.464953129470814e-05,6.880649016238749e-05
-2.6611884095473215e-05,2.1361980543588288e-05,2.0270606910344213e-05,-1.680607056187e-05,6.929810479050502e-05
-3.093967825407162e-05,1.6986594346235506e-05,1.90796927199699e-05,-1.6386409697588533e-05,6.834561645518988e-05
-3.4534776204964146e-05,9.118367415794637e-06,1.4490233297692612e-05,-1.7474112610216253e-05,6.550952093675733e-05
-4.0303133573615924e-05,8.44542319100583e-06,8.65200945554534e-06,-1.8722343156696297e-05,6.248941645026207e-05
-3.9709240809315816e-05,1.071071073965868e-05,2.433608187857317e-06,-1.7472964827902615e-05,6.0012487665517256e-05
-3.495891724014655e-05,8.7760299720685e-06,-4.734750813639721e-09,-1.4064687093195971e-05,6.04305460001342e-05
-3.134453800157644e-05,4.193298536847578e-06,2.780530167001416e-06,-1.3290754395711701e-05,6.405206659110263e-05
-3.0097948183538392e-05,-1.5297969113703402e-08,5.678022262145532e-06,-1.4207657841325272e-05,6.712359027005732e-05
-3.085822027060203e-05,1.12764624304873e-07,3.4633187624422135e-06,-1.2836380847147666e-05,6.728003791067749e-05
-2.6939602321363054e-05,7.896601346146781e-06,-3.0571254683309235e-06,-9.687440979178064e-06,6.583805225091055e-05
-1.9770815924857743e-05,1.8032180378213525e-05,-7.328871561185224e-06,-7.669440492463764e-06,6.39079007669352e-05
-1.4788144653721247e-05,2.5687202651170082e-05,-6.352426680678036e-06,-1.067839730239939e-05,6.110708636697382e-05
-1.2336349755059928e-05,3.1751234928378835e-05,-4.1491075535304844e-06,-1.7027110516210087e-05,5.8064546465175226e-05
-9.733184015203733e-06,3.9352584281004965e-05,-4.026909664389677e-06,-2.090461930492893e-05,5.529917325475253e-05
-7.589200777147198e-06,4.664182779379189e-05,-7.441974503308302e-06,-1.9865623471559957e-05,5.2565050282282755e-05
-5.5975174291234e-06,5.188917202758603e-05,-1.544261431263294e-05,-1.796509968698956e-05,5.2250998123781756e-05
-5.597621566266753e-06,5.568447522819042e-05,-2.0825194951612502e-05,-1.4788904991291929e-05,5.453380072140135e-05
-7.632251254108269e-06,5.773269367637113e-05,-1.613044150872156e-05,-9.400196177011821e-06,5.698706445400603e-05
-9.49070727074286e-06,5.923774733673781e-05,-5.523593245015945e-06,-6.0230836425034795e-06,6.114949792390689e-05
-1.2826412785216235e-05,5.533246439881623e-05,2.6408195026306203e-06,-5.3421435950440355e-06,6.40412763459608e-05
-2.0509905880317092e-05,4.431636625668034e-05,1.102718943002401e-05,-6.153996764624026e-06,6.410360219888389e-05
-2.0138902982580476e-05,3.401735739316791e-05,2.1729403670178726e-05,-1.0677156751626171e-05,6.335868965834379e-05
-1.1571650247788057e-05,2.9241055017337203e-05,3.253908653277904e-05,-1.0779884178191423e-05,6.26156252110377e-05
-9.08634319785051e-06,2.448545455990825e-05,4.5049098844174296e-05,-6.031133580108872e-06,6.322454282781109e-05
-1.135009188146796e-05,2.042088635789696e-05,5.254419011180289e-05,-8.303347385663074e-06,6.27744011580944e-05
-1.567374238220509e-05,2.051171031780541e-05,4.979372533853166e-05,-1.0810516869241837e-05,5.9946829424006864e-05
-1.7666468920651823e-05,2.2589569198316894e-05,4.0782266296446323e-05,-1.1886968422913924e-05,5.755756137659773e-05
-2.0829122149734758e-05,2.5224517230526544e-05,3.308997111162171e-05,-1.4581368304789066e-05,5.404962212196551e-05
-2.7605359719018452e-05,2.796097942336928e-05,3.0716477340320125e-05,-9.7448119049659e-06,5.271551708574407e-05
-3.345013101352379e-05,2.959896119136829e-05,3.059569280594587e-05,-6.23922733211657e-06,5.396958295023069e-05
-3.399387787794694e-05,3.072821709793061e-05,2.783656418614555e-05,-9.565636901243124e-06,5.352668449631892e-05
-3.3170181268360466e-05,3.8599093386437744e-05,2.415840936009772e-05,-1.5316887584049255e-05,5.229263842920773e-05
-3.503365223878063e-05,5.137916377861984e-05,2.177266105718445e-05,-1.4174880561768077e-05,5.287270323606208e-05
-3.297355942777358e-05,6.792398926336318e-05,1.7241269233636558e-05,-8.519534276274499e-06,5.4755826567998156e-05
-2.9907609132351354e-05,8.29810305731371e-05,1.232736303791171e-05,-7.5513607953325845e-06,5.775234603788704e-05
-2.8515945814433508e-05,8.379123028134927e-05,1.0717689292505383e-05,-9.198819498124067e-06,6.0503141867229715e-05
-2.9633425583597273e-05,7.377328438451514e-05,8.880979294190183e-06,-9.350949767394923e-06,6.124104402260855e-05
-3.465962436166592e-05,6.16442266618833e-05,4.840150722884573e-06,-7.114749678294174e-06,6.246989505598322e-05
-4.109123983653262e-05,4.481512223719619e-05,3.9102583286876325e-06,-4.841016561840661e-06,6.46184926154092e-05
-4.351892494014464e-05,2.1709751308662817e-05,6.230368853721302e-06,-2.0200616290821927e-06,6.49819994578138e-05
-3.968051532865502e-05,1.662282215875166e-06,6.501396455860231e-06,-1.9023607364943018e-06,6.365242734318599e-05
-3.330469917273149e-05,-7.381939212791622e-06,1.745313056744635e-06,-7.27270753486664e-06,6.367800961015746e-05
-2.9328050004551187e-05,-4.121661277167732e-06,-1.7462240293752984e-06,-1.3766217307420447e-05,6.643767846981063e-05
-2.778579801088199e-05,4.737610197480535e-06,-2.1015252968936693e-06,-1.5193051694950555e-05,6.839619891252369e-05
-2.812135426211171e-05,7.451251349266386e-06,-1.8826108316716272e-06,-1.3962264347355813e-05,6.47418710286729e-05
-3.209034548490308e-05,-4.246081971359672e-06,-2.4652015895298973e-07,-1.3783887879981194e-05,6.052479147911072e-05
-3.5796634620055556e-05,-2.3212611267808825e-05,9.769944426807342e-07,-1.488337784394389e-05,5.899141251575202e-05
-3.543257116689347e-05,-2.773862252070103e-05,1.78231019276609e-07,-1.4770928828511387e-05,5.837327626068145e-05
-3.1108658731682226e-05,-8.249886377598159e-06,-3.2725295113777975e-06,-1.3464435141941067e-05,6.041253072908148e-05
-2.623596810735762e-05,1.7385556930094026e-05,-6.77149546390865e-06,-1.392379363096552e-05,6.597397441510111e-05
-2.7074689569417387e-05,3.154403020744212e-05,-8.232615073211491e-06,-1.673512815614231e-05,7.094293687259778e-05
-3.135869701509364e-05,3.305782956886105e-05,-8.519974471710157e-06,-1.425361097062705e-05,7.394794374704361e-05
-3.310632746433839e-05,3.192580697941594e-05,-4.975588126399089e-06,-8.361310392501764e-06,7.328489300562069e-05
-3.381267379154451e-05,3.509666566969827e-05,-2.622531951601559e-07,-6.875754934299039e-06,6.987091910559684e-05
-3.087250661337748e-05,4.090750007890165e-05,1.0016021860792534e-06,-1.0298446795786731e-05,7.017112511675805e-05
-2.483088246663101e-05,3.7798952689627185e-05,9.455014833292807e-07,-1.130684631789336e-05,7.189055759226903e-05
-2.5876948711811565e-05,2.8656981157837436e-05,-3.5263528275208955e-07,-5.259680619928986e-06,7.193169585661963e-05
-2.7180729375686496e-05,2.777630834316369e-05,-4.979593086318346e-06,-1.5643114181784767e-07,7.026365346973762e-05
-2.3136313757277094e-05,2.9792583518428728e-05,-1.0125990229425952e-05,-7.030307642708067e-07,6.807198224123567e-05
-1.9075578165939078e-05,2.8728913093800656e-05,-1.0611342077027075e-05,-3.6035055472893873e-06,6.829742778791115e-05
-1.6663645510561764e-05,2.589980067568831e-05,-8.062364940997213e-06,-5.915979727433296e-06,6.828877667430788e-05
-1.933463863679208e-05,2.190859777329024e-05,-7.430649020534474e-06,-6.703158305754187e-06,6.629557901760563e-05
-2.1439167539938353e-05,1.6342062735930085e-05,-8.410195732722059e-06,-5.890272859687684e-06,6.664899410679936e-05
-1.643411087570712e-05,1.4651021047029644e-05,-1.002375029202085e-05,-5.1351644287933595e-06,7.122696842998266e-05
-5.136475465405965e-06,1.916470137075521e-05,-1.2283089745324105e-05,-8.558768968214281e-06,7.525271939812228e-05
3.317235268696095e-06,2.1328674847609363e-05,-1.2622350368474144e-05,-1.3288263289723545e-05,7.372158870566636e-05
6.238423793547554e-06,1.6190628230106086e-05,-9.37250933930045e-06,-1.4441643543250393e-05,6.923043838469312e-05
2.5711669877637178e-06,9.437319022254087e-06,-4.901926331513096e-06,-1.3742691407969687e-05,6.793358625145629e-05
-6.802144071116345e-06,1.0190068678639363e-05,-1.180854837912193e-06,-1.441765925846994e-05,6.835364183643833e-05
-1.4621567061112728e-05,1.902867188618984e-05,7.893764859545627e-07,-1.4623367860622238e-05,6.699556979583576e-05
-1.7179743736051023e-05,2.9622817237395793e-05,5.614413680632424e-07,-1.1520845873747021e-05,6.515299901366234e-05
-1.607157537364401e-05,3.586118691600859e-05,8.450859922959353e-07,-8.711524969839957e-06,6.373068026732653e-05
-1.4542657481797505e-05,3.734131678356789e-05,3.209126759884384e-07,-8.731166417419445e-06,6.188840052345768e-05
-1.4169776477501728e-05,3.7283618439687416e-05,-1.2900795809400734e-06,-8.259328751591966e-06,6.042588211130351e-05
-1.396646985085681e-05,3.327574813738465e-05,-3.956615444167255e-07,-6.0156539802846964e-06,6.020562432240695e-05
-1.5939411241561174e-05,2.6557359888101928e-05,-1.7558462559463806e-06,-5.794978733320022e-06,6.0680631577270105e-05
-1.9654813513625413e-05,2.757046058832202e-05,-1.209536367241526e-05,-6.257534096221207e-06,5.7849116274155676e-05
-2.555028913775459e-05,3.3723754313541576e-05,-2.2989353965385817e-05,-6.169540938572027e-06,5.2346003940328956e-05
-3.480953091639094e-05,3.636237670434639e-05,-2.8242855478310958e-05,-5.648661044688197e-06,5.032979970565066e-05
-3.81147583539132e-05,3.650365033536218e-05,-2.656829201441724e-05,-3.541640808180091e-06,5.369420614442788e-05
-3.6159646697342396e-05,3.127896707155742e-05,-1.949247052834835e-05,2.414676032458374e-07,5.402061287895776e-05
-3.5298304283060133e-05,2.4895556634874083e-05,-1.0724440471676644e-05,-1.0145845408260357e-06,5.188870636629872e-05
-3.94865965063218e-05,2.4131955797201954e-05,-5.423886705102632e-06,-2.9667842227354413e-06,5.1070110202999786e-05
-4.272199294064194e-05,2.6120613256352954e-05,-4.769088263856247e-06,-2.164958914363524e-06,4.9306901928503066e-05
-4.508433994487859e-05,3.208170528523624e-05,-1.700851839814277e-06,-2.7438163670012727e-06,4.9549878895049915e-05
-4.1496052290312946e-05,3.9917267713462934e-05,8.90563455868687e-07,-3.0319613415485946e-06,5.0046310207108036e-05
-3.845422179438174e-05,4.472908767638728e-05,3.951575308747124e-06,-5.035966296418337e-06,5.289071486913599e-05
-4.589872696669772e-05,4.824170900974423e-05,6.842089987912914e-06,-9.20512047741795e-06,5.463778870762326e-05
-5.3400715842144564e-05,4.38464485341683e-05,8.76319518283708e-06,-1.2021328075206839e-05,5.414981933427043e-05
-5.233551564742811e-05,3.2822270441101864e-05,9.488916475675069e-06,-1.1737761269614566e-05,5.335827518138103e-05
-4.231307684676722e-05,2.17002016142942e-05,6.893461886647856e-06,-9.601581041351892e-06,5.336936010280624e-05
-3.512112743919715e-05,1.2548052836791612e-05,2.835838813552982e-06,-7.653006832697429e-06,5.504068030859344e-05
-3.071603350690566e-05,9.058904652192723e-06,5.708050139219267e-07,-7.96957374404883e-06,5.7694080169312656e-05
-2.7255857276031747e-05,1.480673745390959e-05,3.459657364146551e-06,-1.171268286270788e-05,5.981879439787008e-05
-2.7182391932001337e-05,2.28465796681121e-05,1.0001535883930046e-05,-1.4327610188047402e-05,6.036516424501315e-05
-3.0628903914475814e-05,2.4210470655816607e-05,1.691571196715813e-05,-1.2161998711235356e-05,5.833636168972589e-05
-3.292294786660932e-05,2.1263109374558553e-05,2.1595798898488283e-05,-1.1023897059203591e-05,5.718857573810965e-05
-3.4857283026212826e-05,1.9455506844678894e-05,2.470738036208786e-05,-1.4408305105462205e-05,5.892031185794622e-05
-3.573249341570772e-05,2.3291026082006283e-05,2.5478135285084136e-05,-1.654524567129556e-05,5.846734711667523e-05
-2.4854938601492904e-05,2.7834861612063833e-05,2.6724510462372564e-05,-1.591763248143252e-05,5.556238829740323e-05
-6.360662041515752e-07,2.533496626710985e-05,2.5068808099604212e-05,-1.4108321011008229e-05,5.399139627115801e-05
2.297807441209443e-05,1.873663131846115e-05,1.7118207324529067e-05,-1.2516063179646153e-05,5.3674288210459054e-05
3.061037205043249e-05,1.993570549529977e-05,1.2343156413407996e-05,-1.3684884834219702e-05,5.324836092768237e-05
1.9794219042523764e-05,2.6300551326130517e-05,1.2177890312159434e-05,-1.3832504919264466e-05,5.48223324585706e-05
1.7149865243482054e-06,2.8587179258465767e-05,1.637648711039219e-05,-1.3703654985874891e-05,5.525894448510371e-05
-1.3173913430364337e-05,2.6760531909530982e-05,1.832283305702731e-05,-1.7261356333619915e-05,5.1476017688401043e-05
-2.181143827328924e-05,2.1897803890169598e-05,1.182156574941473e-05,-1.4368969459610526e-05,5.141565270605497e-05
-2.6474495825823396e-05,1.9642529878183268e-05,8.554596206522547e-06,-5.012043402530253e-06,6.107489753048867e-05
-3.0781335226492956e-05,2.2085845557739958e-05,1.3566318557423074e-05,-5.121102731209248e-06,6.568717799382284e-05
-3.808426845353097e-05,2.4009614207898267e-05,2.104273698932957e-05,-1.0189403838012367e-05,6.314938218565658e-05
-4.6720615500817075e-05,2.392645001236815e-05,2.3585864255437627e-05,-1.3707979633181822e-05,5.9256442909827456e-05
-5.10258469148539e-05,2.1539626686717384e-05,2.28926473937463e-05,-1.5179012734733988e-05,5.99144259467721e-05
-4.576737046591006e-05,2.1421074052341282e-05,1.969570257642772e-05,-1.5644287486793473e-05,6.459800351876765e-05
-3.244030085625127e-05,2.77656417893013e-05,1.4069702956476249e-05,-1.419967975380132e-05,6.83851758367382e-05
-2.3436690753442235e-05,3.343059870530851e-05,1.0518871022213716e-05,-1.120988144975854e-05,6.898439460201189e-05
-2.1970854504616e-05,3.1161562219494954e-05,1.1894546332769096e-05,-1.1197555068065412e-05,6.475536793004721e-05
-2.840427987393923e-05,2.7355807105777785e-05,1.4218104297469836e-05,-1.1237624676141422e-05,5.968031837255694e-05
-3.454526449786499e-05,2.8357782866805792e-05,1.4021570677869022e-05,-1.0231146006844938e-05,5.7384284446015954e-05
-3.3659936889307573e-05,3.468617069302127e-05,1.3251465134089813e-05,-1.0221553566225339e-05,5.785964094684459e-05
-2.845796916517429e-05,3.9568203646922484e-05,1.1523960893100593e-05,-8.61587977851741e-06,5.798903657705523e-05
-2.4618928364361636e-05,4.1398594476049766e-05,1.0754226423159707e-05,-6.863574981252896e-06,5.678668821929023e-05
-2.5454577553318813e-05,4.118155993637629e-05,1.062837054632837e-05,-8.080670340859797e-06,5.551778303924948e-05
-2.9213411835371517e-05,3.473559991107322e-05,7.640492185601033e-06,-8.028919182834215e-06,5.463292109197937e-05
-3.1517829484073445e-05,2.0556142771965824e-05,-1.6460597862533177e-06,-7.1599251896259375e-06,5.357458212529309e-05
-2.792909072013572e-05,3.279604470662889e-06,-1.3423167729342822e-05,-8.36912113300059e-06,5.193069955566898e-05
-2.3274633349501528e-05,-3.1543361274088966e-06,-2.1035235477029346e-05,-1.1931420885957778e-05,4.8586014600005e-05
-2.300460619153455e-05,1.2100166713935323e-05,-2.228607081633527e-05,-1.4131806892692111e-05,4.6509525418514386e-05
-2.4490746000083163e-05,3.523311170283705e-05,-1.652316132094711e-05,-1.1323567377985455e-05,4.544659532257356e-05
-2.3917593352962285e-05,4.2995456169592217e-05,-5.939600214333041e-06,-6.8387589635676704e-06,4.6168766857590526e-05
-1.959770088433288e-05,3.567268140614033e-05,-8.026470510458239e-08,-4.10604479839094e-06,4.823771087103523e-05
-1.2442225852282718e-05,2.8064157959306613e-05,2.9822458600392565e-06,-2.817130962284864e-06,5.204126864555292e-05
-6.479187959484989e-06,2.8007072614855133e-05,7.425063813570887e-06,-7.007160434113757e-07,5.701377085642889e-05
-1.026301924866857e-05,3.323864075355232e-05,1.6296196918119676e-05,2.2707054085913114e-06,6.204607780091465e-05
-2.3171038264990784e-05,3.3368411095580086e-05,2.3143627913668752e-05,7.611489536429872e-07,6.277346983551979e-05
-3.0217584935599007e-05,3.1134964956436306e-05,2.1380670659709722e-05,-2.0801978735107696e-06,6.083101106924005e-05
-3.0466419048025273e-05,3.50385598721914e-05,2.1859292246517725e-05,-6.46485068500624e-06,5.979968045721762e-05
-2.9343817004701123e-05,4.001974957645871e-05,2.2302701836451888e-05,-9.661071999289561e-06,5.827063796459697e-05
-2.8293701689108275e-05,3.95113202102948e-05,1.9453931599855423e-05,-7.869680302974302e-06,5.810157745145261e-05
-2.886902802856639e-05,3.908466169377789e-05,1.6519230484846048e-05,-8.739863005757798e-06,5.8953362895408645e-05
-2.6753848942462355e-05,4.895434540230781e-05,1.4885280506859999e-05,-1.2710826922557317e-05,5.6745946494629607e-05
-2.262454290757887e-05,5.806539411423728e-05,1.4201191333995666e-05,-1.7425452824681997e-05,5.2124283683951944e-05
-2.2391310267266817e-05,6.111327820690349e-05,1.5638070181012154e-05,-2.01660532184178e-05,5.151284858584404e-05
-2.4362980184378102e-05,5.298394535202533e-05,2.0308267266955227e-05,-1.8632876162882894e-05,5.258190503809601e-05
-2.6520705432631075e-05,3.9501792343799025e-05,2.3916527425171807e-05,-1.5172932762652636e-05,5.356102337827906e-05
-2.5770106731215492e-05,3.223066232749261e-05,2.17576052818913e-05,-1.250678178621456e-05,5.4698997701052576e-05
-2.4349052182515152e-05,3.319947427371517e-05,1.8207167158834636e-05,-1.120646993513219e-05,5.6567820138297975e-05
-2.231542566732969e-05,3.4130334825022146e-05,1.760186569299549e-05,-1.1421296221669763e-05,5.766335016232915e-05
-2.0915971617796458e-05,3.170700802002102e-05,1.7394795577274635e-05,-1.2436090401024558e-05,5.720572153222747e-05
-2.295665763085708e-05,2.955621857836377e-05,1.600710311322473e-05,-1.5775654901517555e-05,5.75085032323841e-05
-2.903991480707191e-05,2.9170380003051832e-05,1.4481544894806575e-05,-2.083725848933682e-05,5.7523222494637594e-05
-3.2579169783275574e-05,3.1088522518984973e-05,1.3439694157568738e-05,-2.5334960810141638e-05,5.624455297947861e-05
-3.004673453688156e-05,3.15676697937306e-05,1.035989771480672e-05,-2.6708197765401565e-05,5.3670784836867824e-05
-2.7144516934640706e-05,3.403902519494295e-05,7.36876472728909e-06,-2.4387885787291452e-05,5.220161619945429e-05
-2.475248766131699e-05,4.165610880590975e-05,6.895050319144502e-06,-2.01564089366002e-05,5.327331746229902e-05
-1.8659951820154674e-05,4.5854343625251204e-05,6.7799765020026825e-06,-1.4378672858583741e-05,5.679316382156685e-05
-1.2103912013117224e-05,3.6018987884745e-05,8.894185157259926e-06,-1.0264256161462981e-05,6.184745870996267e-05
-1.3761617992713582e-05,2.3716107534710318e-05,1.3993331776873674e-05,-1.0174447197641712e-05,6.314255006145686e-05
-1.674007944529876e-05,2.1076741177239455e-05,1.3912316717323847e-05,-9.831166607909836e-06,6.097096047597006e-05
-1.7766205928637646e-05,2.6204215828329325e-05,5.8412742873770185e-06,-7.78141384216724e-06,5.8706234995042905e-05
-1.5510850062128156e-05,3.396617466933094e-05,1.47634204950009e-06,-7.382301191682927e-06,5.5580909247510135e-05
-1.670496385486331e-05,3.875637412420474e-05,4.059893853991525e-06,-1.0706341527111363e-05,5.162847810424864e-05
-2.358111487410497e-05,3.8882433727849275e-05,2.399600589342299e-06,-1.4256705071602482e-05,5.041509939474054e-05
-2.5550019927322865e-05,3.750669930013828e-05,-3.330636673126719e-06,-1.4625436961068772e-05,5.3747236961498857e-05
-2.267188574478496e-05,3.368275429238565e-05,-6.0437632782850415e-06,-1.656230233493261e-05,5.4770538554294035e-05
-2.141419281542767e-05,3.37920973834116e-05,-1.0577652574284002e-05,-1.748981412674766e-05,5.368088386603631e-05
-2.2714473743690178e-05,3.54658805008512e-05,-2.0911276806145906e-05,-1.557385803607758e-05,5.381924347602762e-05
-2.7223046345170587e-05,3.3616292057558894e-05,-2.957315336971078e-05,-1.1497090781631414e-05,5.3658863180316985e-05
-3.672787715913728e-05,2.652881812537089e-05,-3.316941365483217e-05,-7.914536581665743e-06,5.39244465471711e-05
-4.406506195664406e-05,2.1834468498127535e-05,-2.9728207664447837e-05,-7.108984391379636e-06,5.733721991418861e-05
-4.37838607467711e-05,2.231044891232159e-05,-1.7927257431438193e-05,-7.90013018558966e-06,6.06125031481497e-05
-3.714004560606554e-05,2.7744119506678544e-05,-4.1373914427822456e-06,-1.0857428605959285e-05,5.9338941355235875e-05
-2.928603680629749e-05,3.762621417990886e-05,4.337802693044068e-06,-1.4012826795806177e-05,5.6124827096937224e-05
-2.4110082449624315e-05,4.785098280990496e-05,7.526589342887746e-06,-1.621637238713447e-05,5.678656816598959e-05
-1.9589342628023587e-05,5.343627344700508e-05,9.910694643622264e-06,-1.556348979647737e-05,6.079351805965416e-05
-1.7699750969768502e-05,5.024140773457475e-05,1.1290731890767347e-05,-9.946299542207271e-06,6.22141596977599e-05
-1.9654480638564564e-05,4.1514289478072897e-05,1.188171336252708e-05,-3.372576202309574e-06,6.011234290781431e-05
-1.9734554371098056e-05,3.266024577897042e-05,1.3021327504247893e-05,-3.3232477107958402e-06,5.672874249285087e-05
-1.6770911315688863e-05,3.130154073005542e-05,1.632203748158645e-05,-7.235271823446965e-06,5.501000850927085e-05
-1.3169109479349572e-05,3.348512836964801e-05,2.042115193034988e-05,-8.572403203288559e-06,5.477608647197485e-05
-8.831524610286579e-06,3.320683026686311e-05,2.2531623471877538e-05,-8.849101504893042e-06,5.5281645472859964e-05
-5.650666480505606e-06,3.245416155550629e-05,2.126043000316713e-05,-9.80901768343756e-06,5.674679414369166e-05
-7.95977030065842e-06,3.4915588912554085e-05,1.7839944121078588e-05,-9.610623237676919e-06,6.024129470461048e-05
-1.4900284440955147e-05,3.245402331231162e-05,1.502151553722797e-05,-6.945224413357209e-06,6.2710270867683e-05
-1.7277094229939394e-05,2.8349171770969406e-05,1.314130440732697e-05,-2.1044913864898263e-06,6.24326421529986e-05
-1.695682294666767e-05,2.8605245461221784e-05,9.980086360883433e-06,-2.300853111592005e-06,6.171131826704368e-05
-2.100772508129012e-05,2.754146044026129e-05,7.654189175809734e-06,-7.382262992905453e-06,6.057037171558477e-05
-2.159931682399474e-05,2.430736640235409e-05,6.628532901231665e-06,-1.0306491276423912e-05,5.7144134189002216e-05
-1.7456190107623115e-05,1.4652852769359015e-05,1.7437520227758796e-06,-7.727845513727516e-06,5.638430593535304e-05
-1.4315440239442978e-05,-1.209169568028301e-05,-2.081522097796551e-06,-3.4080405839631567e-06,6.23428713879548e-05
-6.66028927298612e-06,-3.680839654407464e-05,-4.11840301239863e-06,-6.880178489154787e-07,6.84883416397497e-05
2.576589395175688e-06,-3.5059780202573165e-05,-1.7522791040391894e-06,-4.879804009760846e-07,7.065020326990634e-05
4.543970135273412e-06,-1.2162091479694936e-05,2.558177129685646e-06,-3.865195139951538e-06,7.03240730217658e-05
1.7612785541132325e-06,8.57293252920499e-06,2.808016233757371e-06,-6.078652404539753e-06,6.947367364773527e-05
-3.91183721148991e-06,1.9297143808216788e-05,1.9134565718559315e-06,-7.012030891928589e-06,6.804349686717615e-05
-9.478475476498716e-06,2.7512560336617753e-05,-3.6803843528332436e-08,-4.580819222610444e-06,6.176551687531173e-05
-1.0487849976925645e-05,3.023979843419511e-05,9.37041761517321e-07,1.3375762364375987e-06,5.522597348317504e-05
-1.3116228728904389e-05,3.054724584217183e-05,4.008603809779743e-06,5.744440841226606e-06,5.567034168052487e-05
-1.900544339150656e-05,3.535080759320408e-05,7.336642283917172e-06,6.51369236948085e-06,5.719884575228207e-05
-2.3675913325860165e-05,4.415936564328149e-05,7.55963810661342e-06,5.112411145091755e-06,5.663838601321913e-05
-2.725777267187368e-05,4.809397069038823e-05,3.4435249745001784e-06,5.576258672590484e-07,5.733806756325066e-05
-3.0589824746130034e-05,4.509382779360749e-05,-1.9827108133085858e-07,-6.912773642397951e-06,5.9547204728005454e-05
-3.463494431343861e-05,4.1453724406892434e-05,8.867343694873853e-07,-1.3885174666938838e-05,5.8619571063900366e-05
-3.8122612750157714e-05,3.8911643059691414e-05,1.4801729548707954e-06,-1.5578010788885877e-05,5.655550558003597e-05
-4.130817615077831e-05,3.4788947232300416e-05,2.282595374936136e-07,-1.1860279300890397e-05,5.562062870012596e-05
-4.3295487557770684e-05,2.848938493116293e-05,8.936886501942354e-07,-9.225319445249625e-06,5.421067544375546e-05
-4.5049124310025945e-05,2.3432257876265794e-05,2.98077020488563e-06,-8.65805304783862e-06,5.259826866677031e-05
-4.7609981265850365e-05,2.05634150916012e-05,3.842354090011213e-06,-9.525346285954583e-06,5.186570342630148e-05
-4.946517219650559e-05,1.8647057004272938e-05,3.8090115594968665e-06,-1.3346815649128985e-05,5.1946204621344805e-05
-4.976230411557481e-05,1.5860365238040686e-05,5.154765403858619e-06,-1.546909516036976e-05,5.3748815844301134e-05
-4.8624224291415885e-05,1.1461180292826612e-05,5.19924742548028e-06,-1.5800207620486617e-05,5.447698276839219e-05
-4.656434975913726e-05,1.0277462934027426e-05,2.4916257643781137e-06,-1.604312092240434e-05,5.5153839639388025e-05
-4.239020563545637e-05,1.8671880752663128e-05,-7.136952717701206e-07,-1.576805516378954e-05,5.688754026778042e-05
-4.004681613878347e-05,2.8570453650900163e-05,-9.470945201428549e-07,-1.889901250251569e-05,5.6605411373311654e-05
-4.190951949567534e-05,3.4013351978501305e-05,-2.7800667794508627e-06,-2.0490455426624976e-05,5.970757774775848e-05
-4.0084061765810475e-05,3.394228042452596e-05,-5.715828137908829e-06,-1.603696910024155e-05,6.346149166347459e-05
-3.742654007510282e-05,3.163136716466397e-05,-5.144341685081599e-06,-1.0268100595567375e-05,6.418182601919398e-05
-3.9346316043520346e-05,3.32143681589514e-05,-1.1070682148783817e-06,-9.665830475569237e-06,6.327936716843396e-05
-4.406738298712298e-05,3.0187336960807443e-05,8.216193236876279e-07,-1.0539403774600942e-05,6.185103848110884e-05
-5.261958722257987e-05,2.1225359887466766e-05,1.8983203062816756e-06,-1.1223191904718988e-05,6.0862963437102735e-05
-5.856078496435657e-05,1.3982363270770293e-05,2.4903463327063946e-06,-1.1239903869864065e-05,5.945149314356968e-05
-5.3103336540516466e-05,1.3514491911337245e-05,1.8024406926997472e-06,-1.1642387107713148e-05,5.902768316445872e-05
-4.240634370944463e-05,1.4952751371311024e-05,4.981291112926556e-06,-1.4635570551035926e-05,6.098155427025631e-05
-3.6785349948331714e-05,1.6243444406427443e-05,9.135201253229752e-06,-1.636501110624522e-05,6.271344318520278e-05
-4.010984775959514e-05,1.4076712432142813e-05,1.1826801710412838e-05,-1.6781483282102272e-05,6.223702803254128e-05
-4.771924432134256e-05,8.403440915571991e-06,1.5213926417345647e-05,-1.6470314221805893e-05,6.015635881340131e-05
-5.0366430514259264e-05,8.561219146940857e-06,1.5680183423683047e-05,-1.6063739167293534e-05,6.009559001540765e-05
-4.848721800954081e-05,1.7770396880223416e-05,1.2151022019679658e-05,-1.6468000467284583e-05,6.283156108111143e-05
-4.6618330088676885e-05,2.543606751714833e-05,1.3371056411415339e-05,-1.6168958609341644e-05,6.570809637196362e-05
-4.4177097151987255e-05,2.593797580630053e-05,2.3003763999440707e-05,-1.4503791135211941e-05,6.488625513156876e-05
-4.050945790368132e-05,2.238455090264324e-05,3.166261740261689e-05,-1.1230322343180887e-05,6.235524051589891e-05
-3.802962237386964e-05,1.7825946997618303e-05,3.158396066282876e-05,-9.7238307716907e-06,6.134595605544746e-05
-3.6279547202866524e-05,1.924415300891269e-05,2.554474485805258e-05,-1.2927539501106367e-05,6.089240196160972e-05
-3.2586085580987856e-05,2.699460310395807e-05,1.9765780962188728e-05,-1.5636869648005813e-05,6.006016337778419e-05
-2.762886470009107e-05,3.433889651205391e-05,1.7076763469958678e-05,-1.3167966244509444e-05,5.8944719057762995e-05
-2.664961721166037e-05,3.8009278796380386e-05,1.615074506844394e-05,-9.777789273357484e-06,6.010149809299037e-05
-3.023557655978948e-05,3.6612247640732676e-05,1.515478015789995e-05,-1.0129328074981458e-05,6.364354339893907e-05
-3.229705544072203e-05,3.0321252779685892e-05,1.4194614777807146e-05,-1.235737818205962e-05,6.59611469018273e-05
-2.958738878078293e-05,2.6799489205586724e-05,1.2656131730182096e-05,-1.3601676073449198e-05,6.245731492526829e-05
-2.5082536012632772e-05,2.7487854822538793e-05,6.957289770070929e-06,-1.1566391549422406e-05,5.548913395614363e-05
-2.620129453134723e-05,3.0989926017355174e-05,5.574288934440119e-06,-1.03496277006343e-05,5.311892164172605e-05
-2.9989252652740106e-05,3.658712739706971e-05,1.1891381291206926e-05,-1.0452948117745109e-05,5.7903944252757356e-05
-2.758128903224133e-05,4.142585748923011e-05,1.3705450328416191e-05,-1.0922484761977103e-05,6.0223279433557764e-05
-2.375777330598794e-05,3.898726572515443e-05,8.900319699023385e-06,-1.1980695489910431e-05,6.0451817262219265e-05
-2.3731037799734622e-05,3.253899558330886e-05,3.1417507670994382e-06,-1.2102320397389121e-05,6.326560105662793e-05
-2.2706526578986086e-05,2.8440003006835468e-05,2.9457210075634066e-06,-1.4025428754393943e-05,6.3650484662503e-05
-1.5113792869669851e-05,2.6218298444291577e-05,7.1180334089149255e-06,-1.6178386431420222e-05,6.144720100564882e-05
-8.608306416135747e-06,2.6028552383650094e-05,3.8136768125696108e-06,-1.4139294762571808e-05,6.0900489188497886e-05
-7.213639491965296e-06,3.0954612157074735e-05,-8.513407010468654e-06,-1.2729861737170722e-05,6.288669828791171e-05
-8.03466718934942e-06,3.2646355975884944e-05,-1.8079441360896453e-05,-1.5088396139617544e-05,6.365400622598827e-05
-8.224474186135922e-06,2.914688411692623e-05,-1.9833914848277345e-05,-1.7856998965726234e-05,6.0687725635943934e-05
-8.191183042072225e-06,2.6882944439421408e-05,-1.7895719793159515e-05,-1.9364881154615432e-05,5.594687536358833e-05
-6.241835308173904e-06,2.65873550233664e-05,-1.2056984814989846e-05,-1.8617907699081115e-05,5.315361704560928e-05
-1.8302910120837623e-06,2.6665538825909607e-05,-6.799483344366308e-06,-1.4392966477316804e-05,5.432695252238773e-05
-2.1439111606014194e-06,2.4105927877826616e-05,-5.327717190084513e-06,-9.291305104852654e-06,5.8879646530840546e-05
-8.91926720214542e-06,2.1026637114118785e-05,-4.866735707764747e-06,-7.627276772836922e-06,6.31031725788489e-05
-1.779533522494603e-05,2.0868526917183772e-05,-2.21408072320628e-06,-1.064468870026758e-05,6.488343206001446e-05
-2.428441439406015e-05,2.773585401882883e-05,5.416714898842656e-08,-1.5138191884034313e-05,6.666422996204346e-05
-2.8690079489024356e-05,3.85218154406175e-05,-1.1313152299408102e-06,-1.6692983990651555e-05,6.790536281187087e-05
-3.296765498816967e-05,4.825236101169139e-05,-1.7876601532407221e-06,-1.6549753127037548e-05,6.775697693228722e-05
-4.0598843042971566e-05,5.177751154405996e-05,2.1469898001669208e-06,-1.744083419907838e-05,6.705705891363323e-05
-4.894163794233464e-05,4.760588126373477e-05,6.089092948968755e-06,-1.924307616718579e-05,6.706050044158474e-05
-4.865704249823466e-05,4.1476665501249954e-05,3.858026502712164e-06,-1.8140235624741763e-05,6.608032708754763e-05
-4.010519842267968e-05,3.7533125578192994e-05,5.710933237423887e-07,-1.3054104783805087e-05,6.473056419054046e-05
-3.511038448777981e-05,3.0219867767300457e-05,7.832281312403211e-07,-1.0074203601107001e-05,6.475470581790432e-05
-3.7170175346545875e-05,2.1346229914342985e-05,9.625204029362067e-07,-8.734158654988278e-06,6.395587115548551e-05
