-3.4481512557249516e-05,4.0161990909837186e-05,-5.893408001611533e-07,-9.388915714225732e-06,5.2215837058611214e-05
-2.767739351838827e-05,2.9328448363230564e-05,2.0900124582112767e-06,-1.5909949070191942e-05,5.161140506970696e-05
-1.5720050214440562e-05,2.5050911062862724e-05,3.0063431495364057e-06,-1.932833401951939e-05,5.203805267228745e-05
-2.069153026695858e-08,2.5870818717521615e-05,2.4722178295633057e-06,-1.996861828956753e-05,5.456821236293763e-05
1.6318130292347632e-05,3.0516133847413585e-05,-1.5916200482024578e-06,-1.7709864550852217e-05,5.5215732572833076e-05
2.222584589617327e-05,3.380612542969175e-05,-7.656109119125176e-06,-1.3975130968901794e-05,5.558197517530061e-05
1.820292163756676e-05,3.6236866435501724e-05,-1.182994219561806e-05,-1.3417500667856075e-05,5.9887450333917513e-05
1.2040871297358535e-05,4.231357161188498e-05,-1.369780602544779e-05,-1.6930976926232688e-05,6.217203190317377e-05
4.050638381158933e-06,5.0151011237176135e-05,-1.122642515838379e-05,-1.8515331248636357e-05,6.364284490700811e-05
-6.612388006033143e-06,5.308859545039013e-05,-6.013821803207975e-06,-1.7880638552014716e-05,6.395667878678069e-05
-1.5794317732797936e-05,5.303120633470826e-05,-2.494668933650246e-06,-1.4144443412078544e-05,6.246074190130457e-05
-1.978111504286062e-05,5.250963295111433e-05,-1.923036961670732e-06,-1.066592176357517e-05,5.957243047305383e-05
-2.1031224605394527e-05,5.174188481760211e-05,-2.252397052870947e-06,-1.0402268344478216e-05,5.7182351156370714e-05
-2.1104764527990483e-05,4.93792504130397e-05,-2.4769465198914986e-06,-1.1054185051762033e-05,5.800299913971685e-05
-2.1596968508674763e-05,4.3625324906315655e-05,-1.6529473896298441e-06,-1.0412036317575257e-05,5.821455852128565e-05
-2.1605961592285894e-05,3.6610996176023036e-05,-2.83801796285843e-06,-9.783267159946263e-06,5.4577012633671984e-05
-2.1579395252047107e-05,3.3457665267633274e-05,-4.973607246938627e-06,-9.798223800316919e-06,5.0245216698385775e-05
-2.4512646632501855e-05,3.3034048101399094e-05,-4.663912477553822e-06,-8.273826097138226e-06,5.0449150876374915e-05
-2.7608255550148897e-05,3.3152558899018914e-05,-7.104594246243323e-09,-6.488556209660601e-06,5.317987233866006e-05
-2.4779745217529126e-05,3.462567474343814e-05,8.919706488086376e-06,-4.877854280493921e-06,5.586379120359197e-05
-2.0947889424860477e-05,3.314548303023912e-05,1.830362089094706e-05,-4.683947736339178e-06,5.7984190789284185e-05
-2.2650126993539743e-05,2.47361276706215e-05,2.2034299036022276e-05,-7.4687709457066376e-06,5.9161000535823405e-05
-2.560140819696244e-05,1.839068136177957e-05,2.0052735635545105e-05,-1.08948333945591e-05,5.9466769016580656e-05
-2.5322846340714023e-05,2.2940721464692615e-05,1.3694946574105415e-05,-1.4168791494739708e-05,5.8134199207415804e-05
-2.436349677736871e-05,3.81002391804941e-05,5.609705112874508e-06,-1.638373578316532e-05,5.704040449927561e-05
-2.1661437131115235e-05,5.153520032763481e-05,1.4254856068873778e-06,-1.3134315850038547e-05,5.729649274144322e-05
-2.0403016605996527e-05,4.99718553328421e-05,-9.113101100410859e-07,-6.820512680860702e-06,5.563931699725799e-05
-2.4027362087508664e-05,4.2493746150285006e-05,2.3565075935039204e-06,-7.148438726289896e-06,5.320110358297825e-05
-2.6788158720592037e-05,3.7091642298037186e-05,6.349272098304937e-06,-1.539464938105084e-05,5.2852694352623075e-05
-2.7680782295647077e-05,3.343212665640749e-05,7.348467079282273e-06,-2.0748862880282104e-05,5.7230648963013664e-05
-2.5085488232434727e-05,3.1957482860889286e-05,4.358554633654421e-06,-2.012291588471271e-05,5.9406964282970876e-05
-2.5804436518228613e-05,3.0715589673491195e-05,-1.4982994116508053e-06,-1.8462455045664683e-05,6.1026683397358283e-05
-3.105059658992104e-05,2.9807955797878094e-05,-5.572859208768932e-06,-2.0195515389787033e-05,6.342562119243667e-05
-3.451508382568136e-05,3.713364640134387e-05,-7.422562703141011e-06,-2.1401740013970993e-05,6.530644895974547e-05
-3.337179805384949e-05,4.164045094512403e-05,-5.264779247227125e-06,-1.6259085896308534e-05,6.586577364942059e-05
-2.899648097809404e-05,3.112287959083915e-05,-4.600886768457713e-06,-1.051288109010784e-05,6.308996671577916e-05
-2.791195220197551e-05,2.0470206436584704e-05,-3.5187058529118076e-06,-8.696264558238909e-06,6.018388012307696e-05
-2.933441282948479e-05,2.0703862901427783e-05,-1.9364149466127856e-06,-8.933371645980515e-06,6.140175537439063e-05
-2.6448169592185877e-05,2.8072812710888684e-05,7.202012284324155e-07,-9.394141670782119e-06,6.577675230801105e-05
-1.9258308384451084e-05,3.7007695937063545e-05,2.8746549105562735e-06,-1.16645751404576e-05,6.810194463469088e-05
-1.4547243154083844e-05,4.2490682972129434e-05,6.429260793083813e-06,-1.4959975487727206e-05,6.745996506651863e-05
-1.5670117136323825e-05,3.859072967316024e-05,1.3468983524944633e-05,-1.5875091776251793e-05,6.433788075810298e-05
-2.122506521118339e-05,2.8611031666514464e-05,1.8536984498496167e-05,-1.3361010132939555e-05,5.876965951756574e-05
-2.5928413379006088e-05,1.8962755348184146e-05,2.0105095245526172e-05,-1.0608485354168806e-05,5.339790368452668e-05
-2.4292969101225026e-05,1.4962692148401402e-05,2.0376595784910023e-05,-1.2252761734998785e-05,5.430494638858363e-05
-1.8033722881227732e-05,1.7547796232975088e-05,2.303983455931302e-05,-1.6385414710384794e-05,6.015269900672138e-05
-1.491860984970117e-05,2.3002068701316603e-05,2.6380639610579237e-05,-1.964158218470402e-05,6.382056744769216e-05
-1.691922989266459e-05,2.427398976578843e-05,2.8104512239224277e-05,-2.2866244762553833e-05,6.133247370598838e-05
-2.086256426991895e-05,1.867810897238087e-05,2.8208936782903038e-05,-2.2203868866199628e-05,5.538511322811246e-05
-2.4093205865938216e-05,1.0502732948225457e-05,2.7836400477099232e-05,-1.6265215890598483e-05,5.06608012074139e-05
-2.791419865388889e-05,1.993537580347038e-06,2.757863148872275e-05,-1.1597053344303276e-05,5.364304888644256e-05
-3.046491474378854e-05,-4.471426393592992e-07,2.5184297555824742e-05,-1.1178492968610954e-05,5.8662051742430776e-05
-2.7204048819839954e-05,7.361796178884106e-06,1.9733912267838605e-05,-1.3540069630835205e-05,6.003299859003164e-05
-2.4375853172386996e-05,1.4273342458182015e-05,1.6116722690640017e-05,-1.3334288269106764e-05,5.8891731896437705e-05
-2.9495431590476073e-05,1.5141496987780556e-05,1.6360314475605264e-05,-1.2309762496443e-05,5.7474750065011904e-05
-3.8288944779196754e-05,1.3976638001622632e-05,1.8515305782784708e-05,-1.2792462257493753e-05,5.485738438437693e-05
-4.962013917975128e-05,1.415847145835869e-05,1.784186315489933e-05,-1.0320921319362242e-05,5.169771975488402e-05
-6.096962169976905e-05,1.2071567653038073e-05,1.6250740372925065e-05,-4.101108061149716e-06,5.231980321696028e-05
-6.015634789946489e-05,6.202393251442118e-06,1.023527693178039e-05,-1.527282734059554e-06,5.5572101700818166e-05
-4.9487643991597e-05,3.5270638818474254e-06,1.346862745776889e-06,-7.566422027593944e-06,6.076857607695274e-05
-4.034148878417909e-05,4.081464339833474e-06,-4.388513843878172e-06,-1.6574509572819807e-05,6.341392872855067e-05
-3.285053026047535e-05,5.0627327254915144e-06,-5.592742581939092e-06,-2.147945633623749e-05,6.113322888268158e-05
-2.6526293368078768e-05,7.76085380493896e-06,4.0282739632857556e-07,-1.92162515304517e-05,5.9252477512927726e-05
-2.446914731990546e-05,1.8059092326438986e-05,8.343150511791464e-06,-1.3703318472835235e-05,6.006145486026071e-05
-2.5983097657444887e-05,3.293616100563668e-05,1.1084725883847568e-05,-8.977538527688012e-06,6.281582318479195e-05
-2.7569738449528813e-05,4.505644756136462e-05,1.1906445251952391e-05,-7.21552942195558e-06,6.327212759060785e-05
-2.624594526423607e-05,5.1886436267523095e-05,1.2495353985286783e-05,-6.412105904018972e-06,6.176588794915006e-05
-2.0044539269292727e-05,5.518840771401301e-05,1.127535415434977e-05,-3.760410663744551e-06,6.351263436954468e-05
-9.237851372745354e-06,5.322429569787346e-05,1.269658787350636e-05,4.1388608451597975e-07,6.708972796332091e-05
3.019104497070657e-06,4.671695569413714e-05,1.740015795803629e-05,2.7373628199711675e-06,6.716961797792464e-05
1.3101320291752927e-05,3.77846481569577e-05,1.910484570544213e-05,1.2180236126368982e-06,6.419740384444594e-05
1.6870189938344993e-05,2.4538767320336774e-05,1.3687064893019851e-05,-1.7662090385783813e-06,6.11444265814498e-05
1.2741884347633459e-05,9.456874067836907e-06,4.0761665331956465e-06,-4.227068075124407e-06,5.9127862186869606e-05
1.1284498668828746e-06,3.3272644941462204e-06,-8.437516953563318e-06,-5.285244697006419e-06,5.822208186145872e-05
-1.3105013749736827e-05,8.391244591621216e-06,-2.082225000776816e-05,-4.450479082152015e-06,5.696139487554319e-05
-2.3157761461334303e-05,1.7020311133819632e-05,-2.872620643756818e-05,-4.360679668025114e-06,5.5544409406138584e-05
-3.0303915991680697e-05,2.3272003090824e-05,-2.7145593776367605e-05,-6.223149739525979e-06,5.546688043978065e-05
-3.380272755748592e-05,2.7911533834412694e-05,-1.9216360669815913e-05,-5.778148988611065e-06,5.7106972235487774e-05
-3.242797902203165e-05,3.431613731663674e-05,-1.3510584722098429e-05,-3.3666478884697426e-06,5.9793554100906476e-05
-3.0402892662095837e-05,3.8070185837568715e-05,-1.5070164408825804e-05,-4.214958153170301e-06,6.333076453302056e-05
-3.0056053219595924e-05,3.843828380922787e-05,-1.6691892597009428e-05,-7.296139756363118e-06,6.417069380404428e-05
-3.3785599953262135e-05,3.497066427371465e-05,-1.2227783372509293e-05,-6.8902991188224405e-06,6.091502291383222e-05
-4.071681178174913e-05,3.2027648558141664e-05,-5.256099029793404e-06,-4.073200670973165e-06,5.807667912449688e-05
-4.6376731916097924e-05,3.240708610974252e-05,4.095222720934544e-06,-2.6797811969458962e-08,5.8156027080258355e-05
-5.0455455493647605e-05,3.136763916700147e-05,1.5525618437095545e-05,6.305919669102877e-06,6.10772185609676e-05
-5.213149779592641e-05,2.9439639547490515e-05,2.033877171925269e-05,8.630820047983434e-06,6.398992263711989e-05
-4.577824074658565e-05,2.831284837157e-05,1.4591090803151019e-05,4.823385097552091e-06,6.113678682595491e-05
-3.319940879009664e-05,3.3317839552182704e-05,5.132209480507299e-06,-1.99481087292952e-06,5.858895747223869e-05
-2.1581969122053124e-05,5.581535879173316e-05,-3.3706982094372506e-08,-6.622194177907659e-06,5.68206851312425e-05
-1.7951184418052435e-05,8.316829189425334e-05,3.512441480779671e-06,-4.802225248567993e-06,5.552042421186343e-05
-1.8475140677765012e-05,9.060140291694552e-05,1.0814404959091917e-05,-3.7227821394480998e-06,5.5869979405542836e-05
-2.014591336774174e-05,7.509321585530415e-05,1.620431794435717e-05,-4.40565145254368e-06,5.707773016183637e-05
-2.3369751943391748e-05,5.6493492593290284e-05,1.8978977095684968e-05,-5.570876965066418e-06,5.767935363110155e-05
-2.3905968191684224e-05,5.389251236920245e-05,2.1129420929355547e-05,-6.051255695638247e-06,5.424072151072323e-05
-2.4936822228482924e-05,6.136395677458495e-05,2.3633316232007928e-05,-8.10458277555881e-06,5.144290116732009e-05
-2.835590385075193e-05,6.262815441004932e-05,2.4944192773546092e-05,-1.3373533874982968e-05,5.2945550123695284e-05
-3.161088170600124e-05,5.2672814490506425e-05,2.268092976009939e-05,-1.802481710910797e-05,5.616066846414469e-05
-3.138019746984355e-05,3.7880461604800075e-05,1.9033761418540962e-05,-1.9030370822292753e-05,5.722905189031735e-05
-2.955503987323027e-05,3.008704516105354e-05,1.6538226191187277e-05,-1.5898223864496686e-05,5.70268057344947e-05
-2.832079553627409e-05,3.3727610571077093e-05,1.4990800082159694e-05,-1.1958218237850815e-05,5.630876330542378e-05
-2.791352744679898e-05,3.677314452943392e-05,1.0541800293140113e-05,-1.0270858183503151e-05,5.4310119594447315e-05
-2.8867943910881877e-05,2.632779251143802e-05,-2.2365721008554829e-07,-1.1140318747493438e-05,5.053120548836887e-05
-3.223377279937267e-05,1.4528708561556414e-05,-1.2622639587789308e-05,-1.145709120464744e-05,4.927538611809723e-05
-3.306179496576078e-05,1.5452013030881062e-05,-1.9429809981375e-05,-1.2115392564737704e-05,5.144489114172757e-05
-3.433879464864731e-05,1.9853217963827774e-05,-1.960632471309509e-05,-1.3961878721602261e-05,5.580302240559831e-05
-4.01247561967466e-05,2.6307918233214878e-05,-1.5472265658900142e-05,-1.4637390449934173e-05,5.7468019804218784e-05
-4.1876039176713675e-05,3.598822149797343e-05,-1.0775110240501817e-05,-1.2225605132698547e-05,5.558387783821672e-05
-3.548538006725721e-05,3.5230703360866755e-05,-5.096665972814662e-06,-1.1030290806957055e-05,5.365903416532092e-05
-2.3468772269552574e-05,2.3357337340712547e-05,4.295041435398161e-06,-1.0543375537963584e-05,5.4289364925352857e-05
-2.193577711295802e-05,7.3686942414497025e-06,1.0093652235809714e-05,-1.1397766684240196e-05,5.701122063328512e-05
-3.5264863981865346e-05,-7.991759957803879e-06,1.1536949386936612e-05,-1.252787023986457e-05,5.5712091125315055e-05
-5.049566607340239e-05,-1.3209529242885765e-05,1.3364241567614954e-05,-1.1264035492786206e-05,5.3699492127634585e-05
-5.9947153204120696e-05,-1.1573386473173741e-05,1.608003003639169e-05,-1.1552730029507075e-05,5.382138988352381e-05
-6.034729449311271e-05,-9.093972039408982e-06,1.834460999816656e-05,-1.2757417607645039e-05,5.5301370593952015e-05
-5.352368680178188e-05,-6.089764610806014e-06,1.881348725873977e-05,-1.111627079808386e-05,5.690332181984559e-05
-4.1359744500368834e-05,1.5266336959030014e-06,1.857571623986587e-05,-6.026499249855988e-06,5.617470378638245e-05
-2.4851038688211702e-05,9.437969310965855e-06,1.8857119357562624e-05,-4.08554569730768e-06,5.444444468594156e-05
-1.3127569218340795e-05,1.5396011804114096e-05,1.8025533790932968e-05,-8.52318771649152e-06,5.4094940423965454e-05
-1.2517712093540467e-05,1.7953445421881042e-05,1.6477097233291715e-05,-1.5327897926908918e-05,5.220970342634246e-05
-1.800792415451724e-05,1.3898269571654964e-05,1.6344150935765356e-05,-1.8534232367528602e-05,4.9265312554780394e-05
-2.319634222658351e-05,6.7760151978291105e-06,1.4011326129548252e-05,-1.5213532606139779e-05,4.994397750124335e-05
-2.385120023973286e-05,7.80169884251336e-08,8.30477711133426e-06,-1.1177922715432942e-05,5.499661710928194e-05
-2.099588527926244e-05,-1.2535926998680225e-06,3.838225438812515e-06,-1.0806603313540109e-05,5.9557947679422796e-05
-1.4790512977924664e-05,4.412495400174521e-06,2.633494887049892e-06,-1.128384428739082e-05,6.073971599107608e-05
-9.17453598958673e-06,1.242237976839533e-05,7.601151423841657e-07,-1.0152476534130983e-05,6.101994949858636e-05
-9.279277037421707e-06,1.8006074242293835e-05,-2.0021079762955196e-06,-8.692727533343714e-06,6.095709613873623e-05
-1.3598312762042042e-05,2.428899097139947e-05,-3.8110897548904177e-06,-1.0297701919625979e-05,5.866773790330626e-05
-1.6861989934113808e-05,3.132573328912258e-05,-6.304946964519331e-06,-1.3592633877124172e-05,5.381453956943005e-05
-1.7795111489249393e-05,3.2960455428110436e-05,-8.596402039984241e-06,-1.331533076154301e-05,5.0247668696101755e-05
-1.653340586926788e-05,2.7208498067921028e-05,-7.959680260682944e-06,-1.1027298569388222e-05,4.8938374675344676e-05
-1.3914228475186974e-05,2.322228829143569e-05,-5.122401034896029e-06,-1.0238284630759154e-05,4.752988024847582e-05
-1.7522628695587628e-05,2.6133335268241353e-05,-1.1082868240919197e-06,-9.630597560317256e-06,4.7930923756211996e-05
-2.4303886675625108e-05,2.940127524198033e-05,3.1830356306272733e-07,-1.027699272526661e-05,5.3393785492517054e-05
-2.598440732981544e-05,2.7443780709290877e-05,-3.546965217537945e-06,-1.0780973752844147e-05,5.852851609233767e-05
-2.5726923922775313e-05,2.3538836103398353e-05,-4.124485712964088e-06,-5.720091849070741e-06,5.862232865183614e-05
-2.653136289154645e-05,1.6245297956629656e-05,-7.466887836926617e-07,2.4392072646151064e-06,5.852063623024151e-05
-2.374221548961941e-05,1.0054053745989222e-05,-3.2368512847824604e-07,7.509293595830968e-07,6.446653424063697e-05
-2.0140523702139035e-05,1.3397906514001079e-05,6.986394964769715e-07,-8.83891243574908e-06,7.244215521495789e-05
-2.027380651270505e-05,2.185694575018715e-05,-1.1213338666493655e-06,-1.398432686983142e-05,7.230735354823992e-05
-2.8652990295086056e-05,3.1726216548122466e-05,-3.6641606584453257e-06,-1.540065568406135e-05,6.786860467400402e-05
-4.12729823437985e-05,4.157457442488521e-05,-3.939615908166161e-06,-1.679209526628256e-05,6.645329995080829e-05
-4.589760646922514e-05,4.490415085456334e-05,-2.8099473183829105e-06,-1.6968773707048967e-05,6.471367669291794e-05
-4.326041380409151e-05,3.631520667113364e-05,-8.934137554206245e-07,-1.518037879577605e-05,6.298583321040496e-05
-4.145828279433772e-05,2.391029011050705e-05,-1.0622827630868414e-06,-1.6052690625656396e-05,6.261873204493895e-05
-4.1950330341933295e-05,2.5700644982862286e-05,1.4609936442866456e-06,-1.8359442037763074e-05,6.299276719801128e-05
-4.133031688979827e-05,4.1090286686085165e-05,4.437668849277543e-06,-1.7160175048047677e-05,6.112091796239838e-05
-3.9634687709622085e-05,5.406260970630683e-05,6.493414275610121e-06,-1.63461736519821e-05,5.728281394112855e-05
-3.629521233960986e-05,5.570434586843476e-05,5.531594069907442e-06,-2.1422500140033662e-05,5.526079621631652e-05
-3.4413402318023145e-05,4.7785084461793303e-05,3.3499268283776473e-06,-2.482557829353027e-05,5.665818025590852e-05
-3.442654633545317e-05,4.09895546908956e-05,2.0223053525114665e-06,-2.2051346604712307e-05,6.028071220498532e-05
-3.412032674532384e-05,4.2107592889806256e-05,1.4781012396269944e-06,-1.7271020624320954e-05,6.453580863308161e-05
-3.4384767786832526e-05,4.293410893296823e-05,2.7815349312731996e-07,-1.4635989828093443e-05,6.900222797412425e-05
-3.51827620761469e-05,3.515794378472492e-05,-8.108970064313326e-07,-1.4573581211152487e-05,7.027127867331728e-05
-3.3110289223259315e-05,2.850173768820241e-05,-1.1390874306016485e-06,-1.7562608263688162e-05,6.964140629861504e-05
-2.406805651844479e-05,3.485505294520408e-05,-9.409040444552375e-07,-2.2093743609730154e-05,7.101074879756197e-05
-9.67588130151853e-06,4.76164641440846e-05,1.7777616676539765e-06,-2.1646683308063075e-05,7.292649388546124e-05
4.229060778015992e-06,5.396361666498706e-05,3.8865027818246745e-06,-1.4275235116656404e-05,7.202362030511722e-05
1.1365680620656349e-05,5.659909948008135e-05,3.694063479997567e-06,-7.864715371397324e-06,7.064591045491397e-05
7.203998848126503e-06,5.71594646316953e-05,3.2376831313740695e-06,-9.850322385318577e-06,6.891409429954365e-05
-1.6014147377063637e-06,5.4459927923744544e-05,5.153446181793697e-06,-1.2679364772338886e-05,6.405120075214654e-05
-2.5173571884806734e-06,5.3101848607184365e-05,7.865713087085169e-06,-9.887922715279274e-06,5.8834353694692254e-05
-3.769303702938487e-06,5.42380366823636e-05,8.539460395695642e-06,-4.9242726163356565e-06,6.054402547306381e-05
-1.6926149328355677e-05,5.7088309404207394e-05,1.1707317753462121e-05,-4.509397058427567e-06,6.644855602644384e-05
-2.917139499913901e-05,5.5186235840665177e-05,1.3581836356024724e-05,-1.039003018377116e-05,6.8766632466577e-05
-2.7936968763242476e-05,4.4509462895803154e-05,9.731876161822584e-06,-1.5491867088712752e-05,6.719328666804358e-05
-1.8839617041521706e-05,3.041624222532846e-05,7.083751370373648e-06,-1.4684344023407903e-05,6.560054316651076e-05
-9.833696822170168e-06,2.013971061387565e-05,6.6117172536905855e-06,-1.1430048289184924e-05,6.4266991103068e-05
-3.3792857720982283e-06,1.1113044820376672e-05,1.0350760021538008e-05,-1.1542045285750646e-05,6.151472916826606e-05
2.8282011044211686e-06,1.580159164404904e-06,1.3091741493553855e-05,-1.3677601600647904e-05,5.933525608270429e-05
2.7623227651929483e-06,1.0296652135366458e-06,1.3162790310161654e-05,-1.2705550943792332e-05,5.997056359774433e-05
-5.467998107633321e-06,3.990133791376138e-06,1.026220343192108e-05,-1.1698939488269389e-05,6.212317384779453e-05
-1.7228703654836863e-05,7.318689313251525e-06,5.15022611580207e-06,-1.1156656910316087e-05,6.120969919720665e-05
-2.8380818548612297e-05,1.2838623661082238e-05,2.4287232918140944e-06,-1.0596101674309466e-05,6.074869816075079e-05
-3.3552394597791135e-05,1.7153479348053224e-05,5.111128302814905e-06,-8.793549568508752e-06,6.509406375698745e-05
-3.112390186288394e-05,1.7862421373138204e-05,9.693540050648153e-06,-9.204082743963227e-06,6.818488327553496e-05
-2.6371446438133717e-05,1.6924910596571863e-05,1.1999125490547158e-05,-1.0709733032854274e-05,6.55617841403e-05
-2.7655783924274147e-05,1.6282403521472588e-05,1.2749756024277303e-05,-1.1325335435685702e-05,6.0741349443560466e-05
-3.143535286653787e-05,1.5412766515510157e-05,1.3277820471557789e-05,-1.0635213584464509e-05,5.766169851995073e-05
-3.421123983571306e-05,1.5356506992247887e-05,1.4404030480363872e-05,-8.524583790858742e-06,5.689850149792619e-05
-3.664476389531046e-05,1.529878682049457e-05,1.479087495681597e-05,-9.666526239016093e-06,5.4870048188604414e-05
-3.6861667467746884e-05,1.7013566321111284e-05,1.2518041330622509e-05,-1.2833531400247011e-05,5.1375820476096123e-05
-3.0881510610925034e-05,2.2454656573245302e-05,8.070477633737028e-06,-1.2307747965678573e-05,4.991747118765488e-05
-2.516617860237602e-05,3.0505734684993513e-05,5.373432486521779e-06,-8.890174285625108e-06,5.2516166761051863e-05
-2.6700750822783448e-05,3.28702008118853e-05,4.442505542101571e-06,-8.483141755277757e-06,5.800272629130632e-05
-2.9464601539075375e-05,2.9153117793612182e-05,7.673679647268727e-06,-9.905994375003502e-06,6.21660437900573e-05
-3.047442078241147e-05,2.744963603618089e-05,1.0726149412221275e-05,-1.0653097888280172e-05,6.328019662760198e-05
-3.121270128758624e-05,2.9203201847849414e-05,6.400488018698525e-06,-1.1120450835733209e-05,6.204947567312047e-05
-3.0501883884426206e-05,2.8083140932722017e-05,-2.2092665403761202e-06,-1.3638440577778965e-05,6.0100763221271336e-05
-2.9331484256545082e-05,2.175198278564494e-05,-4.647393780032871e-06,-1.3869255781173706e-05,5.851953392266296e-05
-2.7959580620517954e-05,2.1781173927593045e-05,-9.70874566519342e-07,-1.0803552868310362e-05,5.343987140804529e-05
-2.887763548642397e-05,2.972941547341179e-05,1.2480630857680808e-06,-6.198863502504537e-06,4.876264210906811e-05
-2.7049691198044457e-05,3.7599435017909855e-05,3.7382187656476162e-06,-2.003275767492596e-06,4.608725066646002e-05
-2.28610970225418e-05,4.226566306897439e-05,1.0545564691710752e-05,4.260041635006928e-07,4.390074172988534e-05
-2.356345794396475e-05,3.912324973498471e-05,1.6697034880053252e-05,1.8851839058697806e-06,4.686837928602472e-05
-2.6208021154161543e-05,3.386441312613897e-05,1.9289427655166946e-05,3.4273673463758314e-06,4.9221252993447706e-05
-2.4280132493004203e-05,3.46853666997049e-05,1.897860965982545e-05,5.518054422282148e-07,5.3267842304194346e-05
-2.052926538453903e-05,3.855657996609807e-05,1.8964085029438138e-05,-4.915023055218626e-06,6.007402771501802e-05
-2.505339216440916e-05,3.855960312648676e-05,1.9837978470604867e-05,-9.79772175924154e-06,6.23372761765495e-05
-3.0284647436928935e-05,3.597132672439329e-05,1.9495577362249605e-05,-1.1546333553269506e-05,5.895209324080497e-05
-2.974176277348306e-05,3.198509875801392e-05,2.0095563741051592e-05,-9.816299098019954e-06,5.246077853371389e-05
-2.7422818675404415e-05,2.844419032044243e-05,2.1459580239024945e-05,-8.996581527753733e-06,4.774218177772127e-05
-2.980417229991872e-05,2.9936771170469e-05,2.2545355022884905e-05,-7.519264272559667e-06,4.891875141765922e-05
-3.403588925721124e-05,3.436991391936317e-05,2.2901451302459463e-05,-6.149374712549616e-06,5.300708289723843e-05
-3.5624088923214003e-05,3.750765245058574e-05,2.406865132797975e-05,-5.09920391777996e-06,5.4742729844292626e-05
-3.273686525062658e-05,4.048649498145096e-05,2.3666269044042565e-05,-3.155245849484345e-06,5.583592064795084e-05
-2.6788584364112467e-05,4.121148231206462e-05,2.0978006432414986e-05,-1.0373579470979166e-06,5.851543755852617e-05
-2.4109091100399382e-05,3.5778120945906267e-05,1.851962588261813e-05,-2.8931297038070625e-06,6.035814658389427e-05
-2.6398398404126056e-05,2.7026848329114728e-05,1.594156310602557e-05,-7.565116447949549e-06,6.147988460725173e-05
-2.7814814529847354e-05,1.8816968804458156e-05,1.1248466762481257e-05,-9.203035006066784e-06,6.194007437443361e-05
-2.610964293126017e-05,1.2732850336760748e-05,6.534199201269075e-06,-7.116028427844867e-06,6.056073834770359e-05
-2.834021142916754e-05,1.0217841008852702e-05,7.5154530350118876e-06,-5.551037247641943e-06,5.887609222554602e-05
-3.4140030038543046e-05,1.1885734238603618e-05,1.0930246389762033e-05,-4.279376753402175e-06,5.875299029867165e-05
-4.0193077438743785e-05,1.682128458924126e-05,1.0479784577910323e-05,-1.9139572486892575e-06,6.143180507933721e-05
-4.038554834551178e-05,2.3378208425128832e-05,7.483116860385053e-06,-1.863736315499409e-06,6.278130604187027e-05
-3.153780198772438e-05,2.7955313271377236e-05,3.1346819469035836e-06,-5.4709585128875915e-06,6.260017835302278e-05
-2.3454471374861896e-05,2.590834628790617e-05,-8.230018693211605e-07,-6.847893473604927e-06,6.0430589655879885e-05
-1.8901626390288584e-05,2.1689271306968294e-05,-2.8829181246692315e-06,-6.31040984444553e-06,5.6929216952994466e-05
-1.8085736883222125e-05,2.4687478799023665e-05,-3.6954288589186035e-06,-5.054928806202952e-06,5.3247393225319684e-05
-2.0646311895688996e-05,3.2657677365932614e-05,-1.5363817738034413e-06,-3.1304903131967876e-06,4.973410250386223e-05
-2.4357263100682758e-05,3.746088987099938e-05,2.3047211925586453e-06,-2.5398405796295265e-06,4.977464413968846e-05
-2.6215830075670965e-05,3.124587601632811e-05,2.6993313895218307e-06,-1.775845362317341e-06,5.308856998453848e-05
-2.315805795660708e-05,2.682150443433784e-05,-8.903484172151366e-07,-1.925556716741994e-06,5.9415157011244446e-05
-2.0744348148582503e-05,3.681873204186559e-05,-4.62210255136597e-06,-4.487365004024468e-06,6.335097714327276e-05
-1.9191205865354277e-05,5.150552169652656e-05,-1.9846775103360415e-06,-8.049752977967728e-06,6.384686275850981e-05
-1.823302409320604e-05,5.724141010432504e-05,5.190983756619971e-06,-9.47031639952911e-06,6.344915891531855e-05
-1.6735011740820482e-05,5.32520170963835e-05,5.21363153893617e-06,-1.0522840966586955e-05,6.088343434385024e-05
-1.8508757420931943e-05,4.0085062209982425e-05,-7.555328807029582e-07,-1.2556422916532028e-05,5.7437497162027285e-05
-2.4102624593069777e-05,2.478429269103799e-05,-4.93644256494008e-06,-1.4475585885520559e-05,5.4586693295277655e-05
-2.759139533736743e-05,1.838167736423202e-05,-5.6881790442275815e-06,-1.3190400750318076e-05,5.667375080520287e-05
-2.38964148593368e-05,1.9685172446770594e-05,-6.014267000864493e-06,-9.42131009651348e-06,6.176993338158354e-05
-1.9568513380363584e-05,2.2292020730674267e-05,-4.4368212002154905e-06,-8.67095968715148e-06,6.44978936179541e-05
-2.244886854896322e-05,2.1096249838592485e-05,-2.008323008340085e-06,-1.2105131645512301e-05,6.504770135506988e-05
-3.0546056223101914e-05,1.4667893083242234e-05,-3.208143880328862e-06,-1.5532928955508396e-05,6.718357326462865e-05
-3.6713357985718176e-05,3.5740151815844e-06,-6.065164143365109e-06,-1.6327601770171896e-05,6.840910646133125e-05
-3.64686748071108e-05,-3.987648142356193e-06,-1.0952716365864035e-05,-1.6049192709033377e-05,6.760844553355128e-05
-3.279418160673231e-05,-2.0166251033515437e-06,-1.9068758774665184e-05,-1.5256571714417078e-05,6.819530244683847e-05
-3.1115603633224964e-05,4.9397253860661294e-06,-2.443378252792172e-05,-1.4055893188924529e-05,6.925669003976509e-05
-3.0992276151664555e-05,1.2010775208182167e-05,-2.360842699999921e-05,-1.4770836060051806e-05,6.824745651101694e-05
-2.7465981474961154e-05,1.8818531316355802e-05,-1.9000901374965906e-05,-1.7572465367265977e-05,6.468301580753177e-05
-2.5007557269418612e-05,2.2727543182554655e-05,-1.3518580090021715e-05,-2.0311912521719933e-05,6.149091495899484e-05
-2.8818714781664312e-05,2.7867436074302532e-05,-7.513143373216735e-06,-2.1099367586430162e-05,6.258022040128708e-05
-3.263196413172409e-05,3.2662464946042746e-05,3.068215619350667e-06,-1.924889875226654e-05,6.74434777465649e-05
-3.0322984457598068e-05,3.216192271793261e-05,2.0137758838245645e-05,-1.9034070646739565e-05,7.124247349565849e-05
-2.8105459932703525e-05,3.0516559490934014e-05,3.875436959788203e-05,-1.6926187527133152e-05,6.885725451866165e-05
-2.8214766643941402e-05,3.444126559770666e-05,4.2904619476757944e-05,-9.960140232578851e-06,6.201468204380944e-05
-3.116614243481308e-05,4.2145584302488714e-05,3.452006421866827e-05,-4.852439360547578e-06,5.6926826800918207e-05
-3.499168815324083e-05,4.65021985291969e-05,2.591363590909168e-05,-2.2499509668705286e-06,5.776913167210296e-05
-3.7927671655779704e-05,4.4814831198891625e-05,1.9046132365474477e-05,-2.960951860586647e-06,6.12278381595388e-05
-3.752571137738414e-05,3.153943544020876e-05,1.4852317690383643e-05,-6.350523108267225e-06,6.216263136593625e-05
-3.363742507644929e-05,1.3417747140920255e-05,1.1352460205671377e-05,-7.481256943719927e-06,6.370124901877716e-05
-2.5229057428077795e-05,6.199402832862688e-06,1.0763742466224357e-05,-5.853360107721528e-06,6.450076762121171e-05
-2.0292251065257005e-05,1.2729415175272152e-05,1.1782805813709274e-05,-1.2760600611727568e-06,6.852083606645465e-05
-2.0380244677653536e-05,2.7278936613583937e-05,1.1084595826105215e-05,2.477762336638989e-06,7.080681825755164e-05
-1.8520289813750423e-05,3.5184169973945245e-05,8.582860573369544e-06,1.7251074950763723e-06,6.819221016485244e-05
-1.768742367858067e-05,3.171062417095527e-05,3.917143658327404e-06,-1.795453727027052e-06,6.664368993369862e-05
-1.792419425328262e-05,2.9143942811060697e-05,-1.0884725725190947e-06,-1.7416845139450743e-06,6.60150108160451e-05
-1.6498084733029827e-05,3.366792589076795e-05,-2.615598759803106e-06,7.010183100675249e-09,6.406490865629166e-05
-1.2114039236621466e-05,3.812849899986759e-05,-1.2695036275545135e-06,-2.36510254580935e-06,6.349744217004627e-05
-5.974709893052932e-06,3.599414412747137e-05,-2.3423676793754566e-06,-6.615126494580181e-06,6.491256499430165e-05
-1.6117299992401968e-06,2.6994906875188462e-05,-6.548690180352423e-06,-8.429587978753261e-06,6.662242958554998e-05
-2.5931171876436565e-06,1.7018959624692798e-05,-9.888209206110332e-06,-7.92725677456474e-06,6.763746932847425e-05
-6.16104762229952e-06,1.5421926946146414e-05,-1.0618437954690307e-05,-7.248071597132366e-06,6.54941177344881e-05
-8.26417362986831e-06,2.3216647605295293e-05,-1.0343019312131219e-05,-7.612744866491994e-06,6.075951023376547e-05
-6.146910891402513e-06,3.0907314794603735e-05,-9.135684194916394e-06,-8.816232366370969e-06,5.6762823078315705e-05
-3.163086830682005e-06,3.0215229344321415e-05,-1.1971612366323825e-05,-9.023026905197185e-06,5.458762461785227e-05
-5.81030599278165e-06,2.485769618942868e-05,-1.9791690647252835e-05,-9.633632544137072e-06,5.318569310475141e-05
-1.101631460187491e-05,1.6761438018875197e-05,-2.577237319201231e-05,-1.2449319001461845e-05,5.642881660605781e-05
-1.1806053407781292e-05,1.3493048754753545e-05,-2.7244104785495438e-05,-1.5012329640740063e-05,6.104887870606035e-05
-1.1614657523750793e-05,1.978399268409703e-05,-2.356703407713212e-05,-1.1509165233292151e-05,6.384318839991465e-05
-1.0618015949148685e-05,2.3886310373200104e-05,-1.4703359738632571e-05,-9.463610695092939e-06,6.52883609291166e-05
-1.395904655510094e-05,2.4359522285521962e-05,-1.4826804317635833e-06,-1.2260232324479148e-05,6.216356996446848e-05
-2.015798781940248e-05,2.767602745734621e-05,8.38514733914053e-06,-1.2284351214475464e-05,5.9709131164709106e-05
-1.9748325939872302e-05,3.514948548399843e-05,1.035922559822211e-05,-1.0065555215987843e-05,5.938998219789937e-05
-1.547483952890616e-05,3.771112096728757e-05,8.051490112848114e-06,-6.56561724099447e-06,5.5762317060725763e-05
-1.460260318708606e-05,3.069651575060561e-05,8.376663572562393e-06,-5.667044661095133e-06,5.4692958656232804e-05
-2.150933869415894e-05,2.316759309906047e-05,1.3139881048118696e-05,-7.712024853390176e-06,5.405347474152222e-05
-3.068855221499689e-05,1.7733769709593616e-05,1.4552041648130398e-05,-8.431627065874636e-06,5.2966988732805476e-05
-3.875193215208128e-05,1.2560052709886804e-05,1.3481348105415236e-05,-1.0313598068023566e-05,4.885030284640379e-05
-4.490163701120764e-05,1.0547478268563282e-05,1.6545842299819924e-05,-1.1129262929898687e-05,4.4160260586068034e-05
-4.900498970528133e-05,1.284904828935396e-05,2.3238435460370965e-05,-8.730942681722809e-06,4.493887536227703e-05
-5.130082354298793e-05,1.2400427294778638e-05,2.5161803932860494e-05,-6.240583388716914e-06,5.0746664783218876e-05
-5.1350289140827954e-05,9.894535651255865e-06,1.981263812922407e-05,-8.461193829134572e-06,5.585542749031447e-05
-4.717147021437995e-05,8.036136023292784e-06,9.850743481365498e-06,-1.416402665199712e-05,5.8618308685254306e-05
-3.851401197607629e-05,7.286978416232159e-06,7.936830570542952e-07,-1.7428472347091883e-05,6.136283627711236e-05
-3.251512680435553e-05,7.831683433323633e-06,-9.067470614354534e-07,-1.5691590306232683e-05,6.267401477089152e-05
-3.253023169236258e-05,1.456222526030615e-05,3.452568307693582e-06,-1.2488226275308989e-05,6.364356522681192e-05
-3.05917055811733e-05,3.060344897676259e-05,9.745970601215959e-06,-1.1784669368353207e-05,6.498734001070261e-05
-2.2447255105362274e-05,4.943302701576613e-05,1.446808164473623e-05,-1.2148836503911298e-05,6.537291483255103e-05
-1.366433843941195e-05,5.800130020361394e-05,1.721786247799173e-05,-1.1645318409136962e-05,6.208276317920536e-05
-7.964419637573883e-06,5.090987906442024e-05,1.9409133528824896e-05,-1.1546118912519887e-05,5.5619573686271906e-05
-3.5535799725039396e-06,4.21946715505328e-05,2.031027543125674e-05,-1.4042831935512368e-05,4.816134969587438e-05
1.3933116633779719e-06,4.563154652714729e-05,1.875488305813633e-05,-1.815019095374737e-05,4.231340790283866e-05
6.886199571454199e-06,6.147905514808372e-05,1.9627210349426605e-05,-2.1051435396657325e-05,4.049626659252681e-05
9.726146345201414e-06,7.490097777917981e-05,2.346609289816115e-05,-2.0498733647400513e-05,4.504722892306745e-05
4.7090466068766546e-06,8.08683835202828e-05,2.460368341417052e-05,-1.7829675925895572e-05,4.9887734348885715e-05
-3.979545454058098e-06,8.965442975750193e-05,1.940013862622436e-05,-1.5510586308664642e-05,5.20528010383714e-05
-7.809711860318203e-06,9.866514301393181e-05,1.6728969058021903e-05,-1.5695110050728545e-05,5.170957956579514e-05
-5.352515472623054e-06,0.0001027808539220132,1.9745162717299536e-05,-1.5848550901864655e-05,5.02461007272359e-05
-4.762679054692853e-06,9.77730960585177e-05,2.06948934646789e-05,-1.295270885748323e-05,5.204504122957587e-05
-1.2712440366158262e-05,8.474440983263776e-05,2.326253343198914e-05,-9.435139872948639e-06,5.740958295064047e-05
-2.9241266020108014e-05,6.652570300502703e-05,2.6146217351197265e-05,-1.001321834337432e-05,5.979086927254684e-05
-4.473165245144628e-05,5.184873953112401e-05,2.8738284527207725e-05,-1.4508185813610908e-05,5.815275653731078e-05
-4.82264076708816e-05,4.648128378903493e-05,2.931424205598887e-05,-1.6062920622061938e-05,5.4838536016177386e-05
-4.329044168116525e-05,4.365564382169396e-05,2.3033018806017935e-05,-1.1075300790253095e-05,5.621131640509702e-05
-3.8095691706985235e-05,4.224059375701472e-05,1.2078791769454256e-05,-8.61946045915829e-06,5.9178131778026e-05
-3.854514579870738e-05,2.7615067665465176e-05,1.6486718550368096e-06,-1.194053311337484e-05,5.8213641750626266e-05
-3.957351509598084e-05,7.209620889625512e-06,-5.95130632063956e-06,-1.3826482245349325e-05,5.454792335513048e-05
-3.747862501768395e-05,-3.0167884688125923e-06,-8.896066901797894e-06,-1.3715048226004e-05,5.272014459478669e-05
-3.737473161891103e-05,-1.3840731298842002e-06,-6.177687282615807e-06,-1.2098020306439139e-05,5.594933099928312e-05
-3.914939588867128e-05,2.629818254717975e-06,-4.286838702682871e-06,-7.3052378866123036e-06,5.829432848258875e-05
-3.8886249967617914e-05,4.171389264229219e-06,-4.114045623282436e-06,-1.971504161701887e-06,5.8541478210827336e-05
-3.4922180930152535e-05,7.419936082442291e-06,-1.2270650131540606e-06,3.8485282516376174e-07,5.6893393775681034e-05
-3.3005377190420404e-05,1.7347845641779713e-05,5.556825271924026e-06,-2.142569428542629e-06,5.4733485740143806e-05
-3.537545489962213e-05,2.8711774575640447e-05,9.222554581356235e-06,-7.227036348922411e-06,5.2749444876099005e-05
-4.1346494981553406e-05,3.224330794182606e-05,9.329502972832415e-06,-1.0120975275640376e-05,5.126060568727553e-05
-4.7149751480901614e-05,2.966967258544173e-05,1.0626887160469778e-05,-1.0122256753675174e-05,4.88675432279706e-05
-4.785801502293907e-05,2.631905590533279e-05,1.2780835277226288e-05,-1.1360740245436318e-05,4.62149218947161e-05
-4.695239113061689e-05,2.6535706638242118e-05,1.051158869813662e-05,-1.3621899597637821e-05,4.6620756620541215e-05
-5.1241135224699974e-05,2.8426273274817504e-05,1.210776986226847e-06,-1.3379380106925964e-05,5.019951277063228e-05
-5.913974018767476e-05,2.9727221772191115e-05,-9.172876161755994e-06,-1.2590827282110695e-05,5.2810428314842284e-05
-6.443282472901046e-05,2.9072871257085353e-05,-1.162044736702228e-05,-1.2314426385273691e-05,5.228615191299468e-05
-5.9969770518364385e-05,2.7083018721896224e-05,-8.232446816691663e-06,-1.5326500943046995e-05,4.835513391299173e-05
-5.0073656893800944e-05,2.183481410611421e-05,-5.895484264328843e-06,-1.933549174282234e-05,4.795499989995733e-05
-4.8415113269584253e-05,1.8068847566610202e-05,-4.919971615890972e-06,-2.240260801045224e-05,5.179396612220444e-05
-5.1767539844149724e-05,1.3247154129203409e-05,-5.708617209165823e-06,-2.116994437528774e-05,5.625335325021297e-05
-4.783704207511619e-05,8.193600478989538e-06,-9.300324563810136e-06,-1.3542869055527262e-05,5.797294943477027e-05
-3.46983979397919e-05,6.173578185553197e-06,-1.1359671589161735e-05,-1.2092044016753789e-05,5.724028960685246e-05
-2.310319905518554e-05,2.9914087917859433e-06,-8.220285053539556e-06,-1.3500906788976863e-05,5.705500370822847e-05
-1.732718556013424e-05,-3.993343398178695e-06,-5.211863026488572e-06,-1.0312352060282137e-05,5.702799899154343e-05
-1.849566979217343e-05,-8.838466783345211e-06,-4.148911557422252e-06,-8.522227290086448e-06,5.8787692978512496e-05
-2.2872436602483504e-05,-5.955263077339623e-06,-7.659974471607711e-06,-1.2479360520956106e-05,5.702384441974573e-05
-2.827372372848913e-05,2.9338750664464897e-06,-1.0933355042652693e-05,-1.7319764083367772e-05,5.335127571015619e-05
-3.568816464394331e-05,1.0268540791003034e-05,-5.878817773918854e-06,-1.8798567907651886e-05,5.115086605655961e-05
-4.005025766673498e-05,1.4185361578711309e-05,2.405203986199922e-06,-1.8075983462040313e-05,5.068643804406747e-05
-4.167124643572606e-05,1.859053190855775e-05,4.2311244214943144e-06,-1.4445789020101074e-05,4.961703598382883e-05
-4.046161484438926e-05,2.631691677379422e-05,1.839478500187397e-06,-1.191919272969244e-05,4.8611742386128753e-05
-3.071215905947611e-05,3.5143722925568e-05,-5.265193294690107e-07,-1.2509434782259632e-05,4.937460471410304e-05
-1.4410994481295347e-05,3.847695916192606e-05,-3.9529663808934856e-07,-1.4384208043338731e-05,5.19038294441998e-05
-3.423104089961271e-06,3.600623313104734e-05,1.4394389609151403e-06,-1.5495397747145034e-05,5.689264799002558e-05
-4.490174433158245e-06,3.254642433603294e-05,4.2378133002785034e-06,-1.6243517166003585e-05,6.171342101879418e-05
-1.3535492144001182e-05,2.991053042933345e-05,6.3610686993342824e-06,-1.6208914530579932e-05,6.389147165464237e-05
-2.0784409571206197e-05,2.7895601306227036e-05,5.951203092990909e-06,-1.5909223293419927e-05,6.28259003860876e-05
-1.9809604054898955e-05,2.7267335099168122e-05,4.922528660245007e-06,-1.5124081073736306e-05,6.246822886168957e-05
-1.8696147890295833e-05,2.5887469746521674e-05,3.5538487281883135e-06,-1.1945288861170411e-05,6.547125667566434e-05
-2.5618262952775694e-05,2.6329154934501275e-05,7.731731557214516e-07,-8.37136849440867e-06,6.853216473245993e-05
-3.0098390197963454e-05,2.9424143576761708e-05,-2.232008910141303e-06,-7.484834441129351e-06,6.785878213122487e-05
-3.069318336201832e-05,2.9254475521156564e-05,-1.6541222294108593e-06,-1.0889450095419306e-05,6.362735439324751e-05
-3.407101394259371e-05,2.3567276002722792e-05,5.474862518894952e-07,-1.5955807612044737e-05,6.016383849782869e-05
-3.51614216924645e-05,2.257975938846357e-05,1.489958322054008e-06,-1.8536906281951815e-05,6.107757508289069e-05
-3.596728856791742e-05,2.963295264635235e-05,1.5575867564621149e-06,-1.7526204828755e-05,6.464432226493955e-05
-4.0247843571705744e-05,3.164956433465704e-05,2.0967652289982652e-06,-1.4599067071685567e-05,6.864933675387874e-05
-3.921062307199463e-05,2.338659396627918e-05,4.239409463480115e-06,-1.2563027667056303e-05,6.954434502404183e-05
-3.2566884328844026e-05,1.8969563825521618e-05,4.813275609194534e-06,-1.1756154890463222e-05,6.998884782660753e-05
-2.8898275559186004e-05,2.6568535758997314e-05,4.532584171101917e-06,-1.3088102605252061e-05,6.816186214564368e-05
-2.7201638658880256e-05,3.1730309274280444e-05,8.465343853458762e-06,-1.5388441170216538e-05,6.351300544338301e-05
-2.3317892555496655e-05,2.7217653041589074e-05,1.4032728358870372e-05,-1.3395422683970537e-05,6.340364052448422e-05
-1.9761317162192427e-05,2.744719313341193e-05,1.9531469661160372e-05,-8.119570338749327e-06,6.74624607199803e-05
-1.6470956325065345e-05,3.923277108697221e-05,1.9766057448578067e-05,-6.113074050517753e-06,7.083268428687006e-05
-1.229367535415804e-05,4.5448075979948044e-05,1.6232068446697667e-05,-1.0180317985941656e-05,7.020355405984446e-05
-9.456529369344935e-06,2.6079229428432882e-05,1.4833251952950377e-05,-1.4691649084852543e-05,6.697926437482238e-05
-7.906949576863553e-06,-7.747763447696343e-06,1.8892342268372886e-05,-1.5532101315329783e-05,6.554799620062113e-05
-1.1389998689992353e-05,-3.663742245407775e-05,2.517733992135618e-05,-1.6008465536287986e-05,6.75233532092534e-05
-1.71114024851704e-05,-5.575704562943429e-05,3.0173492632457055e-05,-1.578241426614113e-05,6.897706043673679e-05
-2.3416459953295998e-05,-6.244127871468663e-05,3.0416900699492544e-05,-1.1876782991748769e-05,6.709390436299145e-05
-3.121322879451327e-05,-5.928702375967987e-05,2.710535773076117e-05,-4.834966603084467e-06,6.327388837235048e-05
-3.347943857079372e-05,-4.994710616301745e-05,2.2913318389328197e-05,4.6888345650586416e-07,5.98131628066767e-05
-2.95959907816723e-05,-3.059691152884625e-05,2.007727925956715e-05,1.3058719616765302e-07,5.6927703553810716e-05
-2.6030556909972802e-05,4.05317086915602e-06,1.9416464056121185e-05,-3.395004114281619e-06,5.6764572946121916e-05
-2.524523006286472e-05,5.459714157041162e-05,1.9710201740963385e-05,-5.380787115427665e-06,6.03466214670334e-05
-2.6649939172784798e-05,0.0001158179366029799,2.08424808079144e-05,-3.981862391810864e-06,6.642274820478633e-05
-3.336280133225955e-05,0.0001722237648209557,1.9091243302682415e-05,-1.7861076457847957e-06,6.906339694978669e-05
-4.227830140735023e-05,0.00019945387612096965,1.4692695003759582e-05,-9.57865495365695e-07,6.535818101838231e-05
-4.169746534898877e-05,0.00019076539319939911,9.001367288874462e-06,-2.945670530607458e-06,5.91766438446939e-05
-3.0864910513628274e-05,0.00016468510148115456,5.111237442179117e-06,-7.586603260278935e-06,5.6007105740718544e-05
-2.4067849153652787e-05,0.0001396839361405,5.80955702389474e-06,-1.11393246697844e-05,5.627896462101489e-05
-2.057190431514755e-05,0.00012604397488757968,8.739323675399646e-06,-1.1637038369372021e-05,5.7063476560870185e-05
-1.432489534636261e-05,0.00011167147022206336,6.697473054373404e-06,-1.1237036233069375e-05,5.5625943787163123e-05
-6.7327737269806676e-06,7.945352990645915e-05,5.489509931067005e-06,-1.1569675734790508e-05,4.926461406284943e-05
-1.7219589381056721e-06,3.7256500945659354e-05,5.309247171680909e-06,-1.1897616786882281e-05,4.444037040229887e-05
-1.915767370519461e-06,7.278472821781179e-06,9.410180723534722e-07,-1.0800436029967386e-05,4.724523387267254e-05
-3.6822989386564586e-06,-6.072086193853465e-07,3.7084430459799478e-06,-9.925092854246031e-06,5.14355197083205e-05
-7.490430107282009e-06,5.741777385992464e-06,1.1688513041008264e-05,-1.0166440006287303e-05,5.0889542762888595e-05
-1.2102390428481158e-05,1.2096812497475185e-05,8.901850378606468e-06,-1.1261196050327271e-05,4.866903691436164e-05
-1.5580824765493162e-05,1.2124001841584686e-05,3.3770927529985784e-06,-1.1639132026175503e-05,4.690747300628573e-05
-1.6569450963288546e-05,1.2158623576397076e-05,3.7427753341034986e-06,-1.4004408512846567e-05,4.713889939012006e-05
-1.3796118764730636e-05,1.097677795769414e-05,6.786231097066775e-06,-1.552288631501142e-05,5.033657362218946e-05
-1.3502207366400398e-05,1.033785974868806e-05,7.781111889926251e-06,-1.386614894727245e-05,5.306192542775534e-05
-1.9226361473556608e-05,1.392637932440266e-05,4.3765453483501915e-06,-1.102683563658502e-05,5.4025578720029444e-05
-2.7479274649522267e-05,1.4042440852790605e-05,1.2700901663720288e-07,-9.236450750904623e-06,5.647636135108769e-05
-3.593413202906959e-05,8.830259503156412e-06,-2.751006149992463e-06,-9.02897045307327e-06,5.7545323215890676e-05
-4.251433347235434e-05,7.724522220087238e-06,-3.0386609068955295e-06,-7.622179964528186e-06,5.565298124565743e-05
-4.488120612222701e-05,1.0821302566910163e-05,2.2598229065806663e-08,-6.261058842937928e-06,5.430342935142107e-05
-4.210254337522201e-05,1.1829743016278371e-05,4.9342179408995435e-06,-4.13240240959567e-06,5.572587178903632e-05
-3.7617446650983766e-05,9.389485967403743e-06,7.665726116101723e-06,-3.3660260214674054e-06,5.6610690080560744e-05
-3.5627865145215765e-05,7.431755875586532e-06,5.781598247267539e-06,-3.838125849142671e-06,5.603709723800421e-05
-3.6298060877015814e-05,7.660401934117544e-06,1.962327814908349e-06,-4.409717803355306e-06,5.768027767771855e-05
-3.5101897083222866e-05,1.3617807780974545e-05,2.0976240193704143e-06,-5.097635494166752e-06,6.397111428668723e-05
-3.062955875066109e-05,2.632568975968752e-05,6.497432877949905e-06,-6.7503610807762016e-06,6.911933451192454e-05
-2.682032027223613e-05,3.599211049731821e-05,1.4674571502837352e-05,-6.837747605459299e-06,6.857991684228182e-05
-2.2365900804288685e-05,3.541069236234762e-05,2.2272330170380883e-05,-8.241230716521386e-06,6.697895150864497e-05
-1.7659780496614985e-05,2.9965971407364123e-05,2.1822716007591225e-05,-1.1354024536558427e-05,6.746150029357523e-05
-1.9685936422320083e-05,2.475089240761008e-05,1.4376162653206848e-05,-9.869620953395497e-06,6.54405084787868e-05
-2.6776559025165625e-05,2.0121775378356688e-05,5.249634341453202e-06,-6.512362688226858e-06,5.908022649236955e-05
-3.317819573567249e-05,2.2428530428442173e-05,1.0001140253734775e-06,-5.912868800805882e-06,5.618595241685398e-05
-3.078459485550411e-05,2.6912106477539055e-05,1.637929244679981e-06,-5.845382929692278e-06,5.626941128866747e-05
-1.9920098566217348e-05,3.03005326713901e-05,2.860593667719513e-06,-3.8631278584944084e-06,5.793869058834389e-05
-1.4315127373265568e-05,3.0484143280773424e-05,-2.095306172122946e-06,-7.856846195863909e-07,6.068467700970359e-05
-1.2772663467330858e-05,2.6804587832884863e-05,-1.3495350685843732e-05,-3.2649541026330553e-06,6.212943844730034e-05
-1.3521705113817006e-05,1.7276288417633623e-05,-2.0722089175251313e-05,-1.0103539352712687e-05,5.7676505093695596e-05
-1.9294106095912866e-05,9.746670002641622e-06,-2.4208729882957414e-05,-1.3616641808766872e-05,5.1288130634929985e-05
-2.5563318558852188e-05,9.783154382603243e-06,-2.2600635929848067e-05,-1.2757855074596591e-05,4.941559745930135e-05
-2.4942566597019322e-05,8.241056093538646e-06,-1.7801679859985597e-05,-1.0280545211571734e-05,5.476812657434493e-05
-1.735147088766098e-05,4.736275968753034e-06,-1.3010598195251077e-05,-1.0888260476349387e-05,6.169558764668182e-05
-1.0244861186947674e-05,3.797059662247193e-06,-3.5460209346638294e-06,-1.3419155948213302e-05,6.701576057821512e-05
-4.880743745161453e-06,7.063161774567561e-06,3.994442977273138e-06,-1.5719302609795704e-05,7.229734910652041e-05
-2.9912168884038692e-06,1.084529412764823e-05,-2.164075112887076e-06,-1.1286013432254549e-05,7.228916365420446e-05
-4.413961505633779e-06,1.3083653357170988e-05,-1.9199500457034446e-05,-3.046277470275527e-06,6.847727490821853e-05
-5.870825134479674e-06,1.1358144547557458e-05,-3.403337541385554e-05,1.0639053016348043e-06,6.394621595973149e-05
-7.5360603659646586e-06,1.163320030173054e-05,-3.6483117582974955e-05,-3.3641044865362346e-06,6.171672430355102e-05
-1.033599164657062e-05,1.4331329111882951e-05,-2.597288039396517e-05,-1.0418289093649946e-05,5.95388155488763e-05
-1.2384947694954462e-05,1.6799425793578848e-05,-1.0410586583020631e-05,-1.1458761036919896e-05,5.787104964838363e-05
-1.4081864719628356e-05,1.7474598280387e-05,4.673258899856592e-06,-5.662703642883571e-06,5.937251262366772e-05
-1.6587617210461758e-05,1.4840537005511578e-05,1.5823772628209554e-05,-6.48461877972295e-07,6.0971691709710285e-05
-1.9746763427974656e-05,1.3342174497665837e-05,2.3024284018902108e-05,-3.14233398057695e-06,5.942340794717893e-05
-2.146789847756736e-05,1.5548575902357697e-05,3.1623669201508164e-05,-7.024084425211186e-06,5.7462500990368426e-05
-1.9827302821795456e-05,1.7728683815221302e-05,3.9947863115230575e-05,-7.009151886450127e-06,5.728602263843641e-05
-1.6914715160964988e-05,2.2123949747765437e-05,4.2258063331246376e-05,-7.335358532145619e-06,5.680677350028418e-05
-1.602740667294711e-05,3.107423981418833e-05,4.186145088169724e-05,-1.0025316441897303e-05,5.4639833251712844e-05
-2.1449257474159822e-05,3.310920874355361e-05,4.075724064023234e-05,-1.1916308721993119e-05,4.984369661542587e-05
-2.9630016797455028e-05,2.568399031588342e-05,3.639179703895934e-05,-1.4624802133766934e-05,4.5652810513274744e-05
-2.9746383006568067e-05,1.7423204553779215e-05,3.0151521059451625e-05,-1.776738827174995e-05,4.731376247946173e-05
-2.468889761075843e-05,1.4996649952081498e-05,2.7768155632657e-05,-2.155838046746794e-05,5.2345490985317156e-05
-2.1189567632973194e-05,2.1797426597913727e-05,2.765825774986297e-05,-2.0605883037205786e-05,5.5015814723446965e-05
-1.662558497628197e-05,2.7299945941194892e-05,2.3820646674721502e-05,-1.22859601106029e-05,5.481656262418255e-05
-1.9835391867673025e-05,2.8804759494960308e-05,2.170354491681792e-05,-7.72407747717807e-06,5.411170423030853e-05
-2.9805642043356784e-05,3.3303364034509286e-05,1.9971446818090044e-05,-8.21724552224623e-06,5.608820356428623e-05
-3.3853601053124294e-05,3.8105623389128596e-05,1.6282960132230073e-05,-7.645136975042988e-06,6.040363950887695e-05
-3.3940737921511754e-05,3.8867721741553396e-05,1.3960214346298017e-05,-1.0400186511105858e-05,6.255630432860926e-05
-3.215076867491007e-05,3.2110419851960614e-05,7.27824271962163e-06,-1.2273378160898574e-05,6.025492984917946e-05
-2.8471693440224044e-05,3.1225856218952686e-05,3.10556913518667e-07,-1.1466264368209522e-05,5.507843161467463e-05
-3.138292231597006e-05,3.794660369749181e-05,-5.150955530552892e-06,-9.484393558523152e-06,5.18521701451391e-05
-3.976020889240317e-05,4.106024789507501e-05,-1.2779109965777025e-05,-8.249992788478266e-06,5.335491368896328e-05
-4.331660602474585e-05,3.542876584106125e-05,-1.8002883734880015e-05,-1.0144496627617627e-05,5.801795850857161e-05
-4.142310353927314e-05,2.9892646125517786e-05,-1.6564987163292244e-05,-1.3928217413194943e-05,6.154851143946871e-05
-3.749745155801065e-05,2.9449041903717443e-05,-1.3558507816924248e-05,-1.6873385902727023e-05,6.203484372235835e-05
-3.556173760443926e-05,3.007650411745999e-05,-1.433664783689892e-05,-1.3758336535829585e-05,6.27558765700087e-05
-3.8114492781460285e-05,2.898511775129009e-05,-1.4605941942136269e-05,-8.195200280169956e-06,6.367117748595774e-05
-4.1729970689630136e-05,2.7000103727914393e-05,-1.2430563401721884e-05,-6.304864655248821e-06,6.465918704634532e-05
-4.1375667933607474e-05,2.9969931347295642e-05,-1.1036497198801953e-05,-7.72712428442901e-06,6.52879461995326e-05
-3.830298737739213e-05,3.4530075936345384e-05,-1.0903777365456335e-05,-7.301572622964159e-06,6.507497892016545e-05
-3.5459343052934855e-05,3.705364360939711e-05,-9.349518222734332e-06,-4.733347850560676e-06,6.342216511256993e-05
-3.277131690992974e-05,3.897600981872529e-05,-4.967660061083734e-06,-4.235924279782921e-06,5.917885573580861e-05
-3.253453178331256e-05,4.305340917198919e-05,1.8730107740339008e-06,-7.747775271127466e-06,5.561339276027866e-05
-3.2119751267600805e-05,4.443393845576793e-05,5.868157586519374e-06,-1.0496182767383289e-05,5.747203613282181e-05
-2.6416188120492734e-05,3.951759572373703e-05,3.050224449907546e-06,-8.298309694509953e-06,6.428497727029026e-05
-2.1293724785209633e-05,2.9536580768763088e-05,-5.965586296952097e-06,-3.997808107669698e-06,6.843086157459766e-05
-2.1536974600167014e-05,2.6196403268841095e-05,-1.3325557119969744e-05,-2.5267224827985046e-06,6.528115045512095e-05
-2.6175215680268593e-05,3.228815330658108e-05,-1.4384073438122869e-05,-3.823724000540096e-06,6.031100565451197e-05
-2.930928712885361e-05,3.654310421552509e-05,-1.2917933418066241e-05,-4.1986368159996346e-06,5.8350793551653624e-05
-2.6248875656165183e-05,3.17495760100428e-05,-8.026167961361352e-06,-5.324834091879893e-06,5.845336272614077e-05
-2.3848140699556097e-05,2.5728782929945737e-05,-4.352973519416992e-06,-8.512308340868913e-06,6.087455403758213e-05
-2.9745644496870227e-05,2.9241655283840373e-05,-2.884641617129091e-06,-6.151026354928035e-06,6.151849083835259e-05
-3.652062878245488e-05,3.452569944784045e-05,-9.14794284767595e-09,-1.886183440547029e-06,6.0268510424066335e-05
-3.6743469536304474e-05,3.408125485293567e-05,1.0750792398539488e-06,-2.553144668127061e-06,6.134947034297511e-05
-3.702179674291983e-05,2.940829836006742e-05,1.6464017562611843e-06,-4.102475031686481e-06,6.020432920195162e-05
-3.5562756238505244e-05,2.9608381737489253e-05,1.207522132062877e-06,-5.685324595106067e-06,5.7652890973258764e-05
-2.9224192985566333e-05,3.36373777827248e-05,-3.011824389886897e-07,-8.004011760931462e-06,5.621132004307583e-05
-2.1857975298189558e-05,3.0995215638540685e-05,-6.694123300121646e-08,-8.745300874579698e-06,5.770556890638545e-05
-1.669451557972934e-05,2.1465704776346684e-05,4.237776465743082e-06,-8.515503395756241e-06,5.9623795095831156e-05
-1.7626276530791074e-05,1.037777019519126e-05,8.453904229099862e-06,-9.490289812674746e-06,5.767593393102288e-05
-1.7879974620882422e-05,8.948723916546442e-06,7.319853011722444e-06,-9.415791282663122e-06,5.535133459488861e-05
-1.4038150766282342e-05,2.0119290638831444e-05,1.1810475371021312e-06,-8.347084076376632e-06,5.8088917285203934e-05
-1.4453958101512399e-05,3.2478536013513803e-05,-4.23326127929613e-06,-1.080404945241753e-05,6.548885721713305e-05
-1.8345190255786292e-05,3.407574331504293e-05,-5.112797225592658e-06,-1.5650155546609312e-05,6.99855518178083e-05
-2.0696103092632256e-05,2.9125731089152396e-05,-2.769425464066444e-06,-1.867930950538721e-05,6.807075260439888e-05
-2.0489096641540527e-05,2.6891375455306843e-05,1.703978000477946e-06,-1.915904249472078e-05,6.54568721074611e-05
-1.9711935237864964e-05,2.4698219931451604e-05,4.893428013019729e-06,-1.88944013643777e-05,6.558052700711414e-05
-1.797705226636026e-05,1.600919131306e-05,4.397157681523822e-06,-1.8715594706009142e-05,6.509218655992299e-05
-1.7049651432898827e-05,7.187828487076331e-06,3.0667531518702162e-06,-1.989059819607064e-05,6.310419121291488e-05
-1.6445579603896476e-05,6.968654361116933e-06,6.171391305542784e-06,-2.243220660602674e-05,6.163890793686733e-05
-1.3758469322056044e-05,1.282048015127657e-05,1.124026584875537e-05,-2.221074464614503e-05,6.251035665627569e-05
-1.2797127965313848e-05,2.0539368051686324e-05,1.3100855539960321e-05,-1.9275339582236484e-05,6.33654126431793e-05
-1.3327136912266724e-05,2.8693555577774532e-05,1.109224740503123e-05,-1.861085729615297e-05,6.485551421064883e-05
-1.233764396602055e-05,3.642134106485173e-05,9.656338988861535e-06,-2.0727975424961187e-05,6.59361103316769e-05
-7.811918294464704e-06,3.859892603941262e-05,9.428990779269952e-06,-2.1251855287118815e-05,6.178325565997511e-05
-5.4706342780264094e-06,3.3310705475742e-05,1.28090559883276e-05,-2.1686604668502696e-05,5.708105891244486e-05
-8.768517545831855e-06,3.1350897188531235e-05,1.9980423530796543e-05,-2.193237560277339e-05,5.7053657656069845e-05
-1.319609691563528e-05,3.6770114093087614e-05,1.8416163584333844e-05,-1.7580216081114486e-05,5.819259240524843e-05
-1.6190346286748536e-05,3.961698530474678e-05,1.0904460395977367e-05,-1.150829757534666e-05,5.9871475968975574e-05
-1.6992709788610227e-05,3.49209331034217e-05,8.624862857686821e-06,-1.0789904990815558e-05,6.32219307590276e-05
-1.9346431145095266e-05,2.5948897018679418e-05,7.895680937508587e-06,-1.5932691894704476e-05,6.516046414617449e-05
-2.3890799639048055e-05,2.2810023438069038e-05,7.432992788380943e-06,-1.8044904209091328e-05,6.378947728080675e-05
-2.3996100935619324e-05,2.5445806386414915e-05,7.411041679006303e-06,-1.5957075447659008e-05,6.300549284787849e-05
-2.0358282199595124e-05,2.984105776704382e-05,5.87038721278077e-06,-1.6154874174389988e-05,6.146557279862463e-05
-1.9324776076246053e-05,3.471687523415312e-05,5.1389697546255775e-06,-1.5840603737160563e-05,5.8648856793297455e-05
-2.1036061298218556e-05,3.806477616308257e-05,9.291239621234126e-06,-1.4053676750336308e-05,5.658304871758446e-05
-2.4920405849115923e-05,3.219898644601926e-05,1.5674448150093667e-05,-1.3784057955490425e-05,5.7134802773362026e-05
-2.659460369613953e-05,2.2884816644364037e-05,1.7799597117118537e-05,-1.618695750948973e-05,5.8996694860979915e-05
-2.3042503016768023e-05,2.036898149526678e-05,1.4542161807185039e-05,-1.477317709941417e-05,5.922844138694927e-05
-2.03524741664296e-05,1.971782694454305e-05,1.1744151379389223e-05,-7.650979569007177e-06,5.8199169870931655e-05
-2.1523635950870812e-05,1.8788539819070138e-05,1.3693080290977377e-05,-4.215336502966238e-06,5.6117209169315174e-05
-2.3558448447147384e-05,2.5087783797062002e-05,1.7639556972426362e-05,-8.389730282942764e-06,5.332877844921313e-05
-2.4248651243397035e-05,3.5706732887774706e-05,1.9797902496065944e-05,-1.4183630810293835e-05,5.298807081999257e-05
-2.5698413082864136e-05,3.762785127037205e-05,1.8427454051561654e-05,-1.5967783838277683e-05,5.8356057706987485e-05
-2.810541081998963e-05,3.43776227964554e-05,1.4780309356865473e-05,-1.5123961020435672e-05,6.269236473599449e-05
-2.8677668524323963e-05,3.02108092000708e-05,1.275524846278131e-05,-1.4093741810938809e-05,5.8834764786297455e-05
-2.89344898192212e-05,2.4771921744104475e-05,1.435235117241973e-05,-1.175326542579569e-05,5.085406155558303e-05
-3.0105526093393564e-05,2.3099231839296408e-05,1.7199206922668964e-05,-8.374872777494602e-06,4.706575418822467e-05
-2.746950303844642e-05,2.4064642275334336e-05,2.0324427168816328e-05,-7.684300726396032e-06,4.861199704464525e-05
-2.714739275688771e-05,1.918642192322295e-05,2.36802407016512e-05,-8.049895768635906e-06,5.392373350332491e-05
-3.3406526199541986e-05,1.9686336599988863e-05,2.4497647245880216e-05,-1.0085054782393854e-05,5.9770565712824464e-05
-3.7020043237134814e-05,3.397828550077975e-05,2.023004344664514e-05,-1.2976071957382374e-05,6.157327152322978e-05
-3.372969149495475e-05,4.5384076656773686e-05,1.88206849998096e-05,-1.3193103768571746e-05,6.00700150243938e-05
-3.108807868557051e-05,4.732155139208771e-05,2.2845411876915023e-05,-1.4154181371850427e-05,5.837838398292661e-05
-3.2437055779155344e-05,4.236691165715456e-05,2.2329631974571384e-05,-1.5225809875119012e-05,5.727310053771362e-05
-3.049446240765974e-05,3.0499280910589732e-05,1.824791615945287e-05,-1.4717569683853071e-05,5.7796743931248784e-05
-2.8019789169775322e-05,2.0142642824794166e-05,1.4635143998020794e-05,-1.6367634088965133e-05,5.869952656212263e-05
-3.1373238016385585e-05,1.4970679330872372e-05,1.1515535334183369e-05,-1.520900877949316e-05,5.7535442465450615e-05
-3.7562545912805945e-05,1.2360186701698694e-05,1.296717528020963e-05,-8.974599040811881e-06,5.407347998698242e-05
-4.262256697984412e-05,1.457001781091094e-05,1.3727753866987769e-05,-4.988735781807918e-06,5.204364424571395e-05
-4.4303724280325696e-05,1.9218989109504037e-05,8.352616532647517e-06,-3.996825853391783e-06,4.6566554374294356e-05
-4.362614345154725e-05,2.1644118533004075e-05,-3.0335679639392765e-06,-4.016321781818988e-06,4.28545281465631e-05
-3.605494202929549e-05,2.2991496734903194e-05,-1.5303568943636492e-05,-7.1356048465531785e-06,4.43851895397529e-05
-1.889314444269985e-05,2.183263495680876e-05,-2.2742759028915316e-05,-1.20428539958084e-05,4.720071592601016e-05
-2.466134446876822e-06,2.0971425328752957e-05,-2.5099079721258022e-05,-1.4995077435742132e-05,4.971061571268365e-05
2.380336354690371e-06,2.7555037377169356e-05,-2.141076220141258e-05,-1.4782962352910545e-05,5.082457573735155e-05
-3.806531594818807e-06,3.9955481042852625e-05,-1.2918651918880641e-05,-1.5147709746088367e-05,5.27692936884705e-05
-8.972442628873978e-06,5.0462062063161284e-05,-4.119943696423434e-06,-1.7264730558963493e-05,5.0758961151586846e-05
-9.62081230682088e-06,5.659790986101143e-05,4.88915873120277e-07,-1.7673179172561504e-05,4.639143298845738e-05
-7.433994142047595e-06,5.487534508574754e-05,4.583258487400599e-06,-1.4772779650229495e-05,4.503194577409886e-05
-4.73871068606968e-06,4.990225352230482e-05,1.2332751794019714e-05,-9.926831808115821e-06,4.793662446900271e-05
-3.844565981125925e-06,5.098004839965142e-05,1.9897806851076894e-05,-7.09359164829948e-06,5.0894257583422586e-05
-4.095462827535812e-06,5.203608816373162e-05,2.190199120377656e-05,-9.346582373837009e-06,5.227805013419129e-05
-3.444179355938104e-06,4.745891783386469e-05,2.2045516743673943e-05,-1.3287472938827705e-05,5.319782212609425e-05
-4.740973508887691e-06,4.3652242311509326e-05,2.1403355276561342e-05,-1.3909444533055648e-05,5.558794873650186e-05
-1.1934538633795455e-05,4.17642186221201e-05,1.2722112842311617e-05,-1.2365346265141852e-05,5.687623342964798e-05
-1.989142401725985e-05,3.778107202379033e-05,-2.2525992449118348e-07,-1.4135199307929724e-05,5.61793458473403e-05
-2.1886091417400166e-05,3.4865151974372566e-05,-8.874435479810927e-06,-1.7291222320636734e-05,5.606404738500714e-05
-2.6127867386094294e-05,3.592327266233042e-05,-1.1559487575141247e-05,-1.2912334568682127e-05,5.6684129958739504e-05
-3.309429303044453e-05,3.623209340730682e-05,-8.175404218491167e-06,-6.07205402047839e-06,5.241421968094073e-05
-3.6225883377483115e-05,3.4503016649978235e-05,2.433522013234324e-06,-8.028956699490664e-07,4.2181283788522705e-05
-3.8558111555175856e-05,3.132176789222285e-05,1.2497125680965837e-05,2.2743815861758776e-06,3.8603982829954475e-05
-3.777855818043463e-05,3.349947655806318e-05,1.3797121937386692e-05,2.84843417830416e-06,4.51514424639754e-05
-4.032182914670557e-05,4.139587690588087e-05,1.0100759936904069e-05,2.606225280032959e-06,5.5980897741392255e-05
-4.464414087124169e-05,4.1532366594765335e-05,4.312003056838876e-06,2.20950505536166e-06,6.622321961913258e-05
-4.600153988576494e-05,3.2794210710562766e-05,2.0989200493204407e-06,3.868319708999479e-06,6.812917126808316e-05
-4.842701673624106e-05,2.6617110052029602e-05,3.925166765839094e-06,4.419285687617958e-06,6.513398693641648e-05
-5.243972555035725e-05,3.210467184544541e-05,6.668294190603774e-06,9.10224571271101e-07,6.174267764436081e-05
-5.783963206340559e-05,3.907863356289454e-05,1.067568882717751e-05,-2.862832161554252e-06,5.721744673792273e-05
-6.328456220217049e-05,3.952395491069183e-05,1.1361103133822326e-05,2.1406002304047433e-07,5.6478857004549354e-05
-6.300084351096302e-05,3.079060843447223e-05,6.659321570623433e-06,4.452210305316839e-06,6.094693890190683e-05
-5.803943349746987e-05,2.3771728592691943e-05,2.7825285542348865e-06,4.093342340638628e-06,6.572564598172903e-05
-5.4200729209696874e-05,2.0075363863725215e-05,3.1662143555877265e-06,2.7459220746095525e-06,6.793648935854435e-05
-4.9470945668872446e-05,1.0773645954031963e-05,5.228006102697691e-06,9.67359596870665e-07,6.925460911588743e-05
-4.663616346078925e-05,-6.156013569125207e-06,7.367479156528134e-06,-2.4120097350532888e-06,6.80456796544604e-05
-4.85114251205232e-05,-2.2399151930585504e-05,9.048320862348191e-06,-6.292923899309244e-06,6.244204269023612e-05
-5.01000540680252e-05,-2.9375562007771805e-05,7.663956239412073e-06,-8.789134881226346e-06,5.793355740024708e-05
-4.7592169721610844e-05,-2.4588141968706623e-05,3.4491254155000206e-06,-9.217573278874625e-06,5.959854388493113e-05
-4.513383100857027e-05,-9.686533303465694e-06,2.6418892957735807e-06,-8.982745384855662e-06,6.303387635853142e-05
-4.70004124508705e-05,9.528007467451971e-06,3.0959017749410123e-06,-1.2471025002014358e-05,6.332635530270636e-05
-4.691471622209065e-05,2.9582872230093926e-05,8.321337077177304e-07,-1.6856951333465986e-05,6.238761852728203e-05
-3.913449836545624e-05,4.543672548606992e-05,-2.100627852996695e-06,-1.4759380064788274e-05,6.203973316587508e-05
-3.5279390431242064e-05,5.340614734450355e-05,-4.42072314399411e-06,-8.258809430117253e-06,5.950549530098215e-05
-3.869468855555169e-05,4.661593266064301e-05,-5.756451628258219e-06,-3.720042968780035e-06,5.570198845816776e-05
-3.9880225813249126e-05,3.6220655601937324e-05,-5.713592145184521e-06,-2.16428998101037e-06,5.5603264627279714e-05
-3.403466325835325e-05,3.812823342741467e-05,-3.2766365620773286e-06,-9.906772220347193e-07,6.0474034398794174e-05
-2.725284684856888e-05,3.7764191802125424e-05,-9.347333502773836e-07,-1.9623389562184457e-06,6.631371797993779e-05
-2.4833792849676684e-05,1.9231931219110265e-05,3.7163874821999343e-07,-7.842257218726445e-06,6.721728277625516e-05
-2.478997703292407e-05,2.6693019208323676e-06,3.667702515031124e-07,-1.0248144462821074e-05,6.480167940026149e-05
-2.7330244847689755e-05,-5.204113904255792e-07,-2.1385160380305024e-06,-1.0654562174750026e-05,6.431147630792111e-05
-3.136475061182864e-05,6.064301942387829e-06,-3.1335753192252014e-06,-1.0341736924601719e-05,6.452598609030247e-05
-3.5209101042710245e-05,1.4115333215158898e-05,-2.200801645813044e-06,-7.905373422545381e-06,6.443732127081603e-05
-4.039118721266277e-05,2.3485992642235942e-05,2.7160681383975316e-06,-7.3855444497894496e-06,6.115387077443302e-05
-4.6120498154778033e-05,4.8564292228547856e-05,8.461291145067662e-06,-8.906964467314538e-06,5.834942203364335e-05
-4.2341351218055934e-05,8.132548100547865e-05,9.528508599032648e-06,-1.1018488294212148e-05,5.669165693689138e-05
-3.404722883715294e-05,9.551936818752438e-05,7.325723345275037e-06,-9.46998807194177e-06,5.7360466598765925e-05
-3.0179386158124544e-05,8.722513302927837e-05,3.479153519947431e-06,-8.774004527367651e-06,6.0728303651558235e-05
-3.213091622455977e-05,6.323499837890267e-05,-4.9360201046511065e-06,-1.1778476618928835e-05,6.312566256383434e-05
-3.273424954386428e-05,3.631603249232285e-05,-1.6199466699617915e-05,-1.7125243175541982e-05,6.320725515251979e-05
-2.6883717509917915e-05,2.406227940809913e-05,-2.1825990188517608e-05,-1.9761753719649278e-05,5.846821659361012e-05
-1.9587756469263695e-05,2.9256316338432953e-05,-1.9895138393621892e-05,-1.9257402527728118e-05,5.5099550081649795e-05
-1.9020164472749457e-05,4.1128914745058864e-05,-1.5248064300976694e-05,-1.7458882211940363e-05,5.6967834098031744e-05
-2.358769233978819e-05,4.916573379887268e-05,-8.478192285110708e-06,-1.5673205780331045e-05,6.05777240707539e-05
-2.7329248041496612e-05,5.136786785442382e-05,1.9358828922122484e-06,-1.3108651728543919e-05,6.176504393806681e-05
-2.8707827368634753e-05,5.090320701128803e-05,1.3374636182561517e-05,-9.511670214124024e-06,6.0476184444269165e-05
-2.6503767003305256e-05,5.581412187893875e-05,2.129962740582414e-05,-8.249864549725316e-06,5.945370139670558e-05
-2.250017314509023e-05,6.470696098404005e-05,2.2927297322894447e-05,-1.1269809874647763e-05,6.0128371842438355e-05
-1.75577024492668e-05,6.440204742830247e-05,2.198981928813737e-05,-1.592499938851688e-05,6.14272867096588e-05
-1.5952877220115624e-05,4.630991315934807e-05,2.0403645976330154e-05,-1.6117217455757782e-05,6.273873441386968e-05
-1.62215692398604e-05,2.566058174124919e-05,1.724015237414278e-05,-1.1564402484509628e-05,6.130458496045321e-05
-1.4560262570739724e-05,1.5350908142863773e-05,1.561806129757315e-05,-7.157609616115224e-06,5.9701527789002284e-05
-1.7336546079604886e-05,1.0423131243442185e-05,1.5532594261458144e-05,-3.7971501569700195e-06,6.113461859058589e-05
-2.6231764422846027e-05,9.74519116425654e-06,1.2010749742330518e-05,-2.868570618375088e-06,6.0695805586874485e-05
-2.988430787809193e-05,1.0037586434918921e-05,1.027918824547669e-05,-6.2676881498191506e-06,5.5831664212746546e-05
-2.5278417524532415e-05,7.757070306979585e-06,1.0226598533336073e-05,-7.6253550105320755e-06,5.041611802880652e-05
-1.63862387125846e-05,6.3044094531505834e-06,1.3811806638841517e-05,-6.138465323601849e-06,4.802660259883851e-05
-1.2309707017266192e-05,5.620466708933236e-06,1.779998274287209e-05,-6.750968168489635e-06,4.964933395967819e-05
-1.1123262083856389e-05,8.09585162642179e-06,1.5786185031174682e-05,-1.4935772924218327e-05,5.172237069928087e-05
-8.852447535900865e-06,1.1139160960738081e-05,1.1729754987754859e-05,-2.0020186639158055e-05,5.011290340917185e-05
-6.712191407132195e-06,1.556113602418918e-05,9.568041605234612e-06,-2.031499388976954e-05,4.769631414092146e-05
-3.000415290443925e-06,1.9694305592565797e-05,1.2218700248922687e-05,-1.6602234609308653e-05,5.09602868987713e-05
-2.464805959334626e-07,1.7422220480511896e-05,1.2258114111318719e-05,-1.1586461369006429e-05,5.5559419706696644e-05
1.932973418661277e-06,1.2362514098640531e-05,8.820245966489892e-06,-1.3601575119537301e-05,5.628337021335028e-05
3.148309133393923e-06,8.791274922259618e-06,4.455444013728993e-06,-1.4718523743795231e-05,5.492745549418032e-05
2.19911430576758e-06,9.874544048216194e-06,2.432956762277172e-06,-1.4777785509068053e-05,5.504791624844074e-05
4.6135241973388474e-06,1.4405714864551555e-05,1.734158558974741e-06,-1.7009921066346578e-05,5.75443082198035e-05
1.094639901566552e-05,1.820896432036534e-05,-1.4698351833430934e-06,-1.8344615455134772e-05,5.9318990679457784e-05
1.7577580365468748e-05,1.6844753190525807e-05,-4.265064944775077e-06,-1.717421764624305e-05,6.07476249570027e-05
1.97564295376651e-05,9.532491276331712e-06,-5.449448508443311e-06,-1.3708538972423412e-05,5.9990336012560874e-05
1.2998899364902172e-05,2.6765249003801728e-06,-6.547963039338356e-06,-7.272211405506823e-06,5.779703860753216e-05
1.4625724134020857e-06,1.6968808722594986e-06,-6.762648354197154e-06,-3.815488980762893e-06,5.8058907598024234e-05
-7.283091690624133e-06,9.161459274764638e-06,-6.974629741307581e-06,-7.332744644372724e-06,6.099092206568457e-05
-1.0611256584525108e-05,2.2075235392549075e-05,-1.1249272574787028e-05,-1.2527884791779798e-05,6.388541078194976e-05
-1.2454811439965852e-05,3.346084849908948e-05,-1.7784899682737887e-05,-1.295642778131878e-05,6.535634020110592e-05
-1.6049605619627982e-05,3.540938632795587e-05,-2.0747056623804383e-05,-1.3253220458864234e-05,6.229314021766186e-05
-1.96059700101614e-05,3.07266745949164e-05,-1.9247483578510582e-05,-1.5507423086091876e-05,5.7133976952172816e-05
-1.9852479454129934e-05,2.7709205824066885e-05,-1.8507476852391846e-05,-1.43390489029116e-05,5.6567856518086046e-05
-1.7002505046548322e-05,2.517408756830264e-05,-1.481675553804962e-05,-1.1810282558144536e-05,6.028393909218721e-05
-1.547610736452043e-05,2.0988838514313102e-05,-4.9961136028287e-06,-1.5131439795368351e-05,6.34075331618078e-05
-1.7659020159044303e-05,2.261638110212516e-05,3.61811953553115e-06,-2.120634053426329e-05,6.195798778207973e-05
-1.7596887118997984e-05,2.767617115750909e-05,7.5009220381616615e-06,-1.704569331195671e-05,6.286136340349913e-05
-1.6185484128072858e-05,2.4828115783748217e-05,7.906563951110002e-06,-6.99360498401802e-06,6.680821388727054e-05
-1.9925997548853047e-05,2.6985893782693893e-05,6.1847340475651436e-06,-3.6411668133951025e-06,6.45994659862481e-05
-3.069391459575854e-05,3.8062931707827374e-05,6.244612904993119e-06,-6.758094059478026e-06,6.087437577662058e-05
-3.941722752642818e-05,4.5758111809846014e-05,9.534184755466413e-06,-1.0710621609177906e-05,5.879301534150727e-05
-3.928148726117797e-05,4.425388397066854e-05,1.2165161933808122e-05,-1.1565774002519902e-05,5.536654862225987e-05
-3.5525004932424054e-05,3.8773141568526626e-05,1.4221182027540635e-05,-1.0117091733263806e-05,5.251170296105556e-05
-3.0709947168361396e-05,3.419604036025703e-05,1.8480950529919937e-05,-8.823626558296382e-06,5.5175831221276894e-05
-2.5810248189372942e-05,3.126270166831091e-05,2.3095217329682782e-05,-8.325796443386935e-06,5.915251313126646e-05
-2.5725026716827415e-05,2.8331862267805263e-05,2.7239286282565445e-05,-7.030743745417567e-06,6.244110409170389e-05
-2.948217479570303e-05,2.3429402062902227e-05,3.047371319553349e-05,-6.474845122284023e-06,6.435991963371634e-05
-3.5255747206974775e-05,1.821524892875459e-05,3.594833833631128e-05,-7.738926797173917e-06,6.373318319674581e-05
-3.819651101366617e-05,1.6870626495801844e-05,3.905628909706138e-05,-7.624789304827573e-06,6.241392839001492e-05
-3.784168802667409e-05,2.09572372114053e-05,3.274399205110967e-05,-7.444485618179897e-06,6.138471508165821e-05
-3.861173536279239e-05,2.4501110601704568e-05,2.1519550500670448e-05,-9.578083336236887e-06,6.496734567917883e-05
-3.836615360341966e-05,2.3773782231728546e-05,1.2622884241864085e-05,-1.6976651750155725e-05,6.614569429075345e-05
-3.8770402170484886e-05,1.797934419300873e-05,7.5023758654424455e-06,-2.550911631260533e-05,6.0462400142569095e-05
-4.123576945858076e-05,1.0146042768610641e-05,3.0846381378069054e-06,-2.7431820853962563e-05,5.311837594490498e-05
-4.1455685277469456e-05,2.05512060347246e-06,-5.908147215905046e-08,-2.1931398805463687e-05,5.22901609656401e-05
-3.740182364708744e-05,-5.267040705803083e-06,-1.1509553310418141e-08,-1.5849012925173156e-05,5.5372052884195e-05
-3.332729829708114e-05,-9.774412319529802e-06,1.8735735238806228e-06,-1.2588251593115274e-05,5.693543062079698e-05
-3.548002860043198e-05,-1.0419928912597243e-05,1.5224214848785778e-06,-8.903235539037269e-06,5.7345881941728294e-05
-4.044938032166101e-05,-6.985264462855412e-06,2.4546253030166554e-07,-7.220986844913568e-06,5.705864168703556e-05
-3.625690078479238e-05,2.1936418761470122e-06,-1.8700264945437084e-06,-8.55251528264489e-06,5.602201781584881e-05
-3.0292316296254285e-05,1.7315102013526484e-05,-3.95660072172177e-06,-9.576677257427946e-06,5.8789246395463124e-05
-2.8378097340464592e-05,3.8215919630602e-05,-3.709074235302978e-06,-9.25193580769701e-06,6.491075328085572e-05
-2.770102037175093e-05,5.628825965686701e-05,-4.6056019442630713e-08,-9.561439583194442e-06,6.887291965540498e-05
-2.7686794055625796e-05,5.9291880461387336e-05,5.338938080967637e-06,-9.873260751191992e-06,6.90892557031475e-05
-2.7107766072731465e-05,5.197380960453302e-05,9.468077223573346e-06,-1.0777192983368877e-05,6.571087578777224e-05
-2.2834425180917606e-05,4.6963603381300345e-05,1.1619874385360163e-05,-1.1321727470203768e-05,6.221197691047564e-05
-1.930310645548161e-05,5.642034375341609e-05,1.2851272913394496e-05,-1.0884966286539566e-05,6.285277777351439e-05
-2.0027764549013227e-05,7.547828136011958e-05,1.4216715499060228e-05,-9.695260814623907e-06,6.740196840837598e-05
-1.9841436369461007e-05,7.814783020876348e-05,1.496394816058455e-05,-9.01185649127001e-06,7.095296314219013e-05
-2.0797637262148783e-05,5.923882417846471e-05,1.4658628060715273e-05,-1.5508503565797582e-05,7.157850632211193e-05
-1.826586048991885e-05,3.932748950319365e-05,1.1691057807183824e-05,-2.0885589037789032e-05,6.625866808462888e-05
-1.4392595403478481e-05,3.2920564990490675e-05,1.1480393368401565e-05,-1.7669446606305428e-05,6.278858927544206e-05
-1.2032638551318087e-05,3.411485886317678e-05,1.613298627489712e-05,-1.0965955880237743e-05,6.459919677581638e-05
-1.5193361832643859e-05,3.603819277486764e-05,1.7571217540535145e-05,-9.03243835637113e-06,6.773709901608527e-05
-2.4737175408517942e-05,4.0095721487887204e-05,1.4176613149174955e-05,-1.1345185157551896e-05,7.051361171761528e-05
-3.3138483559014276e-05,4.897650796920061e-05,9.286324711865745e-06,-1.4378218111232854e-05,7.266886677825823e-05
-3.681258749566041e-05,6.10957431490533e-05,5.772121312475065e-06,-1.8020238712779246e-05,7.438896136591211e-05
-3.778496102313511e-05,6.62128659314476e-05,3.31612477566523e-06,-1.8767432266031392e-05,7.37734735594131e-05
-3.977459346060641e-05,6.238577771000564e-05,1.8902553620137041e-06,-1.9060951672145166e-05,6.910836964379996e-05
-4.093160532647744e-05,5.7233250117860734e-05,3.4619517919054488e-06,-2.078388752124738e-05,6.343965651467443e-05
-3.698936779983342e-05,5.130228237248957e-05,6.25505299467477e-06,-2.0339932234492153e-05,6.324939749902114e-05
-2.7394875360187143e-05,4.237286702846177e-05,5.1066585911030415e-06,-1.448436887585558e-05,6.663914973614737e-05
-2.1499474314623512e-05,3.7584886740660295e-05,1.9231326859880937e-06,-9.29007183003705e-06,6.996353477006778e-05
-2.3174579837359488e-05,3.9583035686519e-05,3.2541922792006517e-06,-9.892755770124495e-06,6.96068600518629e-05
-2.776937253656797e-05,3.97563781007193e-05,1.0900814231717959e-05,-1.2244319805176929e-05,6.29858041065745e-05
-2.7477630283101462e-05,3.4526634408393875e-05,1.95372813323047e-05,-8.550418897357304e-06,5.7115237723337486e-05
-1.9804321709671058e-05,2.6793184588314034e-05,2.08793662750395e-05,-1.8534235550760059e-06,5.827467975905165e-05
-3.753668806893984e-06,1.9564969989005476e-05,1.4623634342569858e-05,-4.770764121531101e-07,6.09564121987205e-05
1.2270719707885291e-05,1.7893822587211616e-05,7.180565262387972e-06,-3.3486048778286204e-06,6.274163752095774e-05
1.2128418347856496e-05,1.9738730770768598e-05,4.642417479772121e-06,-7.502420430682832e-06,6.410253990907222e-05
-2.299841071362607e-06,2.1108111468493007e-05,8.491155313095078e-06,-1.1017385077138897e-05,6.413178925868124e-05
-1.8085496776620857e-05,1.8603363059810363e-05,1.1848287613247521e-05,-1.2575957043736707e-05,6.20972496108152e-05
-2.3900300220702775e-05,1.8551032553659752e-05,9.179985681839753e-06,-1.1516445738379844e-05,6.204320379765704e-05
-2.4673539883224294e-05,2.30475689022569e-05,5.262537342787255e-06,-9.18550904316362e-06,6.540674803545699e-05
-2.958286859211512e-05,2.1524052499444224e-05,4.775241905008443e-06,-7.051472493913025e-06,6.614220910705626e-05
-3.4208780562039465e-05,1.9769679056480527e-05,5.215400051383767e-06,-3.184559773217188e-06,6.363650027196854e-05
-3.7537014577537775e-05,2.3494572815252468e-05,4.888704097538721e-06,3.3988785617111716e-06,6.114068673923612e-05
-3.767522139241919e-05,3.242923048674129e-05,3.365831844348577e-06,7.505351277359296e-06,5.990893259877339e-05
-3.5850425774697214e-05,3.345826917211525e-05,1.664745127527567e-06,5.356380825105589e-06,5.7180110161425546e-05
-3.6071258364245296e-05,2.346882138226647e-05,3.870803993777372e-06,4.361980245448649e-06,5.1927090680692345e-05
-3.5480821679811925e-05,1.664816591073759e-05,7.538003956142347e-06,3.2402881515736226e-06,4.818584056920372e-05
-3.557059608283453e-05,1.4599296264350414e-05,1.2232995686645154e-05,1.8779126094159437e-06,5.102857176098041e-05
-4.044848174089566e-05,1.4591464605473448e-05,1.7529058823129162e-05,1.7754902046362986e-06,5.581874575000256e-05
-4.5588563807541505e-05,1.5219675333355553e-05,1.908526428451296e-05,1.8974403701577103e-06,5.773209340986796e-05
-4.62817151856143e-05,1.856929338828195e-05,1.2958365005033556e-05,2.1554949398705503e-06,5.850136949447915e-05
-4.349523806013167e-05,1.9226610675104894e-05,5.381642949942034e-06,-2.1593525900698296e-07,5.869323285878636e-05
-4.16947113990318e-05,1.718849853205029e-05,2.8935985483258264e-06,-2.3941734070831444e-06,5.7678545999806374e-05
-4.366586290416308e-05,1.4762939827051014e-05,4.784580596606247e-06,-1.3397390148384147e-06,5.7814744650386274e-05
-4.769410224980675e-05,1.345718283118913e-05,9.137059350905474e-06,1.9890280782419723e-06,5.939514085184783e-05
-4.948720015818253e-05,1.4286290024756454e-05,1.4052555343369022e-05,3.8633961594314314e-06,6.046208363841288e-05
-4.431101478985511e-05,1.56670776050305e-05,1.532639544166159e-05,3.748689778149128e-06,5.9801175666507334e-05
-3.711680255946703e-05,1.3316085642145481e-05,1.2556150068121497e-05,1.3651713288709288e-06,5.772932854597457e-05
-3.3005602745106444e-05,8.63130026118597e-06,8.990807145892177e-06,-2.116613813996082e-06,5.576030889642425e-05
-3.131990888505243e-05,6.6085412981919944e-06,4.914610144624021e-06,-4.1371195038664155e-06,5.5900913139339536e-05
-3.1306914024753496e-05,6.475224836322013e-06,-3.0455294108833186e-07,-2.807410282912315e-06,5.647184661938809e-05
-3.0330955269164406e-05,7.133739472919842e-06,-8.448763765045442e-06,-4.903919489152031e-06,5.3303730965126306e-05
-2.900780782510992e-05,1.2154278920206707e-05,-1.4201300473359879e-05,-7.55356450099498e-06,5.049557876191102e-05
-2.7505217076395638e-05,2.5439887394895777e-05,-1.4948156604077667e-05,-5.05477419210365e-06,4.992535468772985e-05
-2.233027043985203e-05,3.318034941912629e-05,-1.2610029443749227e-05,-4.114309831493301e-06,4.664929656428285e-05
-1.8622324205352925e-05,2.9414350137813017e-05,-1.2535717360151466e-05,-6.7816790760844015e-06,4.460852505872026e-05
-2.03105628315825e-05,2.689447319426108e-05,-1.3197228327044286e-05,-1.2503741345426533e-05,4.878327308688313e-05
-2.4386228687944822e-05,3.009079591720365e-05,-1.272471490665339e-05,-1.560584314574953e-05,5.0285547331441194e-05
-2.6835437893169e-05,3.204142194590531e-05,-1.1106274541816674e-05,-1.4888775694998913e-05,4.906674803351052e-05
-3.0005898224771954e-05,3.316877700854093e-05,-6.65229708829429e-06,-1.3450234291667584e-05,4.720080323750153e-05
-3.1731207855045795e-05,3.741959881153889e-05,-2.3027705537970178e-06,-1.1169669960509054e-05,4.65622688352596e-05
-2.7083508030045778e-05,4.473172884900123e-05,3.806280574281118e-06,-1.2334471648500767e-05,4.675842137658037e-05
-2.0622001102310605e-05,4.7844936489127576e-05,1.191504270536825e-05,-1.311345386056928e-05,4.737808558274992e-05
-1.7415222828276455e-05,4.547875505522825e-05,1.639541187614668e-05,-1.3470405065163504e-05,4.910776260658167e-05
-2.0633358872146346e-05,3.5913908504880965e-05,1.634877480682917e-05,-1.4323035429697484e-05,5.0874430598923936e-05
-2.512005994503852e-05,2.542164111218881e-05,1.4764434126846027e-05,-1.6317639165208675e-05,5.0797225412679836e-05
-2.616552956169471e-05,2.298818617418874e-05,1.3092925655655563e-05,-1.702021836536005e-05,4.760600131703541e-05
-2.5580677174730226e-05,2.7719408535631374e-05,1.1845374501717743e-05,-1.5789037206559442e-05,4.788920341525227e-05
-2.321896499779541e-05,3.32980343955569e-05,1.0794462468766142e-05,-1.616008739802055e-05,5.086606688564643e-05
-1.7255399143323302e-05,3.439695865381509e-05,1.003810393740423e-05,-1.6430343748652376e-05,5.230839451542124e-05
-1.0019758519774769e-05,3.500954699120484e-05,7.894709597167093e-06,-1.3195821338740643e-05,5.2687475545099005e-05
-7.617720712005394e-06,3.7848851206945255e-05,4.750694643007591e-06,-1.015811812976608e-05,5.443952977657318e-05
-1.0894716979237273e-05,3.721299799508415e-05,2.869104037017678e-06,-1.455290475860238e-05,5.536026947083883e-05
-1.4434874174185097e-05,3.232675226172432e-05,9.487850434197753e-07,-2.049731665465515e-05,5.4817533964524046e-05
-1.63573567988351e-05,3.1492425478063524e-05,4.2111904008379497e-07,-2.179626426368486e-05,5.3103609388927e-05
-1.6644356946926564e-05,3.5991288314107805e-05,3.1478871278523e-06,-2.12199902307475e-05,5.260911711957306e-05
-1.5515362974838354e-05,3.9662656490691006e-05,6.840023161203135e-06,-2.3312253688345663e-05,5.257592420093715e-05
-1.6405441783717833e-05,3.5901324736187235e-05,8.007738870219328e-06,-2.262252201035153e-05,5.141629299032502e-05
-2.0473948097787797e-05,3.0962080927565694e-05,8.219942174036987e-06,-1.805159990908578e-05,5.138101187185384e-05
-1.9990766304545105e-05,3.16627774736844e-05,9.095174391404726e-06,-1.5685383914387785e-05,5.216202771407552e-05
-1.7478598238085397e-05,3.4578435588628054e-05,7.798717888363171e-06,-1.6792113456176594e-05,5.44211216038093e-05
-1.689554119366221e-05,2.9412092771963216e-05,1.6159581264219014e-06,-1.6780601072241552e-05,5.468160452437587e-05
-1.4981479580455925e-05,2.336233046662528e-05,-1.501772771916876e-06,-1.2085271919204388e-05,5.109389894641936e-05
-1.5241591427184176e-05,2.1594136342173442e-05,1.3171048749427428e-06,-8.046022230701055e-06,5.2072293328819796e-05
-1.7310352632193826e-05,1.862514363892842e-05,2.4900753032852663e-06,-1.3125379155098926e-05,5.6670218327781186e-05
-1.797545155568514e-05,1.6322796000167727e-05,1.5510038338106824e-06,-1.8769014786812477e-05,6.044300243956968e-05
-1.5971821994753554e-05,1.6600102753727697e-05,-2.2761287254979834e-06,-1.8716244085226208e-05,6.1681421357207e-05
-1.7232341633643955e-05,2.20005567825865e-05,-3.8972771108092275e-06,-1.5046383850858547e-05,5.988382326904684e-05
-2.125488936144393e-05,2.6374478693469428e-05,-3.5842429042531876e-06,-1.4900513633619994e-05,5.818863064632751e-05
-2.3168313418864273e-05,2.6702467948780395e-05,-6.962872589610924e-07,-1.7833372112363577e-05,5.685774522135034e-05
-2.1712177840527147e-05,2.560618486313615e-05,2.6889688342635054e-06,-1.6806170606287196e-05,5.5670050642220303e-05
-2.227877121185884e-05,2.6014886316261254e-05,4.930427166982554e-06,-1.2694347788055893e-05,5.332037835614756e-05
-2.5926528905984014e-05,3.208696216461249e-05,1.1811241620307555e-06,-1.0647319868439808e-05,5.2587176469387487e-05
-3.0138993679429404e-05,4.2037219827761874e-05,-1.137957315222593e-05,-1.1817311133199837e-05,5.4750747949583456e-05
-3.222523082513362e-05,4.966669075656682e-05,-2.3548107492388226e-05,-1.2631871868507005e-05,6.06731919106096e-05
-3.277677751611918e-05,4.875884405919351e-05,-2.6955516659654677e-05,-1.3996980669617187e-05,6.547583325300366e-05
-3.3557898859726265e-05,4.146761420997791e-05,-2.218946974608116e-05,-1.4495447430817876e-05,6.565418152604252e-05
-3.41571903845761e-05,3.439343345235102e-05,-1.7595604731468484e-05,-1.2952510587638244e-05,6.445389590226114e-05
-3.679059227579273e-05,3.0222790883271955e-05,-1.3572117495641578e-05,-1.1277104022155982e-05,6.3159859564621e-05
-4.104581239516847e-05,2.5667613954283297e-05,-6.9952875492163e-06,-1.2880322174169123e-05,6.214209861354902e-05
-4.261174763087183e-05,1.752438947733026e-05,2.564590658948873e-06,-1.531268935650587e-05,6.323397974483669e-05
-3.823447696049698e-05,9.038117241289001e-06,7.279733836185187e-06,-1.390005763823865e-05,6.561604823218659e-05
-3.1680945539847016e-05,5.770993993792217e-06,2.8176841624372173e-06,-9.395892448083032e-06,6.693636532872915e-05
-2.889521601900924e-05,5.087280442239717e-06,-6.41715269011911e-06,-7.023879788903287e-06,6.539851165143773e-05
-3.547356027411297e-05,5.056071131548379e-06,-9.496816346654668e-06,-5.822655111842323e-06,6.306877912720665e-05
-4.097184864804149e-05,1.0761289559013676e-05,-7.118120720406296e-06,-2.057449592030025e-06,6.305214628810063e-05
-3.7068541132612154e-05,1.99094556592172e-05,-5.375673026719596e-06,2.3185248210211284e-06,6.227432459127158e-05
-3.244341132813133e-05,2.6268889996572398e-05,-1.3082891427984578e-06,3.630801529652672e-06,6.320646934909746e-05
-3.3519321732455865e-05,3.132721030851826e-05,7.61775481805671e-06,4.3131249185535125e-06,6.508678052341565e-05
-3.5556062357500196e-05,3.3200129109900445e-05,1.7352112990920432e-05,4.414061095303623e-06,6.211811705725268e-05
-3.374002335476689e-05,3.5800188925350085e-05,2.7273732484900393e-05,1.6566214071644936e-06,5.460682950797491e-05
-2.9867473131162114e-05,4.344806438894011e-05,3.3295196772087365e-05,-1.3319397567101987e-06,5.13900704390835e-05
-3.108474629698321e-05,4.92304825456813e-05,3.044080949621275e-05,-2.4196212962124264e-06,5.27815536770504e-05
-3.097547960351221e-05,5.055949077359401e-05,2.2302814613794908e-05,-4.157363946433179e-06,5.5823369621066377e-05
-2.4547858629375696e-05,4.568166332319379e-05,1.2263309145055246e-05,-8.372674528800417e-06,5.805080945719965e-05
-1.7621470760786906e-05,4.363113839644939e-05,1.4919355635356624e-06,-1.2656476428674068e-05,5.724416769226082e-05
-1.7969698092201725e-05,4.3751915654866025e-05,-6.315161499514943e-06,-9.723618859425187e-06,5.7372475566808134e-05
-2.1399528122856282e-05,4.104271647520363e-05,-5.312128450896125e-06,-4.449769676284632e-06,5.772491931566037e-05
-1.7520391338621266e-05,3.4175718610640615e-05,3.2860884857655037e-06,-3.870831733365776e-06,5.741837594541721e-05
-1.0415530596219469e-05,2.626954301376827e-05,9.554300049785525e-06,-4.113385330128949e-06,5.733689613407478e-05
-1.091189005819615e-05,2.5486830054433085e-05,7.123947852960555e-06,-5.691984370059799e-06,5.8306810387875885e-05
-1.7456743080401793e-05,2.8387954444042407e-05,2.555463879616582e-06,-1.0760360964923166e-05,5.821659942739643e-05
-2.022690387093462e-05,2.6782299755723216e-05,4.014946171082556e-06,-1.648851866775658e-05,5.824198160553351e-05
-1.9263006834080443e-05,2.127948755514808e-05,1.1750184057746083e-05,-1.8155215002479963e-05,5.865066123078577e-05
-2.1465808458742686e-05,1.718621570034884e-05,1.8585118596092798e-05,-1.7036614735843614e-05,5.8832727518165484e-05
-2.6478610379854217e-05,1.3622538062918466e-05,2.0728060917463154e-05,-1.515281019237591e-05,5.9525300457607955e-05
-2.6897521820501424e-05,1.1293309398752172e-05,2.0534322175080888e-05,-1.464605793444207e-05,6.280455272644758e-05
-2.5199458832503296e-05,1.3881173799745739e-05,2.4612341803731397e-05,-1.505331056250725e-05,6.573839345946908e-05
-2.357089579163585e-05,2.1047706468380056e-05,3.389713674550876e-05,-1.6043759387684986e-05,6.372403004206717e-05
-1.8612059648148715e-05,3.239782017772086e-05,4.0325008740182966e-05,-1.9497336325002834e-05,5.908721504965797e-05
-1.2977769074495882e-05,4.585429633152671e-05,3.827398541034199e-05,-2.2266985979513265e-05,5.6397559092147276e-05
-1.5456093024113216e-05,5.577262709266506e-05,3.362575080245733e-05,-1.867117862275336e-05,5.847095599165186e-05
-2.3683747713221237e-05,6.235666660359129e-05,2.8531445423141122e-05,-1.086624979507178e-05,6.257427594391629e-05
-3.3854863431770355e-05,5.805098408018239e-05,2.3350195988314226e-05,-8.478453310090117e-06,6.414283416233957e-05
-3.674788968055509e-05,4.156238355790265e-05,2.300071901117917e-05,-1.42359376695822e-05,6.253585161175579e-05
-3.440909131313674e-05,1.7044296328094788e-05,2.359019526920747e-05,-1.6095729733933695e-05,5.8627003454603255e-05
-3.747417576960288e-05,-1.8203464833277394e-06,2.148533530998975e-05,-1.1908190572285093e-05,5.456652070279233e-05
-3.5551653127186e-05,-2.022333518425512e-07,1.9355260519660078e-05,-1.0892787031480111e-05,5.356173642212525e-05
-2.837668034771923e-05,8.884108865458984e-06,1.8583623386803083e-05,-1.1763770089601167e-05,5.380748916650191e-05
-2.5044395442819223e-05,9.198309271596372e-06,1.599084680492524e-05,-1.4117412320047151e-05,5.514942677109502e-05
-2.678224518604111e-05,1.687693725216377e-06,1.2275703738851007e-05,-1.637769310036674e-05,5.540431084227748e-05
-2.9054892365820706e-05,-1.6774615687609185e-06,1.0243139513477217e-05,-1.694641832727939e-05,5.626443453365937e-05
-3.053138425457291e-05,3.64364836968889e-06,6.485228823294165e-06,-1.7864289475255646e-05,5.790466821053997e-05
-3.484303306322545e-05,1.3094111636746675e-05,6.414489348571806e-07,-1.6853144188644364e-05,6.0019905504304916e-05
-3.6985693441238254e-05,2.23513907258166e-05,-2.920023007391137e-06,-1.3803855836158618e-05,6.14182063145563e-05
-3.581992132239975e-05,2.882564513129182e-05,-3.6828575957770227e-06,-7.964775250002276e-06,5.9703179431380704e-05
-3.2818679756019264e-05,3.620734787546098e-05,-4.04057709602057e-06,-3.127664513158379e-06,5.6899047194747254e-05
-3.24864849972073e-05,4.679145058616996e-05,-5.803376552648842e-06,-2.1372904939198634e-06,5.6285593018401414e-05
-3.467802525847219e-05,5.3454190492630005e-05,-7.541929335275199e-06,-5.542747203435283e-06,5.969957783236168e-05
-3.5818564356304705e-05,5.3246101742843166e-05,-6.609191586903762e-06,-1.0793808542075567e-05,6.194172601681203e-05
-3.6161287425784394e-05,5.765151581726968e-05,-3.932474101020489e-06,-1.2016338587272912e-05,6.088434383855201e-05
-3.647720950539224e-05,6.993114220676944e-05,-7.681828151362424e-07,-6.9136663114477415e-06,6.077234138501808e-05
-3.6824025301029906e-05,7.343923061853275e-05,2.009110403378145e-06,-1.2327739113970893e-06,6.354820652632043e-05
-3.3269461710006e-05,6.340123945847154e-05,2.5607757834222866e-06,-3.0177758958416234e-07,6.435305112972856e-05
-2.612948082969524e-05,5.37116065970622e-05,9.977347872336395e-07,-1.3526877182812314e-06,6.074514749343507e-05
-1.8724213077803142e-05,5.165902621229179e-05,-2.967773014006525e-07,-2.505035581634729e-06,5.632642933051102e-05
-1.3876164302928373e-05,5.960628914181143e-05,2.07288479714407e-07,-2.2745318801753456e-06,5.458826126414351e-05
-1.2886244803667068e-05,7.783155888319016e-05,2.984128741445602e-06,-3.841905709123239e-06,5.530501584871672e-05
-1.3092133485770319e-05,9.75910370470956e-05,6.2636672737426125e-06,-8.894712664186954e-06,5.7282060879515484e-05
-1.384763527312316e-05,0.00010176268551731482,8.323493602802046e-06,-1.1156177606608253e-05,5.732001591240987e-05
-1.42119297379395e-05,8.518563845427707e-05,6.590718385268701e-06,-7.181030468927929e-06,5.548638364416547e-05
-8.390311450057197e-06,5.912801861995831e-05,3.0806515951553592e-06,-3.5095586099487264e-06,5.468649760587141e-05
6.027945573805482e-07,2.4269444111268967e-05,6.697011372125417e-07,-5.234302989265416e-06,5.704083014279604e-05
1.1647705832729116e-05,-4.739317319035763e-06,3.3335069815620955e-07,-5.2786149353778455e-06,6.186249811435118e-05
1.7877297068480402e-05,-1.9675288058351725e-05,2.7993269213766325e-06,-5.048244020144921e-06,6.620052590733394e-05
1.5676156181143597e-05,-2.510809281375259e-05,2.025530875471304e-06,-9.499034604232293e-06,6.597647734452039e-05
1.3974452485854272e-05,-2.120288263540715e-05,-1.167245955002727e-06,-6.665144610451534e-06,6.468336505349725e-05
1.050855644280091e-05,-1.2956080354342703e-05,-2.8832946554757655e-06,-2.377920054641436e-06,6.403961742762476e-05
1.5555724530713633e-06,5.66976723348489e-07,-7.299718731701432e-07,-4.453545443539042e-06,6.342013512039557e-05
-1.0348778232582845e-05,1.1460525456641335e-05,1.1466129308246309e-06,-1.0124625987373292e-05,6.46456828690134e-05
-2.1012790966778994e-05,2.1807330995216034e-05,-1.383778339913988e-06,-1.4672837096441071e-05,6.425949686672539e-05
-2.78639308817219e-05,3.577479219529778e-05,-4.26799579145154e-06,-1.6485013475175947e-05,6.380178092513233e-05
-3.501576429698616e-05,4.155690476181917e-05,-3.401687308723922e-06,-1.6139181752805598e-05,6.446517363656312e-05
-4.195676228846423e-05,3.7590714782709256e-05,-1.940922857102123e-06,-1.3092837434669491e-05,6.487138307420537e-05
-4.5101573050487787e-05,3.7782028812216595e-05,-4.4741668716596905e-06,-1.2604627954715397e-05,6.212390871951357e-05
-4.523494862951338e-05,4.607365553965792e-05,-7.3051260187639855e-06,-1.5639223420294002e-05,6.072214455343783e-05
-4.4215936213731766e-05,5.2503492042887956e-05,-4.7180947149172425e-06,-1.7466891222284175e-05,6.237507477635518e-05
-4.5075379603076726e-05,4.96038373967167e-05,6.04872070653073e-07,-1.5681849617976695e-05,6.388145993696526e-05
-4.7795889258850366e-05,3.9067643228918314e-05,2.422052034489752e-07,-1.472402800573036e-05,6.356313679134473e-05
-4.841988629777916e-05,2.74261456070235e-05,-4.429188265930861e-06,-1.4395444850379135e-05,6.129225948825479e-05
-4.7146233555395156e-05,1.9382292521186173e-05,-5.3319299695431255e-06,-1.2099372725060675e-05,5.8908579376293346e-05
-4.8375306505477056e-05,1.7633750758250244e-05,-8.059065521592856e-07,-1.0600662790238857e-05,5.859811062691733e-05
-5.221090032136999e-05,1.7567181203048676e-05,3.343288653923082e-06,-1.5882002116995864e-05,5.888389205210842e-05
-5.461583714350127e-05,1.2703034371952526e-05,6.3751390371180605e-06,-2.1036290490883403e-05,5.938886170042679e-05
-5.203795444685966e-05,3.172348442603834e-06,8.490418622386642e-06,-1.7706744984025136e-05,6.312842015177011e-05
-4.535562766250223e-05,-3.328020511617069e-06,6.736378054483794e-06,-1.1428920515754726e-05,6.630956340814009e-05
-4.041971988044679e-05,-2.803755251079565e-06,-1.327650011262449e-06,-1.1416044799261726e-05,6.635340832872316e-05
-3.3385349524905905e-05,-6.9260704549378715e-06,-9.630551176087465e-06,-1.759317638061475e-05,6.399006088031456e-05
-2.8751632271450944e-05,-1.7756890883902088e-05,-1.2324183444434311e-05,-2.2640304450760596e-05,6.392074283212423e-05
-3.560743425623514e-05,-2.6820931452675723e-05,-9.628131920180749e-06,-2.01165494218003e-05,6.715422932757065e-05
-3.682025635498576e-05,-2.2594154870603234e-05,-8.037211955524981e-06,-1.4775841918890364e-05,6.941027822904289e-05
-3.1513274734606966e-05,-1.746962993820489e-06,-8.708875611773692e-06,-1.3794392543786671e-05,6.94821574143134e-05
-2.9474973416654393e-05,1.1625702427409124e-05,-2.0111251615162473e-06,-1.481153321947204e-05,6.541227048728615e-05
-2.7199115720577538e-05,1.4294355423771776e-05,9.993624189519323e-06,-1.3737174413108733e-05,5.9457113820826635e-05
-2.260230394313112e-05,2.0783669242518954e-05,2.0754956494783983e-05,-1.027308371703839e-05,5.6719531130511314e-05
-1.978000727831386e-05,3.368170655448921e-05,2.203001349698752e-05,-9.553812560625374e-06,5.728185351472348e-05
-1.8943737813970074e-05,3.883793397108093e-05,1.7857841157820076e-05,-1.4074298633204307e-05,5.957228859188035e-05
-1.8717068087426014e-05,3.0917846743250266e-05,1.768395486578811e-05,-2.0973091523046605e-05,6.062837928766385e-05
-1.4697359802084975e-05,2.6190826247329824e-05,1.9863318811985664e-05,-2.1279263819451444e-05,6.27178669674322e-05
-1.4579740081899217e-06,2.60710821748944e-05,1.8681052097235806e-05,-1.4021994502400048e-05,6.489476072601974e-05
1.1732338862202596e-05,2.4287008272949606e-05,1.3928817679698113e-05,-6.618679435632657e-06,6.444819155149162e-05
1.5931795132928528e-05,2.246193434984889e-05,8.90465707925614e-06,-5.24426741321804e-06,6.29176793154329e-05
8.255177817773074e-06,2.5344561436213553e-05,7.320277745748172e-06,-1.1270255527051631e-05,6.427702464861795e-05
-4.997468749934342e-06,3.0194663850124925e-05,1.3522871995519381e-05,-1.8836626622942276e-05,6.459532596636564e-05
-1.4208681022864766e-05,3.082063631154597e-05,2.062706153083127e-05,-2.1974756236886606e-05,5.982091897749342e-05
-1.582489494467154e-05,2.746313657553401e-05,1.9904769942513667e-05,-2.0604624296538532e-05,5.3893720178166404e-05
-1.7003874745569192e-05,2.6275056370650418e-05,1.3045518244325649e-05,-1.768739639373962e-05,5.17888693138957e-05
-2.024837158387527e-05,2.9883392926421948e-05,8.743574653635733e-06,-1.1993754924333189e-05,5.483124186866917e-05
-2.1302501409081742e-05,3.461295636952855e-05,9.083730219572317e-06,-7.580425972264493e-06,5.769669223809615e-05
-1.9953564333263785e-05,3.746466973097995e-05,1.164860077551566e-05,-1.018107377603883e-05,5.8561567129800096e-05
-1.9289100237074308e-05,3.8329297240125015e-05,1.2193042493890971e-05,-1.4148485206533223e-05,5.8531422837404534e-05
-1.776633143890649e-05,3.72901777154766e-05,8.05108265922172e-06,-1.3332385606190655e-05,6.002476220601238e-05
-1.579946001584176e-05,3.6071647627977654e-05,3.4604383927216986e-06,-1.1208669093321078e-05,6.0885580751346424e-05
-1.681866888247896e-05,3.297988951089792e-05,1.254972403330612e-06,-7.292796908586752e-06,5.893105117138475e-05
-2.0002076780656353e-05,2.909336944867391e-05,1.4295690107246628e-06,-1.69625707258092e-06,5.8623787481337786e-05
-2.057099663943518e-05,2.680310899449978e-05,1.5703818689871696e-06,2.080210379062919e-06,5.9483358199940994e-05
-2.150338696083054e-05,2.3986380256246775e-05,2.0206869066896616e-06,3.1529725674772635e-06,5.79222796659451e-05
-2.7679510822054e-05,2.3147898900788277e-05,1.511302798462566e-06,-6.828963137195387e-07,5.620818410534412e-05
-3.0555347620975226e-05,2.2406928110285662e-05,-2.0149066131125437e-06,-2.0097941160202026e-06,5.2803046855842695e-05
-2.9169217668822967e-05,1.9717363102245145e-05,-2.9154550702514825e-06,1.5610879700034275e-07,5.142676309333183e-05
-2.9245220503071323e-05,1.6530084394617006e-05,-3.753790906557697e-06,1.2494222119130427e-06,5.415686609921977e-05
-3.394381928956136e-05,1.633222564123571e-05,-7.1713084253133275e-06,-5.00750331866584e-07,5.476132355397567e-05
-3.315163485240191e-05,2.212107938248664e-05,-1.061969578586286e-05,-4.061401796207065e-06,5.4227508371695876e-05
-3.048538201255724e-05,2.9929913580417633e-05,-8.461246579827275e-06,-2.247761813123361e-06,5.341257929103449e-05
-3.204020322300494e-05,3.312986154924147e-05,-3.5970665521745104e-06,2.339955244679004e-06,5.3178766393102705e-05
-3.3976262784563005e-05,3.216850745957345e-05,-1.8744955241345451e-06,5.255626547295833e-06,5.4024487326387316e-05
-3.812203067354858e-05,3.2855681638466194e-05,-3.7805530155310407e-06,3.670291107482626e-06,5.416896237875335e-05
-4.0632432501297444e-05,3.563402424333617e-05,-5.869538654224016e-06,-1.2784482805727748e-06,5.373142994358204e-05
-3.806555469054729e-05,3.967892553191632e-05,-3.3296412311756285e-06,-8.058911589614581e-06,5.477874219650403e-05
-3.4625194530235603e-05,4.244739830028266e-05,1.5644048971807933e-06,-1.5233054909913335e-05,5.852294634678401e-05
-3.477141581242904e-05,4.1665112803457305e-05,7.307520263566403e-06,-1.754383265506476e-05,5.965165837551467e-05
-3.6234465369489044e-05,4.03209232899826e-05,1.078024706657743e-05,-1.4042306247574743e-05,5.618979412247427e-05
-3.8367674278561026e-05,4.107110726181418e-05,1.2768310625688173e-05,-1.057410190696828e-05,5.397973654908128e-05
-4.1519946535117924e-05,4.385226930025965e-05,1.5757988876430318e-05,-8.750156666792464e-06,5.6572309404145926e-05
-4.2397867218824103e-05,4.7485278628300875e-05,2.0304014469729736e-05,-7.486189133487642e-06,5.954484367975965e-05
-3.906961501343176e-05,4.994661139789969e-05,2.2899032046552747e-05,-7.897583600424696e-06,5.734319347538985e-05
-3.516963261063211e-05,5.0230970373377204e-05,2.0437606508494355e-05,-1.016824899124913e-05,5.16402033099439e-05
-2.9902161259087734e-05,5.045793659519404e-05,1.3121258234605193e-05,-1.1607451597228646e-05,4.787100260728039e-05
-2.0659879737650044e-05,4.9261707317782566e-05,5.246122782409657e-06,-1.015602992993081e-05,4.7314078983617947e-05
-1.6815321941976435e-05,4.349807932158001e-05,2.9965764269945794e-07,-8.8765245891409e-06,5.0376573199173436e-05
-2.1517065761145204e-05,3.44443651556503e-05,1.0333486670788261e-06,-8.505433470418211e-06,5.131453144713305e-05
-2.1894851670367643e-05,2.6265015549142845e-05,3.888708306476474e-06,-7.837564226065297e-06,4.796859866473824e-05
-1.8944816474686377e-05,2.1434958398458548e-05,3.8292905628622975e-06,-6.065537490940187e-06,4.522761810221709e-05
-1.7531287085148506e-05,2.2630463718087412e-05,3.870870386890601e-06,-7.1671265686745755e-06,4.9658705393085256e-05
-1.8769942471408285e-05,2.6375753805041313e-05,4.4302405513008125e-06,-1.0063298759632744e-05,5.6814609706634656e-05
-1.8323302356293425e-05,2.8654307243414223e-05,3.773378466576105e-06,-1.4305444892670494e-05,5.4668766097165644e-05
-1.667326250753831e-05,2.895688703574706e-05,1.6218260725509026e-06,-1.9017988961422816e-05,5.066909943707287e-05
-1.9923605577787384e-05,2.7038857297156937e-05,-1.8984601410920732e-06,-1.7997421309701167e-05,4.894185622106306e-05
-2.6125939257326536e-05,2.740123454714194e-05,-2.5878518954414176e-06,-1.2565778888529167e-05,5.168084317119792e-05
-2.7479592972667888e-05,3.0205210350686684e-05,-6.370692062773742e-07,-6.899160780449165e-06,5.7195120461983606e-05
-2.523483090044465e-05,3.456220656516962e-05,2.778887619570014e-06,-3.73101829609368e-06,6.028969073668122e-05
-2.141946242772974e-05,3.778398968279362e-05,8.634127880213782e-06,-3.663325060188072e-06,6.259672954911366e-05
-1.3163112271286082e-05,4.035752499476075e-05,1.3085189493722282e-05,-5.927047368459171e-06,6.577021849807352e-05
-1.3998699614603538e-05,4.059890125063248e-05,1.3933959962741937e-05,-1.1151339094794821e-05,6.921959720784798e-05
-2.2811560484115034e-05,3.953438135795295e-05,1.4725301298312843e-05,-1.4622939488617703e-05,6.961668259464204e-05
-2.9385817470028996e-05,3.9024187572067603e-05,1.7962505808100104e-05,-1.6881600458873436e-05,6.658912025159225e-05
-2.85857076960383e-05,3.749160896404646e-05,1.9144046746077947e-05,-1.7888676666188985e-05,6.409425986930728e-05
-2.4968378056655638e-05,3.675621701404452e-05,1.8253642338095233e-05,-1.5718534996267408e-05,6.469125219155103e-05
-2.4865501472959295e-05,3.754512727027759e-05,1.7233876860700548e-05,-1.3587696230388246e-05,6.580671470146626e-05
-2.8878062948933803e-05,3.775382720050402e-05,1.582311961101368e-05,-1.3383179975789972e-05,6.518639565911144e-05
-3.221922452212311e-05,3.562749407137744e-05,1.3591743481811136e-05,-1.3484683222486638e-05,6.162934005260468e-05
-3.215820834157057e-05,3.362381903571077e-05,1.1098733011749573e-05,-1.1575970347621478e-05,5.881777542526834e-05
-3.118041786365211e-05,3.277915311628021e-05,8.350698408321477e-06,-1.1069329048041254e-05,5.911369589739479e-05
-3.259658478782512e-05,3.029421714018099e-05,6.490907708212035e-06,-1.4355552593769971e-05,6.0140755522297695e-05
-3.477784775895998e-05,2.3066198991728015e-05,7.541085324191954e-06,-1.8005392121267505e-05,5.9613350458675995e-05
-3.274915070505813e-05,1.7357075194013305e-05,9.576749107509386e-06,-1.8734392142505385e-05,5.977182081551291e-05
-3.232678500353359e-05,1.587813676451333e-05,9.748386219143867e-06,-1.780916500138119e-05,6.053204197087325e-05
-3.1954270525602624e-05,1.6749700080254115e-05,6.042234417691361e-06,-2.0091794795007445e-05,5.861796307726763e-05
-3.0294604584923945e-05,2.0062318071722984e-05,7.305371241272951e-07,-2.2386589989764616e-05,5.565761966863647e-05
-2.7012907594325952e-05,2.051859519269783e-05,2.795860837068176e-06,-1.72871004906483e-05,5.5785905715310946e-05
-2.553698323026765e-05,1.4370220014825463e-05,5.56470649826224e-06,-1.146891008829698e-05,5.945315569988452e-05
-3.052498141187243e-05,1.1308337889204267e-05,3.543546654327656e-06,-8.540683666069526e-06,6.194755405886099e-05
-3.1092848075786605e-05,1.4780867786612362e-05,3.5144640264661575e-07,-7.824631211406086e-06,6.374571967171505e-05
-2.2727235773345456e-05,1.774806332832668e-05,6.262025067371724e-07,-7.181176442827564e-06,6.581801426364109e-05
-1.831170629884582e-05,2.03581676032627e-05,2.9662842848665605e-07,-8.225784768001176e-06,6.666764238616452e-05
-1.859036819951143e-05,2.23075821850216e-05,-3.2953666959656402e-06,-1.1723488569259644e-05,6.331077020149678e-05
-1.6072115613496862e-05,2.0844301616307348e-05,-5.049251740274485e-06,-1.4001469935465138e-05,5.759179111919366e-05
-1.3740321264776867e-05,1.729287760099396e-05,-5.9273365877743345e-06,-1.380354387947591e-05,5.771850192104466e-05
-1.0645660040609073e-05,1.4207957065082155e-05,-3.0696767225890653e-06,-1.1541624189703725e-05,6.216483598109335e-05
-7.175704922701698e-06,1.1725875992851797e-05,-3.4259935546288034e-06,-8.043594789342023e-06,6.400225538527593e-05
-7.171518518589437e-06,8.488598723488394e-06,-8.017375876079313e-06,-3.759049150175997e-06,6.118091550888494e-05
-9.592487913323566e-06,6.712616141157923e-06,-1.2547231563075911e-05,-3.5207099244871642e-06,5.647495709126815e-05
-9.685942131909542e-06,8.608842108515091e-06,-1.3731802937400062e-05,-6.234754437173251e-06,5.37086816621013e-05
-6.814467269578017e-06,1.1832676136691589e-05,-1.3471450984070543e-05,-7.607725365232909e-06,5.383189636631869e-05
-7.781253771099728e-06,1.0538307833485305e-05,-1.1591956535994541e-05,-9.510784366284497e-06,5.39589709660504e-05
-1.3487414435076062e-05,9.25218228076119e-06,-6.485423909907695e-06,-8.739333679841366e-06,5.377928391681053e-05
-1.8794738934957422e-05,1.3891672097088303e-05,3.43848171269201e-07,-3.2289326554746367e-06,5.352394873625599e-05
-2.1281726731103845e-05,1.7310849216300994e-05,5.5130581131379586e-06,1.892161520800073e-07,5.087297904537991e-05
-2.227621735073626e-05,1.733327553665731e-05,8.522980351699516e-06,-1.2212962019475526e-06,4.8858244554139674e-05
-2.137048613803927e-05,2.0237079297658056e-05,1.3059587217867374e-05,-3.3427152175136143e-06,5.2164148655720055e-05
-1.8767106666928157e-05,2.4084467440843582e-05,1.7185038814204745e-05,-4.5822862375644036e-06,5.7757351896725595e-05
-1.6107971532619558e-05,2.3428876374964602e-05,1.7764836229616776e-05,-5.489228442456806e-06,5.977419641567394e-05
-2.121916440955829e-05,2.4101404051179998e-05,1.711921504465863e-05,-4.855062798014842e-06,5.8607725804904476e-05
-3.1218613003147766e-05,2.9065207854728214e-05,1.4133715012576431e-05,-4.794905635208124e-06,5.893171328352764e-05
-3.2409097912022844e-05,3.565123915905133e-05,2.8262784326216206e-06,-4.000719854957424e-06,6.150722038000822e-05
-2.8239521270734258e-05,4.401108162710443e-05,-1.3130479601386469e-05,-1.8955241785079124e-06,6.370305345626548e-05
-2.878892883018125e-05,5.393231185735203e-05,-2.459563984302804e-05,-3.046081019419944e-06,6.478628347394988e-05
-3.300423486507498e-05,6.17007099208422e-05,-2.9650695068994537e-05,-1.0230529369437136e-05,6.192211003508419e-05
-3.564436701708473e-05,6.272964674280956e-05,-3.0406974474317394e-05,-1.6769337889854796e-05,5.8529483794700354e-05
-3.3925800380529836e-05,6.48378991172649e-05,-2.4134664272423834e-05,-1.6674581274855882e-05,5.841902384418063e-05
-3.233854295103811e-05,6.916953134350479e-05,-1.5160744624154177e-05,-1.0428917448734865e-05,6.223712261999026e-05
-3.7955553125357255e-05,6.813787331338972e-05,-4.635674031305825e-06,-6.922471129655605e-06,6.586984818568453e-05
-4.490287756198086e-05,5.888207670068368e-05,4.57965779787628e-06,-9.261750165023841e-06,6.363025750033557e-05
-4.7076246119104326e-05,4.41144329670351e-05,1.3206618859840091e-05,-9.659672286943533e-06,6.17648838669993e-05
-4.792924301000312e-05,3.3771913876989856e-05,2.3923224944155663e-05,-8.506928679707926e-06,5.890294778509997e-05
-4.9271828174823895e-05,3.105804353253916e-05,3.5479893995216116e-05,-8.802026059129275e-06,5.2516028517857194e-05
-4.788693331647664e-05,3.371223283465952e-05,4.1123836126644164e-05,-1.0107122761837672e-05,4.898233601124957e-05
-4.520059155765921e-05,3.191587529727258e-05,4.0792721847537905e-05,-9.045775186677929e-06,5.217682337388396e-05
-4.2033203499158844e-05,2.7128951842314564e-05,3.675795596791431e-05,-1.0817017027875409e-05,5.736906314268708e-05
-3.983100032201037e-05,2.09673944482347e-05,3.119482425972819e-05,-1.5054185496410355e-05,6.0026337450835854e-05
-3.938597365049645e-05,1.4858881513646338e-05,3.0176452128216624e-05,-1.4399820429389365e-05,6.09462040301878e-05
-3.96537288906984e-05,1.2851514838985167e-05,3.2118376111611724e-05,-7.019447366474196e-06,6.05080604145769e-05
-3.8167418097145855e-05,1.6713467630324885e-05,3.026762351510115e-05,2.244250708827167e-06,5.9937236073892564e-05
-3.5468710848363116e-05,2.617425525386352e-05,2.2953900042921305e-05,7.656228262931108e-06,5.932921703788452e-05
-3.3334887120872736e-05,3.56703603756614e-05,1.871739368652925e-05,7.470584478141973e-06,5.703086935682222e-05
-3.0192211852408946e-05,3.903585093212314e-05,1.8458209524396807e-05,4.135468316235347e-06,5.377341221901588e-05
-2.5663646738394164e-05,3.736258076969534e-05,1.8554066627984866e-05,-1.2784689715772402e-06,5.2538180170813575e-05
-2.3828706616768613e-05,3.4924720239359885e-05,1.9067460016231053e-05,-8.445878847851418e-06,5.375672481022775e-05
-2.4210510673583485e-05,2.8861608370789327e-05,1.8857344912248664e-05,-1.334196531388443e-05,5.5177417380036786e-05
-2.2903954231878743e-05,2.0354023945401423e-05,1.2928509022458456e-05,-1.6307873011101037e-05,5.6817701988620684e-05
-2.436588329146616e-05,1.5807798263267614e-05,4.208118298265617e-06,-1.872890061349608e-05,5.8751978940563276e-05
-2.553543345129583e-05,1.9857128791045398e-05,-1.7211992826560163e-06,-1.810622234188486e-05,5.874789712834172e-05
-2.465427496645134e-05,2.951118949567899e-05,-3.2041496069723507e-06,-1.1466327123343945e-05,5.8784353313967586e-05
-2.6245717890560627e-05,3.923213080270216e-05,-2.5466633815085515e-06,-8.24942526378436e-06,5.93443401157856e-05
-2.848017538781278e-05,3.4772685467032716e-05,-1.3274673165142303e-06,-1.1385968718968797e-05,5.775372119387612e-05
-2.304821100551635e-05,2.2870268367114477e-05,8.639869406579237e-07,-1.648072066018358e-05,5.794410753878765e-05
-1.7573582226759754e-05,1.9230034013162367e-05,2.70466102847422e-06,-1.8532648027758114e-05,6.248334102565423e-05
-2.3026768758427352e-05,2.078264697047416e-05,3.0933281323086703e-06,-1.6263817087747157e-05,6.331053737085313e-05
-2.9885457479394972e-05,2.0260500605218112e-05,3.982139787694905e-06,-1.4683333574794233e-05,6.0731257690349594e-05
-3.13586242555175e-05,2.0553927242872305e-05,4.685901330958586e-06,-1.4654424376203679e-05,6.16367906332016e-05
-3.4683598642004654e-05,3.056173591176048e-05,2.176503670625607e-07,-1.168236030935077e-05,6.424193270504475e-05
-4.020451524411328e-05,4.237359098624438e-05,-1.0536375157244038e-05,-5.274431714497041e-06,6.219647184479982e-05
-4.397573502501473e-05,4.325607369537465e-05,-1.9908395188394934e-05,-3.730196567630628e-06,5.753877849201672e-05
-4.760316005558707e-05,3.300323078292422e-05,-2.7165513529325835e-05,-8.717158380022738e-06,5.414719271357171e-05
-4.769935185322538e-05,2.3098378733266145e-05,-2.9616272513521835e-05,-1.585630525369197e-05,5.388386489357799e-05
-4.2580410081427544e-05,2.1268906493787654e-05,-2.5342598746647127e-05,-2.158319875888992e-05,5.6859804317355156e-05
-3.544765058904886e-05,2.12765735341236e-05,-1.673324550210964e-05,-2.4802537154755555e-05,6.030730946804397e-05
-3.3954245736822486e-05,1.862130557128694e-05,-4.451595941645792e-06,-2.525161653466057e-05,6.170764390844852e-05
-3.484702392597683e-05,1.716662518447265e-05,6.843662504252279e-06,-2.34110739256721e-05,6.064159970264882e-05
-3.1659994419896975e-05,2.2124473616713658e-05,1.1781980902014766e-05,-1.9554632672225125e-05,6.090942770242691e-05
-2.8924814614583738e-05,2.8229953386471607e-05,1.1942766832362395e-05,-1.462203999835765e-05,6.235460023162887e-05
-3.128684693365358e-05,3.0103852623142302e-05,1.4251063475967385e-05,-1.274023816222325e-05,6.220625073183328e-05
-3.200507853762247e-05,2.747793769231066e-05,1.8603093849378638e-05,-1.466411049477756e-05,5.941729978076182e-05
-2.6585286832414567e-05,1.8923643438029103e-05,2.0070874597877264e-05,-1.6321968359989114e-05,5.7473997003398836e-05
-2.2008760424796492e-05,5.1565648391260765e-06,1.720504224067554e-05,-1.7290325558860786e-05,5.66751004953403e-05
-2.1330984964151867e-05,-7.627663762832526e-07,1.6571970263612457e-05,-2.1290488803060725e-05,5.3129293519305065e-05
-2.0809888155781664e-05,9.294382834923454e-06,2.086916174448561e-05,-2.305897396581713e-05,4.571572571876459e-05
-2.2138954591355287e-05,1.6165018678293563e-05,2.8370281142997555e-05,-1.6155632692971267e-05,3.9905396988615394e-05
-2.351599141547922e-05,1.0900566849159077e-05,2.8673508495558053e-05,-9.483259418630041e-06,4.0721894038142636e-05
-2.0399249478941783e-05,4.127090505789965e-06,1.9383336621103808e-05,-1.1118879228888545e-05,5.0512760935816914e-05
-1.804394014470745e-05,3.955763531848788e-06,1.0810583262355067e-05,-1.7903323168866336e-05,6.331841723294929e-05
-2.4762632165220566e-05,9.868012966762763e-06,1.0063699846796226e-05,-2.0376997781568207e-05,6.996793672442436e-05
-3.2079922675620764e-05,1.308764058194356e-05,1.0141872735403012e-05,-1.4414040379051585e-05,6.756267976015806e-05
-2.7290212528896518e-05,1.8307449863641523e-05,9.420384230907075e-06,-8.582814189139754e-06,6.202961230883375e-05
-2.036674959526863e-05,2.4926574042183347e-05,1.2546550351544283e-05,-7.4917174970323686e-06,5.876568320672959e-05
-1.6143638276844285e-05,2.5629598894738592e-05,1.4172587725624908e-05,-9.084028533834498e-06,5.639617666020058e-05
-1.541496931167785e-05,2.621404200908728e-05,1.258067823073361e-05,-1.1108308171969838e-05,5.5133488785941154e-05
-1.6784646504675038e-05,2.9454808100126684e-05,9.313165719504468e-06,-1.2709903785435017e-05,5.461882028612308e-05
-2.3127009626477957e-05,3.351081977598369e-05,7.917055881989654e-06,-1.1246603207837325e-05,5.394687832449563e-05
-2.8743050279445015e-05,3.0258612241595984e-05,8.947962669481058e-06,-7.796745194355026e-06,5.122397851664573e-05
-3.033927350770682e-05,2.367315573792439e-05,1.248255830432754e-05,-7.958386049722321e-06,5.035945650888607e-05
-3.1004747143015265e-05,2.019014209508896e-05,1.2916483683511615e-05,-9.23378138395492e-06,5.3828585805604234e-05
-3.0448454708675854e-05,1.898453956528101e-05,8.013405022211373e-06,-9.128970305027906e-06,5.8343273849459365e-05
-2.693017631827388e-05,1.809574678190984e-05,1.421812953594781e-06,-6.86110479364288e-06,5.881035031052306e-05
-1.9062063074670732e-05,2.1562205802183598e-05,-4.104452727915486e-06,-4.8545198296778835e-06,5.798643542220816e-05
-1.117738338507479e-05,3.203094456694089e-05,-4.656946657632943e-06,-3.1332131129602203e-06,5.916948430240154e-05
-4.3040640775871e-06,4.545582123682834e-05,-2.185787934649852e-06,-4.657020326703787e-06,6.087735528126359e-05
-2.2423930658987956e-06,5.560171484830789e-05,2.4563730676163686e-06,-9.646586477174424e-06,6.40089056105353e-05
-5.48285379409208e-06,6.0466016293503344e-05,8.503900062351022e-06,-1.0902510439336766e-05,6.627379480050877e-05
-2.3311506538448157e-06,5.935068475082517e-05,1.1808468116214499e-05,-7.209921477624448e-06,6.593869329662994e-05
1.2770821740559768e-05,5.1156108384020627e-05,9.36668220674619e-06,-5.634110493701883e-06,6.441963341785595e-05
2.7370713723939843e-05,4.311228258302435e-05,6.400546226359438e-06,-7.700686182943173e-06,6.22658699285239e-05
3.36762641381938e-05,3.909254155587405e-05,8.758866897551343e-06,-7.719555469520856e-06,6.13570082350634e-05
2.3780892661307007e-05,3.8291032979032025e-05,1.3606460015580524e-05,-6.5575572989473585e-06,6.418582051992416e-05
1.5829178892090567e-06,3.552501220838167e-05,1.5727839127066545e-05,-8.676200195623096e-06,6.649685383308679e-05
-2.1628442482324317e-05,3.229471985832788e-05,1.5876517863944173e-05,-1.3398391274677124e-05,6.893035606481135e-05
-3.467287024250254e-05,3.563271093298681e-05,1.645666634431109e-05,-1.528776192571968e-05,7.295834802789614e-05
-3.574558286345564e-05,4.335073026595637e-05,1.7993910660152324e-05,-1.4018913134350441e-05,7.368622027570382e-05
-3.3434422221034765e-05,5.71327364013996e-05,1.7388310880050994e-05,-1.038500795402797e-05,6.648396083619446e-05
-3.1129813578445464e-05,6.897379353176802e-05,1.1356673894624691e-05,-6.488274721050402e-06,5.602282180916518e-05
-2.544356721045915e-05,6.607879913644865e-05,3.472971911833156e-06,-5.012286237615626e-06,5.008940934203565e-05
-1.7714886780595407e-05,5.723449794459157e-05,-2.8694187221844913e-06,-5.639532901113853e-06,5.041752592660487e-05
-1.9646633518277667e-05,5.0496397307142615e-05,-7.970155820657965e-06,-9.60496072366368e-06,5.477553713717498e-05
-3.015477159351576e-05,4.527988494373858e-05,-9.259657417715061e-06,-1.5277526472345926e-05,5.795493416371755e-05
-3.407531403354369e-05,3.906128404196352e-05,-5.765630248788511e-06,-1.892047657747753e-05,6.08668451604899e-05
-2.744686571531929e-05,3.2456166081828997e-05,1.7387947082170285e-06,-1.95041411643615e-05,6.272536847973242e-05
-1.9045675799134187e-05,2.272826350235846e-05,1.168097514891997e-05,-1.6538326235604472e-05,6.268285505939275e-05
-1.331382281932747e-05,1.4747109162271954e-05,1.8251161236548796e-05,-1.2613764738489408e-05,6.186324753798544e-05
-1.0995890988851897e-05,1.2633728147193324e-05,2.073617906717118e-05,-8.408368557866197e-06,6.157582538435236e-05
-8.04897445050301e-06,8.815770343062468e-06,2.2829457520856522e-05,-7.1129029493022244e-06,5.926105222897604e-05
-5.75503645450226e-06,1.4520265949613531e-06,2.4570361347286962e-05,-7.0139835770532954e-06,5.470823816722259e-05
-1.2409926966938656e-05,-1.4352808648254722e-06,2.236941145383753e-05,-7.210545390989864e-06,5.4569343774346635e-05
-2.3815739041310735e-05,2.5462504709139466e-06,1.7111156921600923e-05,-7.391385224764235e-06,5.8991241530748084e-05
-2.9575874577858485e-05,8.525117664248683e-06,1.2631179743038956e-05,-6.4692080741224345e-06,6.34500029264018e-05
-2.997285992023535e-05,1.359014004265191e-05,1.3257380487630144e-05,-3.729247055161977e-06,6.47158085484989e-05
-3.0871127819409594e-05,1.8222130165668204e-05,1.5440999050042592e-05,-9.447681463825575e-07,6.260867667151615e-05
-2.8119360649725422e-05,2.179381226596888e-05,1.2714173863059841e-05,-1.6208259694394656e-06,5.9145775594515726e-05
-2.0148121620877646e-05,2.2786489353165962e-05,6.487753125838935e-06,-4.429556611285079e-06,5.9903959481744096e-05
-1.557434916321654e-05,2.1410245608421974e-05,2.274363851029193e-06,-7.445957635354716e-06,6.363075226545334e-05
-1.820846227928996e-05,2.1111516616656445e-05,1.916002247526194e-06,-1.1264799468335696e-05,6.34555981378071e-05
-2.146112638001796e-05,2.1418160031316802e-05,5.760838917012734e-07,-1.3703071999771055e-05,6.035965998307802e-05
-2.00713038793765e-05,1.685817369434517e-05,-3.835654297290603e-06,-1.0778664545796346e-05,6.244420364964753e-05
-2.0591181964846328e-05,1.463739863538649e-05,-9.07852972886758e-06,-6.979999398026848e-06,6.784332799725235e-05
