-3.040396586584393e-05,1.5161853298195638e-05,1.154743858933216e-05,-1.8353890482103452e-05,6.664529064437374e-05
-2.775839311652817e-05,1.56074165715836e-05,1.3580209270003252e-05,-1.9309940398670733e-05,6.361686973832548e-05
-2.324771776329726e-05,2.1484609533217736e-05,1.5973449990269728e-05,-1.9905477529391646e-05,5.849438821314834e-05
-1.7988126273849048e-05,2.7783367841038853e-05,1.8695547623792663e-05,-1.5295794582925737e-05,5.7034318160731345e-05
-2.1733749235863797e-05,2.463686905684881e-05,1.6768824934842996e-05,-1.230325779033592e-05,5.9327245253371075e-05
-2.6999268811778165e-05,1.8954078768729232e-05,1.3323339771886822e-05,-1.2375192454783246e-05,6.290681631071493e-05
-2.520721682230942e-05,2.002783730858937e-05,9.703469004307408e-06,-1.0661376109055709e-05,6.158005999168381e-05
-1.624623291718308e-05,2.2633459593635052e-05,7.486348749807803e-06,-6.307574039965402e-06,5.936697925790213e-05
-1.1374727364454884e-05,2.228994526376482e-05,1.0828659469552804e-05,-5.477858394442592e-06,5.5319709645118564e-05
-1.4984889276092872e-05,2.1430914785014465e-05,1.1248500413785223e-05,-7.622893463121727e-06,5.02834991493728e-05
-2.668403431016486e-05,2.2580899894819595e-05,4.02530531573575e-06,-1.1519934560055844e-05,5.129793134983629e-05
-3.916569767170586e-05,2.7821099138236605e-05,-7.5242169259581715e-06,-1.4299409485829528e-05,5.493103162734769e-05
-4.514362080954015e-05,3.750558607862331e-05,-1.2595896805578377e-05,-1.606396290299017e-05,5.499560938915238e-05
-4.6112865675240755e-05,4.606821676134132e-05,-7.326020750042517e-06,-1.8622586139827035e-05,5.421933747129515e-05
-4.828416058444418e-05,4.657405224861577e-05,2.5994527277362067e-06,-1.9335375327500515e-05,5.598016650765203e-05
-5.029568274039775e-05,4.2849314922932535e-05,9.836312528932467e-06,-1.4554210792994127e-05,5.744130612583831e-05
-5.052026244811714e-05,4.138256190344691e-05,1.2853379303123802e-05,-6.641300842602504e-06,5.8280227676732466e-05
-5.258915916783735e-05,4.28040511906147e-05,1.3646770639752503e-05,-1.7107148551076534e-06,5.734308069804683e-05
-4.9414931709179655e-05,4.6294357161968946e-05,1.3254565601528157e-05,-2.2869380700285546e-06,5.733431316912174e-05
-3.2413689041277394e-05,4.8845147830434144e-05,1.261418674403103e-05,-4.927152986056171e-06,5.8717429055832326e-05
-1.036622779793106e-05,4.6879580622771755e-05,1.2472064554458484e-05,-4.082618488610024e-06,6.136435695225373e-05
7.967628334881738e-08,4.2332354496465996e-05,1.4012303836352658e-05,-6.176430247251119e-07,6.411298818420619e-05
-3.2768837172625354e-06,3.5926830605603755e-05,1.5077451280376408e-05,2.2722481674009032e-07,6.43150124233216e-05
-1.8577282389742322e-05,2.638015394040849e-05,1.1340285709593445e-05,1.5331683016484021e-06,6.161930650705472e-05
-3.343125354149379e-05,2.0480774765019305e-05,4.9471832426206674e-06,3.3737317153281765e-06,6.0919392126379535e-05
-3.5392007703194395e-05,2.523551847843919e-05,9.178635309581296e-07,-9.750647222972475e-07,6.401713471859694e-05
-2.7629601390799507e-05,2.8865415515610948e-05,7.716944310232066e-07,-6.963814939808799e-06,6.63886676193215e-05
-2.5919813197106123e-05,2.3664189939154312e-05,5.513918495125836e-06,-8.027832336665597e-06,6.452639354392886e-05
-2.978112388518639e-05,2.1072959498269483e-05,1.0086358088301495e-05,-6.084363121772185e-06,6.349651812342927e-05
-3.410594945307821e-05,2.6341553166275844e-05,8.127347427944187e-06,-2.6041880119009875e-06,6.270446465350688e-05
-4.320641528465785e-05,2.627429239510093e-05,3.915586603397969e-06,-9.688450290923356e-07,5.968354525975883e-05
-4.812825136468746e-05,1.9134902686346322e-05,5.525076176127186e-06,-7.036305760266259e-07,6.0947710153413936e-05
-4.7179535613395274e-05,1.1640850061667152e-05,4.788257228938164e-06,2.9540576633735327e-06,6.319542444543913e-05
-4.169417661614716e-05,1.2071624041709583e-05,-7.611977252963698e-07,2.322405407539918e-06,6.294716149568558e-05
-3.9268787077162415e-05,2.6928266379400156e-05,-8.804886419966351e-07,-1.4220452158042463e-06,6.103927444200963e-05
-4.783246913575567e-05,3.808940527960658e-05,4.3878644646611065e-06,-3.956235559599008e-06,5.9807141951750964e-05
-5.9643723943736404e-05,3.85050916520413e-05,1.067752054950688e-05,-5.10294876221451e-06,6.054353798390366e-05
-6.794174259994179e-05,2.992957342939917e-05,1.3145405318937264e-05,-7.922300937934779e-06,6.151018897071481e-05
-6.973045674385503e-05,1.9558601707103662e-05,1.2024576790281571e-05,-1.1514958714542445e-05,6.137883610790595e-05
-6.891703378641978e-05,1.4514544091071002e-05,9.336535185866524e-06,-1.257451185665559e-05,6.306199793471023e-05
-6.838684203103185e-05,1.4439913684327621e-05,4.5295446398085915e-06,-1.0794406989589334e-05,6.791189662180841e-05
-6.166876119095832e-05,1.426689686923055e-05,-3.7574785949345824e-08,-7.638973329449072e-06,7.192888733698055e-05
-3.31108458340168e-05,1.1626304512901697e-05,3.515458217862033e-07,-6.8335671130626e-06,7.26074431440793e-05
1.1608334716584068e-05,1.2955410966242198e-05,5.78658500671736e-06,-1.0205179023614619e-05,7.146427378756925e-05
4.272548176231794e-05,2.0300723917898722e-05,1.1442822142271325e-05,-1.3740991562372074e-05,6.564662180608138e-05
4.457236354937777e-05,3.0917995900381356e-05,1.6475118172820657e-05,-1.229944155056728e-05,5.6863857025746256e-05
3.273748006904498e-05,4.226921737426892e-05,2.123271769960411e-05,-1.0530910003581084e-05,5.193027755012736e-05
2.167374623240903e-05,5.3046958782942966e-05,2.2176391212269664e-05,-1.0395031495136209e-05,5.4125859605846927e-05
7.507865575462347e-06,5.925781078985892e-05,1.9753610104089603e-05,-7.667230420338456e-06,6.156506424304098e-05
-1.1054751666961238e-05,5.735902232117951e-05,1.5531744793406688e-05,-5.030223746871343e-06,6.776401278330013e-05
-2.7351410608389415e-05,5.154366226634011e-05,8.823135431157425e-06,-6.087680958444253e-06,6.817947723902762e-05
-3.098610613960773e-05,5.9660284023266286e-05,6.060710347810527e-06,-6.228807706065709e-06,6.560226756846532e-05
-2.4561068130424246e-05,7.097989146132022e-05,1.011598578770645e-05,-8.236464054789394e-06,6.421188300009817e-05
-2.2886468286742456e-05,6.0722988564521074e-05,1.3147332538210321e-05,-9.775243597687222e-06,6.217083864612505e-05
-2.3984815925359726e-05,3.5535162169253454e-05,1.2762473488692194e-05,-9.699439942778554e-06,5.8597306633600965e-05
-1.5402043572976254e-05,2.4427363314316608e-05,1.3023582141613588e-05,-1.3638868040288799e-05,5.680976391886361e-05
1.069817585630517e-06,3.154824662487954e-05,1.5003436601546127e-05,-1.7592434232938103e-05,6.050545925972983e-05
5.416176918515703e-06,3.598412877181545e-05,1.4360932254930958e-05,-1.5170890037552454e-05,6.029390715411864e-05
1.040773895510938e-06,3.3425305446144193e-05,1.0024728908319958e-05,-9.769601092557423e-06,5.601102384389378e-05
4.458235707716085e-06,2.956544813059736e-05,6.591278634004993e-06,-5.781054824183229e-06,5.377193883759901e-05
1.1650070518953726e-05,3.0633844289695844e-05,3.348301561345579e-06,-9.922628123604227e-06,5.37866071681492e-05
1.337931644229684e-05,3.306449070805684e-05,-3.1746355944051174e-07,-1.887426697066985e-05,5.3703246521763504e-05
5.541703103517648e-06,2.839298394974321e-05,-3.741192244888225e-07,-2.0481922547332942e-05,5.265829895506613e-05
-2.433326699247118e-06,2.016492908296641e-05,2.962431381092756e-06,-1.318609338341048e-05,5.108547702548094e-05
-7.54218626752845e-06,1.2506318853411358e-05,3.2581110644969158e-06,-3.974108494730899e-06,5.223771222517826e-05
-9.492077879258431e-06,1.2069494914612733e-05,6.085549557610648e-07,-1.8701300632528728e-06,5.6811706599546596e-05
-1.590898318681866e-05,2.462536394887138e-05,-3.5629177546070423e-06,-7.217297024908476e-06,5.639248411171138e-05
-2.8367076083668508e-05,4.3704469135263935e-05,-6.703406597807771e-06,-1.4254531379265245e-05,5.3833915444556624e-05
-3.953304985770956e-05,5.914501889492385e-05,-4.251302470947849e-06,-1.718635394354351e-05,5.3999094234313816e-05
-4.4602227717405185e-05,6.970778485992923e-05,1.94712333723146e-06,-1.4735945114807691e-05,5.674402927979827e-05
-4.513785825110972e-05,7.690140773775056e-05,6.240341463126242e-06,-1.1568079571588896e-05,6.0451540775829926e-05
-4.303627792978659e-05,7.772787648718804e-05,5.54691087018e-06,-1.2550125575216953e-05,6.266474520089105e-05
-3.812662907876074e-05,7.102001109160483e-05,2.234771272924263e-06,-1.7104242942878045e-05,6.198375922394916e-05
-3.243620813009329e-05,5.617522037937306e-05,4.159941369152875e-08,-2.0944928110111505e-05,6.057715290808119e-05
-3.2080133678391576e-05,3.392224607523531e-05,2.0808261069760192e-06,-1.9594204786699265e-05,5.857177166035399e-05
-4.694187009590678e-05,1.0486879546078853e-05,6.581663001270499e-06,-1.4233305591915268e-05,5.458585292217322e-05
-6.752493209205568e-05,-5.538890036405064e-06,8.673012416693382e-06,-1.0059063242806587e-05,5.3555762860924006e-05
-7.019173062872142e-05,-1.562669058330357e-05,5.881743618374458e-06,-9.596587915439159e-06,5.600798976956867e-05
-5.216895806370303e-05,-3.114738501608372e-05,7.906700716375781e-07,-1.1360506505297963e-05,5.611584856524132e-05
-2.740519084909465e-05,-4.5367527491180226e-05,-2.1349985672713956e-06,-1.571795655763708e-05,5.615641930489801e-05
-1.0167974323849194e-05,-3.560760524123907e-05,5.828612188452098e-07,-2.081815000565257e-05,5.817156852572225e-05
-8.214778972615022e-06,-4.847872332902625e-06,3.6669180190074258e-06,-2.258021049783565e-05,5.975629755994305e-05
-1.3522289009415545e-05,1.892108775791712e-05,2.608388058433775e-06,-1.7993517758441158e-05,5.893205525353551e-05
-1.976990643015597e-05,2.9757600714219734e-05,1.6492531358380802e-06,-1.285533289774321e-05,5.861908721271902e-05
-2.4469707568641752e-05,2.944825973827392e-05,1.239351036019798e-06,-1.2649007658183109e-05,5.962850264040753e-05
-2.9015087420702912e-05,2.229808160336688e-05,-1.5579416867694817e-06,-1.4770701454835944e-05,6.023341484251432e-05
-2.810541627695784e-05,1.9130873624817468e-05,-3.93616301153088e-06,-1.748533031786792e-05,5.955960659775883e-05
-2.4445058443234302e-05,1.9599299776018597e-05,-4.577423624141375e-06,-1.8406570234219544e-05,5.914488065172918e-05
-2.0752078853547573e-05,2.2111456928541884e-05,-7.072135304042604e-06,-1.5669404092477635e-05,6.106726505095139e-05
-1.9284421796328388e-05,2.08375058718957e-05,-8.558386980439536e-06,-1.2076071470801253e-05,6.236450280994177e-05
-2.0436189515748993e-05,2.1999978343956172e-05,-5.578167019848479e-06,-1.1113964319520164e-05,6.244550604606047e-05
-1.9929480913560838e-05,2.4931970983743668e-05,-1.1108286344096996e-06,-1.2499367585405707e-05,6.276110798353329e-05
-2.0797335309907794e-05,2.97142360068392e-05,3.7924846765235998e-06,-1.4523058780469e-05,6.45534964860417e-05
-2.3146310923038982e-05,3.475817356957123e-05,5.7679167184687685e-06,-1.3789497643301729e-05,6.51011650916189e-05
-2.2289435946731828e-05,3.925367127521895e-05,4.1096191125689074e-06,-1.1842814274132252e-05,6.49675348540768e-05
-1.345807049801806e-05,3.9897051465231925e-05,5.4142715271154884e-06,-1.2044396498822607e-05,6.427288462873548e-05
-5.563988906942541e-06,3.720600943779573e-05,9.234732715412974e-06,-1.4151190043776296e-05,6.175593443913385e-05
-6.7499649958335795e-06,3.327452213852666e-05,8.3753848230117e-06,-1.5783780327183194e-05,5.8774185163201764e-05
-1.4530608495988417e-05,2.734600639087148e-05,2.386511596341734e-06,-1.673487167863641e-05,5.699742541764863e-05
-1.7820242646848783e-05,2.637202851474285e-05,-3.3175952012243215e-06,-1.8018241462414153e-05,5.6685443269088864e-05
-1.4385184840648435e-05,3.0227474780986086e-05,-6.141612175269984e-06,-2.0640780348912813e-05,5.868311200174503e-05
-1.4473794180958066e-05,3.1922434573061764e-05,-4.9873406169353984e-06,-2.4866161766112782e-05,6.155919254524633e-05
-2.7161697289557196e-05,3.2284493499901146e-05,-7.420710517180851e-07,-2.712270725169219e-05,6.357279198709875e-05
-5.086021337774582e-05,3.4008175134658813e-05,6.120600573922275e-06,-2.737183058343362e-05,6.436288094846532e-05
-7.228014874272048e-05,3.2989450119202957e-05,1.1073817404394504e-05,-2.963880615425296e-05,6.125334039097652e-05
-7.100694347172976e-05,2.7829599275719374e-05,9.768538802745752e-06,-3.037305395992007e-05,5.3440417104866356e-05
-4.3010582885472104e-05,2.2837968572275713e-05,7.238559192046523e-06,-2.631792813190259e-05,4.683464067056775e-05
-1.393921957060229e-05,2.8734790248563513e-05,8.760624041315168e-06,-1.9518431145115755e-05,4.651356357499026e-05
-7.958698915899731e-06,3.564775761333294e-05,1.0468686014064588e-05,-1.5317991710617207e-05,4.994730988983065e-05
-1.8784814528771676e-05,3.592932625906542e-05,9.527562724542804e-06,-1.498835626989603e-05,5.761244028690271e-05
-3.0711562430951744e-05,2.8611832021852024e-05,9.059060175786726e-06,-1.2757278454955667e-05,6.232752639334649e-05
-4.394266215967946e-05,2.128102642018348e-05,9.86049599305261e-06,-1.1533898941706866e-05,5.843950930284336e-05
-5.083892756374553e-05,1.747256283124443e-05,8.424182851740625e-06,-1.1675159839796834e-05,5.291936395224184e-05
-4.948349669575691e-05,1.8125405404134654e-05,8.87738133314997e-06,-1.3627050975628663e-05,5.0098562496714294e-05
-4.523949610302225e-05,2.1434789232444018e-05,8.74593297339743e-06,-1.508049899712205e-05,5.3270658099791035e-05
-3.6764045944437385e-05,2.7909121854463592e-05,4.542248461802956e-06,-1.3486716852639802e-05,5.942631105426699e-05
-2.9111412004567683e-05,3.4669676097109914e-05,3.662172957774601e-06,-1.0523402124817949e-05,6.311054312391207e-05
-2.563805173849687e-05,3.8469661376439035e-05,4.97409610034083e-06,-7.568211913167033e-06,6.399265839718282e-05
-2.757058246061206e-05,3.935995846404694e-05,5.613753273792099e-06,-9.299589692091104e-06,6.0824047977803275e-05
-2.9447708584484644e-05,3.744522109627724e-05,1.3590838534582872e-06,-1.2156801858509425e-05,5.561693978961557e-05
-2.913009848271031e-05,3.492140240268782e-05,-7.943168384372257e-06,-1.0334259968658444e-05,5.3185820434009656e-05
-3.210370778106153e-05,3.058130096178502e-05,-1.6232248526648618e-05,-6.6806687755160965e-06,5.428086660685949e-05
-3.921504321624525e-05,2.8515723897726275e-05,-1.5824045476620086e-05,-6.62925867800368e-06,5.578494165092707e-05
-4.650984556064941e-05,3.0245368179748766e-05,-9.24519008549396e-06,-9.861335456662346e-06,5.678010347764939e-05
-5.1000650273635983e-05,2.943838990177028e-05,-9.877209095066064e-07,-1.1437197827035561e-05,5.656124994857237e-05
-5.6940425565699115e-05,2.2205489585758187e-05,8.560480637243018e-06,-7.744276445009746e-06,5.4201042075874284e-05
-6.561450572917238e-05,1.760032682796009e-05,1.6808411601232365e-05,-2.1600740183203015e-06,5.1413997425697744e-05
-7.08177758497186e-05,2.102030521200504e-05,2.225997013738379e-05,7.171086053858744e-07,5.002376565244049e-05
-6.93579568178393e-05,2.9619617635034956e-05,2.5969928174163215e-05,1.3158534102331032e-06,5.174469333724119e-05
-5.956933455308899e-05,3.3257656468776986e-05,2.72429570031818e-05,2.176164798584068e-06,5.621747550321743e-05
-3.3435899240430444e-05,3.06278707284946e-05,2.617750760691706e-05,1.5507937405345729e-06,5.7557845138944685e-05
4.263378627911152e-07,2.7300075089442544e-05,2.930407390522305e-05,-2.194607759520295e-06,5.27787851751782e-05
1.7316471712547354e-05,2.7406884328229353e-05,3.273909896961413e-05,-7.87426506576594e-06,4.9660022341413423e-05
1.9019820683752187e-05,2.6813708245754242e-05,2.921533268818166e-05,-1.3362256140680984e-05,5.3159365052124485e-05
1.6725580280763097e-05,2.0342353309388272e-05,2.5139788704109378e-05,-1.3171619684726465e-05,5.6371154641965404e-05
1.1299034667899832e-05,1.5284420442185365e-05,2.0904202756355517e-05,-8.097740646917373e-06,5.440791937871836e-05
1.087495456886245e-05,2.0822984879487194e-05,1.590135070728138e-05,-5.739868356613442e-06,5.291473280522041e-05
1.81765226443531e-05,2.3502112526330166e-05,1.4497401934931986e-05,-5.7529537116352e-06,5.636903733829968e-05
2.002202563744504e-05,1.8181654013460502e-05,1.3893345567339566e-05,-2.6052339308080263e-06,5.507436071638949e-05
1.1874780284415465e-05,1.9577300918172114e-05,1.2061553206876852e-05,-2.8049810225638794e-06,4.910589996143244e-05
2.040221502852546e-08,3.184271918144077e-05,5.321114258549642e-06,-8.355425961781293e-06,4.7020308556966484e-05
-1.4223686775949318e-05,4.085065666004084e-05,-2.0430722997843986e-06,-1.002699718810618e-05,4.7947611165000126e-05
-2.49564564001048e-05,3.914229819201864e-05,-7.592286237922963e-06,-5.773138127551647e-06,5.267451342660934e-05
-3.0678813345730305e-05,3.52753049810417e-05,-9.52498066908447e-06,1.8887450892179913e-07,5.7125158491544425e-05
-3.2020543585531414e-05,3.24882312270347e-05,-9.316519026469905e-06,1.994888407352846e-06,5.7840010413201526e-05
-3.554678914952092e-05,2.955411582661327e-05,-1.0715622920542955e-05,1.658217229305592e-06,5.447927105706185e-05
-4.108118446310982e-05,2.8125594326411374e-05,-1.4330565136333462e-05,6.523591764562298e-07,4.920774154015817e-05
-4.204223660053685e-05,3.052259489777498e-05,-1.7137126633315347e-05,-4.996084044250892e-07,4.428352622198872e-05
-3.789910260820761e-05,3.0283692467492074e-05,-2.0717436200357042e-05,-6.85417148815759e-07,4.2634685087250546e-05
-3.3553631510585546e-05,2.5523970180074684e-05,-2.4800454411888495e-05,-2.029183178819949e-06,4.634065044228919e-05
-3.0834125936962664e-05,2.2381638700608164e-05,-2.4886607207008637e-05,-7.067797014315147e-06,5.2007097110617906e-05
-2.9191285648266785e-05,1.8874601664720103e-05,-2.526467687857803e-05,-1.1540409104782157e-05,5.7152403314830735e-05
-2.7413923817221075e-05,1.0439376637805253e-05,-2.575303369667381e-05,-9.902390956995077e-06,5.873072586837225e-05
-2.4187538656406105e-05,5.986069481878076e-06,-2.308895273017697e-05,-5.491134288604371e-06,5.504909131559543e-05
-2.2055131921661086e-05,1.0888158612942789e-05,-1.629350117582362e-05,-2.911859155574348e-06,4.921991057926789e-05
-2.3760905605740845e-05,1.6525640603504144e-05,-5.987921667838236e-06,-4.238769633957418e-06,5.106646494823508e-05
-3.344683500472456e-05,1.8934350009658374e-05,6.174335794639774e-06,-7.459401786036324e-06,5.937104651820846e-05
-4.483638622332364e-05,1.737517595756799e-05,1.3993929314892739e-05,-8.26861651148647e-06,6.400048005161807e-05
-5.2067203796468675e-05,1.373121722281212e-05,1.7230086086783558e-05,-9.516127647657413e-06,6.43893436063081e-05
-5.557472468353808e-05,1.7682876205071807e-05,1.8629245460033417e-05,-1.101317502616439e-05,6.533066334668547e-05
-5.714121289202012e-05,3.1528110412182286e-05,2.1085985281388275e-05,-8.499855539412238e-06,6.639423372689635e-05
-5.263613275019452e-05,4.56082088930998e-05,2.3698285076534376e-05,-7.67329129303107e-06,6.435160321416333e-05
-4.4057560444343835e-05,5.44097856618464e-05,1.935588261403609e-05,-6.61655712974607e-06,6.047144779586233e-05
-3.492197720333934e-05,5.42141315236222e-05,1.107369735109387e-05,-3.961129095841898e-06,5.811008304590359e-05
-2.833512371580582e-05,5.5928383517311886e-05,1.012777920550434e-05,-1.172818315353652e-06,5.625437552225776e-05
-1.9908693502657115e-05,6.855065294075757e-05,1.5754323612782173e-05,-1.2312375474721193e-06,5.826453707413748e-05
-3.372375203980482e-06,7.082263618940488e-05,2.0468069124035537e-05,-4.393029485072475e-06,6.780699186492711e-05
1.693295234872494e-05,5.119693742017262e-05,2.020862120843958e-05,-5.556183168664575e-06,7.45689103496261e-05
3.2866239052964374e-05,2.7834026695927605e-05,1.7245498383999802e-05,-4.3708014345611446e-06,7.524157263105735e-05
3.740123429452069e-05,1.587608494446613e-05,1.789164889487438e-05,-5.051755579188466e-06,7.306899351533502e-05
1.988810981856659e-05,9.60219040280208e-06,2.0611460058717057e-05,-1.0113999451277778e-05,6.926842615939677e-05
-1.1487519259389956e-05,4.877521860180423e-06,2.0645384211093187e-05,-1.2697540114459116e-05,6.543299969052896e-05
-4.0800576243782416e-05,-2.424463673378341e-06,1.7287036826019175e-05,-1.0885888514167164e-05,6.53676688671112e-05
-6.74737457302399e-05,9.436675441065745e-07,1.221374077431392e-05,-8.183853424270637e-06,6.671785376966e-05
-8.716506272321567e-05,2.162555028917268e-05,1.1758143955376e-05,-6.556727385031991e-06,6.529781239805743e-05
-9.562658669892699e-05,4.57734422525391e-05,1.3653761925525032e-05,-6.0524625951074995e-06,6.398701953003183e-05
-8.655942656332627e-05,5.692285412806086e-05,1.3193302947911434e-05,-8.106071618385613e-06,6.433782255044207e-05
-6.461825978476554e-05,5.3654683142667636e-05,9.947370017471258e-06,-1.2028430319332983e-05,6.585563824046403e-05
-4.309829091653228e-05,4.5648830564459786e-05,5.777252226835117e-06,-1.1883647857757751e-05,6.66598352836445e-05
-2.9820277632097714e-05,3.884333636960946e-05,2.1008020212320844e-06,-7.741638910374604e-06,6.372196367010474e-05
-1.8579839888843708e-05,3.694155748235062e-05,-6.672993890788348e-07,-5.753146979259327e-06,6.021077570039779e-05
-4.701263605966233e-06,2.9817800168530084e-05,-2.9510433705581818e-06,-4.959514171787305e-06,6.315202335827053e-05
1.0979823855450377e-05,1.0696236131479964e-05,-3.6437918424780946e-06,-2.094811179631506e-06,6.785077130189165e-05
3.159002881147899e-05,-4.246700427756878e-06,-3.1127658530749613e-06,-2.835797204170376e-06,6.758222298230976e-05
4.817997614736669e-05,-5.879588798052282e-07,-5.593575224338565e-06,-6.27204326519859e-06,6.510256207548082e-05
4.810357859241776e-05,1.0384518645878416e-05,-7.830443792045116e-06,-5.79056086280616e-06,6.289762677624822e-05
3.861840377794579e-05,2.1094556359457783e-05,-9.70092605712125e-06,-1.3314098623595783e-06,5.983245500829071e-05
3.364591975696385e-05,2.901919106079731e-05,-1.3007087545702234e-05,7.388596827695437e-07,5.879787931917235e-05
2.8183663744130172e-05,3.435559483477846e-05,-1.3478099390340503e-05,-1.5634099099770538e-06,5.995317769702524e-05
1.2009184501948766e-05,3.390588244656101e-05,-9.318704542238265e-06,-6.951253908482613e-06,5.876858631381765e-05
-8.668057489558123e-06,3.328340608277358e-05,-9.121828043134883e-06,-1.1131725841551088e-05,5.396490450948477e-05
-2.2159007130539976e-05,3.3014621294569224e-05,-9.357568160339724e-06,-1.2517404684331268e-05,5.35878207301721e-05
-2.603932261990849e-05,2.3067503207130358e-05,-3.7358797726483317e-06,-1.4692777767777443e-05,5.490047624334693e-05
-2.5354915123898536e-05,5.914809207752114e-06,4.934999651595717e-06,-1.6626598153379746e-05,5.3024406952317804e-05
-2.4670884158695117e-05,-1.3192649930715561e-05,8.867012184055056e-06,-2.078717625408899e-05,5.31947189301718e-05
-2.742416472756304e-05,-1.744537439662963e-05,6.183099685586058e-06,-2.3256026906892657e-05,5.4972271755104885e-05
-2.7829286409541965e-05,-7.179976364568574e-07,3.884563284373144e-06,-2.1734158508479595e-05,5.626965867122635e-05
-2.1929618014837615e-05,1.3509619748219848e-05,5.160852197150234e-06,-2.029692223004531e-05,5.613488610833883e-05
-1.6903402865864336e-05,1.3286016837810166e-05,7.860395271563902e-06,-2.0033055989188142e-05,5.628533472190611e-05
-1.9421886463533156e-05,6.764294539607363e-06,8.870711099007167e-06,-1.736252124828752e-05,5.620488082058728e-05
-2.638419573486317e-05,7.949883183755446e-06,9.61213754635537e-06,-1.406507635692833e-05,5.469810275826603e-05
-2.872607365134172e-05,2.2071504645282403e-05,1.053393953043269e-05,-1.288573275814997e-05,5.653590051224455e-05
-2.4284541723318398e-05,4.184560020803474e-05,1.287968461838318e-05,-1.5950225133565255e-05,6.415482494048774e-05
-2.2220825485419482e-05,5.248938032309525e-05,1.7283384295296855e-05,-2.1895964891882613e-05,6.920913438079879e-05
-2.841661080310587e-05,4.7580910177202895e-05,2.1442319848574698e-05,-2.6363386496086605e-05,6.903905159560964e-05
-3.514702257234603e-05,3.814635056187399e-05,2.314412449777592e-05,-2.7493293600855395e-05,6.743471749359742e-05
-3.878507050103508e-05,3.524048224790022e-05,2.211512764915824e-05,-2.615744961076416e-05,6.461142038460821e-05
-4.087627530680038e-05,3.814342198893428e-05,1.927742050611414e-05,-2.238034358015284e-05,6.031323937349953e-05
-4.233809158904478e-05,4.055206591146998e-05,1.7380250938003883e-05,-1.679994420555886e-05,5.8537600125418976e-05
-4.437721872818656e-05,3.775152799789794e-05,1.6241378034465015e-05,-1.5013291886134539e-05,6.121162005001679e-05
-4.971236558048986e-05,3.0267045076470822e-05,1.2108203009120189e-05,-1.4353900951391552e-05,6.309885793598369e-05
-5.416174462880008e-05,2.6258876459905878e-05,5.851149580848869e-06,-1.218088891619118e-05,6.049160583643243e-05
-4.690288915298879e-05,2.847275391104631e-05,1.241918880623416e-06,-9.909043910738546e-06,5.853435504832305e-05
-3.109624594799243e-05,3.7381476431619376e-05,9.023381721817714e-07,-1.029952363751363e-05,5.793856325908564e-05
-2.0769655748154037e-05,4.602410626830533e-05,1.982634103114833e-06,-1.0836441106221173e-05,5.492804848472588e-05
-1.7740541807143018e-05,4.409185567055829e-05,7.959997674333863e-07,-1.0981060768244788e-05,5.422934191301465e-05
-2.098503682645969e-05,3.373453000676818e-05,1.711794766379171e-06,-1.345103737548925e-05,5.6522112572565675e-05
-3.0488894481095485e-05,2.6103709387825802e-05,2.2715175873599946e-06,-1.4034254490979947e-05,6.050840602256358e-05
-3.960342291975394e-05,2.873767152777873e-05,1.7978935602513957e-06,-9.810155461309478e-06,6.063734326744452e-05
-4.28953644586727e-05,3.43491010426078e-05,6.619038117605669e-07,-6.223973286978435e-06,5.61314336664509e-05
-3.674053368740715e-05,3.4598961065057665e-05,-3.2675977763574338e-06,-6.370803021127358e-06,5.356030669645406e-05
-3.0193836209946312e-05,3.085537537117489e-05,-1.7510747056803666e-06,-5.686503300239565e-06,5.482277265400626e-05
-3.362548886798322e-05,2.9921497116447426e-05,1.6444978427898604e-06,-6.358570317388512e-06,5.7330358686158434e-05
-4.517364141065627e-05,3.7907269870629534e-05,2.702964593481738e-06,-1.0920819477178156e-05,5.659039015881717e-05
-5.9453261201269925e-05,4.4936954509466887e-05,4.940874077874469e-06,-1.220607737195678e-05,5.62370041734539e-05
-6.377531099133193e-05,4.685993189923465e-05,6.276535259530647e-06,-1.2262681593711022e-05,5.835797492181882e-05
-6.083252083044499e-05,4.42734090029262e-05,5.273191163723823e-06,-1.371955659124069e-05,6.14459568168968e-05
-5.669116217177361e-05,4.0507678932044655e-05,3.1384995509142755e-06,-1.3596748431154992e-05,6.348308670567349e-05
-5.1138686103513464e-05,4.504751632339321e-05,1.5355435607489198e-06,-1.047196019499097e-05,6.538204615935683e-05
-4.560316665447317e-05,5.987915210425854e-05,8.505014648108045e-07,-6.90409297021688e-06,6.742857658537105e-05
-4.380772588774562e-05,7.422576163662598e-05,1.6508591897945735e-06,-5.8964797062799335e-06,6.755501090083271e-05
-4.520259244600311e-05,8.114911179291084e-05,3.86388774131774e-06,-9.52964819589397e-06,6.711975584039465e-05
-4.730155706056394e-05,7.710501813562587e-05,6.176192528073443e-06,-1.4132609976513777e-05,6.716660573147237e-05
-5.061113915871829e-05,5.786115434602834e-05,8.922572305891663e-06,-1.3962968296254985e-05,6.625886453548446e-05
-4.899745908915065e-05,3.515533899189904e-05,1.0483094229130074e-05,-1.0518073395360261e-05,6.479850708274171e-05
-3.947177538066171e-05,2.3712154870736413e-05,6.002558166073868e-06,-8.121603968902491e-06,6.376398960128427e-05
-3.122497582808137e-05,2.0659896108554676e-05,-8.185225652823647e-08,-9.38029643293703e-06,5.9687365137506276e-05
-3.3744981919880956e-05,1.889423765533138e-05,9.116484989135643e-07,-1.1283261301286984e-05,5.4566942708333954e-05
-3.899413059116341e-05,2.12447175726993e-05,6.9159532358753495e-06,-1.257103849638952e-05,5.299573240336031e-05
-3.99769123760052e-05,1.980106571863871e-05,7.401309176202631e-06,-1.3595263226306997e-05,5.5062537285266444e-05
-3.258712968090549e-05,1.2311059435887728e-05,4.1552793845767155e-06,-1.2954847079527099e-05,5.859244629391469e-05
-2.162929013138637e-05,1.1304129657219164e-05,2.67462542069552e-06,-1.0050155651697423e-05,6.004915485391393e-05
-1.7926377040566877e-05,1.2756449905282352e-05,3.3285132303717546e-06,-6.6641305238590576e-06,5.825487824040465e-05
-2.576643237262033e-05,6.679887064819923e-06,7.438368811563123e-06,-8.426661224802956e-06,5.418932414613664e-05
-3.303132689325139e-05,-1.9647479803097667e-06,1.1289518624835182e-05,-1.1542141692189034e-05,4.999043085263111e-05
-2.7597507141763344e-05,-3.585387048588018e-06,1.490707290940918e-05,-1.3082827535981778e-05,4.823661220143549e-05
-1.4522701349051204e-05,4.853293376072543e-06,1.2571797014970798e-05,-1.518279987067217e-05,4.895708480034955e-05
-5.121022240928141e-06,1.0895867490035016e-05,6.711200967401965e-06,-1.5393687135656364e-05,5.099267218611203e-05
-3.657321030914318e-06,6.113856670708628e-06,5.227853762335144e-06,-1.9266910385340452e-05,5.18541201017797e-05
5.142839540894784e-07,-1.7859982790469076e-06,4.770402028952958e-06,-2.0655483240261674e-05,5.093803702038713e-05
7.377662768703885e-06,1.4109241419646423e-06,6.2040080592851155e-06,-2.0101635527680628e-05,5.087637691758573e-05
1.1206671842955984e-05,1.7534794096718542e-05,1.0595787898637354e-05,-2.2496113160741515e-05,5.3121086239116266e-05
1.1412238563934807e-05,3.332546111778356e-05,1.3486457646649797e-05,-2.3872988094808534e-05,5.194849654799327e-05
2.2701242414768785e-06,3.8802212657174096e-05,1.1498000276333187e-05,-2.0560155462590046e-05,4.768482904182747e-05
-1.2391985364956781e-05,4.150733002461493e-05,6.316112376225647e-06,-1.578292176418472e-05,4.413703936734237e-05
-2.3039583538775332e-05,4.8165260523092e-05,2.3214862210352294e-07,-1.4332362297864165e-05,4.352960968390107e-05
-2.711225715756882e-05,5.4355437896447256e-05,-4.284972419554833e-06,-1.3471819329424761e-05,4.724422615254298e-05
-2.8959942937945016e-05,5.4422012908617035e-05,-6.2471531236951705e-06,-1.1947701750614215e-05,5.1504910516086966e-05
-3.0517945560859516e-05,4.8493944632355124e-05,-4.260825335222762e-06,-1.1533791621332057e-05,5.443475674837828e-05
-3.0337214411702007e-05,3.89998203900177e-05,-1.6887468063941924e-06,-1.3608934750664048e-05,5.607340426649898e-05
-2.89286945189815e-05,3.1319112167693675e-05,-4.3445029405120295e-06,-1.755109042278491e-05,5.6691496865823865e-05
-2.554664752096869e-05,3.2132571504916996e-05,-1.0528930943110026e-05,-2.166976082662586e-05,5.7253277191193774e-05
-2.1656152966897935e-05,3.676652704598382e-05,-1.4046050637261942e-05,-2.118031625286676e-05,5.819391299155541e-05
-1.9889170289388858e-05,3.469093280727975e-05,-1.537679781904444e-05,-1.6660369510645978e-05,5.8212241128785536e-05
-1.7791788195609115e-05,2.5839237423497252e-05,-1.3981357369630132e-05,-7.679948794248048e-06,5.7961060520028695e-05
-1.5902654922683723e-05,2.0919393136864528e-05,-9.019880963023752e-06,7.992080952590186e-08,5.822265666211024e-05
-2.071989729302004e-05,2.1932515664957464e-05,-5.323352070263354e-06,-6.811857247157604e-07,5.8731642639031634e-05
-3.054917397093959e-05,2.082609171338845e-05,-3.471041509328643e-06,-7.164890575950267e-06,6.200746429385617e-05
-3.54943003912922e-05,1.862700992205646e-05,-7.995585633580049e-07,-1.371278540318599e-05,6.680483056697994e-05
-3.659992216853425e-05,1.582206277817022e-05,5.990053068671841e-06,-1.3811456483381335e-05,6.805996235925704e-05
-3.921134339179844e-05,1.134598733187886e-05,1.278372928936733e-05,-5.632714874082012e-06,6.591437704628333e-05
-4.459086267161183e-05,1.394894570694305e-05,1.5017266377981286e-05,1.895010200314573e-06,6.204584497027099e-05
-5.0836366426665336e-05,2.2723264919477515e-05,1.1383809578546789e-05,4.346588411863195e-06,5.740163032896817e-05
-4.731633816845715e-05,2.9860901122447103e-05,3.5458674574329052e-06,3.5427656257525086e-06,5.314667578204535e-05
-4.177989103482105e-05,3.097284206887707e-05,-1.3006950894123293e-06,4.240909674990689e-06,5.369765858631581e-05
-3.983136048191227e-05,3.388573168194853e-05,3.1492484708905977e-07,5.167008566786535e-06,5.439766391646117e-05
-3.509012094582431e-05,4.227038152748719e-05,2.9337661544559523e-06,5.84678446102771e-07,5.3623636631527916e-05
-2.7254380256636068e-05,4.9752889026422054e-05,3.7033514672657475e-06,-5.1571259973570704e-06,5.3828272939426824e-05
-2.0850440705544315e-05,4.88582081743516e-05,4.326642283558613e-06,-9.840136954153422e-06,5.68749601370655e-05
-1.629073085496202e-05,4.4521933887153864e-05,3.1561535251967143e-06,-1.201814848172944e-05,5.8774548961082473e-05
-1.0470444976817816e-05,4.043926310259849e-05,6.979633440096222e-07,-1.4074968930799514e-05,5.675964348483831e-05
-1.147658986155875e-05,3.544594073900953e-05,-4.288405307306675e-06,-1.4284546523413155e-05,5.703432179871015e-05
-2.4607099476270378e-05,2.715782648010645e-05,-1.4488127817458007e-05,-1.033355511026457e-05,5.8799927501240745e-05
-3.715105776791461e-05,1.6899461115826853e-05,-2.479078648320865e-05,-5.902435987081844e-06,6.012698941049166e-05
-2.747696817095857e-05,1.1612452908593696e-05,-2.5746316168806516e-05,-5.1559763960540295e-06,6.076899808249436e-05
4.945165983372135e-06,1.1973666005360428e-05,-1.7729214960127138e-05,-7.157406344049377e-06,6.27564950264059e-05
2.88002411252819e-05,1.2528626029961742e-05,-8.006458301679231e-06,-8.551301107218023e-06,6.524599302792922e-05
2.016760663536843e-05,7.914349225757178e-06,6.029744668012427e-07,-7.838830242690165e-06,6.598769687116146e-05
8.285432500088064e-07,4.818821707885945e-06,9.249118193110917e-06,-3.922491032426478e-06,6.40578000457026e-05
-2.618730604808661e-06,9.643278644944075e-06,1.7013398974086158e-05,-4.381240970019462e-08,6.239333742996678e-05
2.017032102230587e-06,1.5965491911629215e-05,2.4534068870707415e-05,2.203051508331555e-06,6.307847797870636e-05
2.806829115797882e-06,1.824879291234538e-05,3.179966734023765e-05,1.2658219930017367e-06,6.4502251916565e-05
-3.6570088468579343e-06,2.133721864083782e-05,3.5796325391856954e-05,-1.987897803701344e-06,6.316795770544559e-05
-2.3525246433564462e-05,2.3083477572072297e-05,3.8017948099877685e-05,-2.356424829486059e-06,6.105859210947528e-05
-4.580444874591194e-05,2.3932170734042302e-05,3.850674329441972e-05,-2.153847617591964e-06,6.19225247646682e-05
-5.229235102888197e-05,3.024002944584936e-05,3.250090958317742e-05,-3.6364181141834706e-06,6.266796117415652e-05
-4.775851994054392e-05,3.953732084482908e-05,2.7010055418941192e-05,-5.307003448251635e-06,5.9443915233714506e-05
-4.495979374041781e-05,4.605039794114418e-05,2.5900999389705248e-05,-7.762479071971029e-06,5.733342550229281e-05
-4.693940718425438e-05,4.329994408180937e-05,2.2983180315350182e-05,-8.525294106220827e-06,5.968167170067318e-05
-4.94418854941614e-05,3.144636866636574e-05,1.9323935703141615e-05,-6.991215286689112e-06,6.192771979840472e-05
-4.8697002057451755e-05,2.6858320779865608e-05,1.6282565411529504e-05,-3.2369141536037205e-06,5.853976108483039e-05
-4.647260357160121e-05,2.809079160215333e-05,1.5966044884407893e-05,-3.0981748295744183e-06,5.49974174646195e-05
-4.475808600545861e-05,2.789290010696277e-05,1.7324869986623526e-05,-2.0890274754492566e-06,5.768616756540723e-05
-3.8658348785247654e-05,3.0773167964071035e-05,1.6792228052509017e-05,9.429407441530202e-07,6.069249866413884e-05
-1.9710754713742062e-05,3.54986623278819e-05,1.3120654330123216e-05,-1.7778844494387158e-06,6.1045415350236e-05
9.655179383116774e-06,3.529619061737321e-05,1.0311451660527382e-05,-5.538759069168009e-06,6.0894235502928495e-05
2.5722458303789608e-05,3.2427084079245105e-05,8.15569183032494e-06,-4.784303200722206e-06,6.193623994477093e-05
1.723608875181526e-05,2.9196420655352995e-05,7.587202617287403e-06,-1.6524662669326062e-06,6.260420195758343e-05
-2.146610768249957e-06,2.577416853455361e-05,4.8135216275113635e-06,-2.181544914492406e-06,6.143582868389785e-05
-1.962762871698942e-05,2.5598825232009403e-05,-1.22817027659039e-07,-7.624785666848766e-06,5.9398196754045784e-05
-2.7224075893172994e-05,3.182426007697359e-05,-3.5068737815890927e-06,-1.4634892977483105e-05,5.997547850711271e-05
-2.612081698316615e-05,3.766264853766188e-05,-2.9760346933471737e-06,-2.1297710190992802e-05,6.207897240528837e-05
-2.3018214051262476e-05,3.467253191047348e-05,1.7201011814904632e-06,-2.3075772332958877e-05,6.350388139253482e-05
-2.4379072783631273e-05,2.587841299828142e-05,6.387816938513424e-06,-1.9747967598959804e-05,6.397008837666363e-05
-3.161024142173119e-05,1.8480066501069814e-05,1.0149092304345686e-05,-1.8137476217816584e-05,6.318061059573665e-05
-4.065755638293922e-05,1.708156560198404e-05,1.0858015230041929e-05,-1.9328754206071608e-05,6.192862201714888e-05
-4.560270826914348e-05,2.0562141799018718e-05,8.057279046624899e-06,-1.866758793767076e-05,6.296289211604744e-05
-4.418912794790231e-05,2.654922536748927e-05,3.894298515660921e-06,-1.5300878658308648e-05,6.577269232366234e-05
-3.8957074139034376e-05,2.883463275793474e-05,3.6029284729011124e-06,-1.3393269000516739e-05,6.554180436069146e-05
-3.0005330700078048e-05,2.4119874069583602e-05,6.143887276266469e-06,-1.401839472237043e-05,6.0521466366481036e-05
-2.1177729649934918e-05,1.5005328350525815e-05,8.064281246333849e-06,-1.457463440601714e-05,5.5429063650080934e-05
-1.8964279661304317e-05,1.1663377335935365e-05,6.040185780875618e-06,-1.2449694622773677e-05,5.57793173356913e-05
-2.3832903025322594e-05,2.2499576516565867e-05,6.265287538553821e-06,-1.1102357348136138e-05,5.6260498240590096e-05
-2.8503309295047075e-05,4.0257786167785525e-05,9.27759629121283e-06,-1.1054247806896456e-05,5.121833237353712e-05
-2.3977627279236913e-05,5.308789695845917e-05,1.1517191524035297e-05,-1.22490755529725e-05,4.4493124732980505e-05
-2.0528143068077043e-05,5.596246774075553e-05,1.083745519281365e-05,-1.3117724847688805e-05,4.630737385014072e-05
-2.3270180463441648e-05,5.407180651673116e-05,1.0892874342971481e-05,-1.278260606341064e-05,5.5249409342650324e-05
-2.1199648472247645e-05,5.138340929988772e-05,1.4071072655497119e-05,-1.1735871339624282e-05,6.131338886916637e-05
-1.3348890206543729e-05,3.44475447491277e-05,1.2952738870808389e-05,-1.031236388371326e-05,6.29614369245246e-05
-8.195082955353428e-06,9.881300684355665e-06,1.2257528396730777e-05,-8.423206963925622e-06,6.188219413161278e-05
-9.492347999184858e-06,-2.8161682621430373e-06,1.1225041816942394e-05,-5.326742211764213e-06,5.938369577052072e-05
-6.435809609683929e-06,4.214970431348775e-06,8.02692557044793e-06,-4.284754595573759e-06,5.439614687929861e-05
-2.8565361844812287e-06,1.7905615095514804e-05,8.701294063939713e-06,-8.271826118289027e-06,5.404656985774636e-05
-3.6638907658925746e-06,2.698882599361241e-05,1.0204448699369095e-05,-1.2682798114838079e-05,5.848947694175877e-05
-5.012343990529189e-06,2.9445087420754135e-05,8.549872291041538e-06,-1.4047249351278879e-05,6.150805711513385e-05
-6.8252570599725004e-06,2.9099972380208783e-05,3.947870027332101e-06,-1.281095956073841e-05,6.281342939473689e-05
-9.260430488211568e-06,2.7246194804320112e-05,-1.2767454791173805e-06,-8.260125468950719e-06,6.502104952232912e-05
-1.2032632184855174e-05,2.4557102733524516e-05,-5.158867224963615e-06,-6.176054284878774e-06,6.744520942447707e-05
-1.4411869415198453e-05,2.6299612727598287e-05,-5.251565653452417e-06,-8.098664693534374e-06,6.698200013488531e-05
-1.8234621165902354e-05,3.2423769880551845e-05,-1.2264724773558555e-06,-8.971083843789529e-06,6.467232742579654e-05
-2.1733112589572556e-05,4.221987910568714e-05,1.888193537524785e-06,-6.256732376641594e-06,6.260410737013444e-05
-2.1382380509749055e-05,4.904446177533828e-05,1.5051115269670845e-06,-4.097509190614801e-06,6.1007856857031584e-05
-1.44426730912528e-05,5.2730720199178904e-05,-3.9273927541216835e-06,-6.6311031332588755e-06,5.825981861562468e-05
-5.702850103261881e-06,5.2946637879358605e-05,-1.097794302040711e-05,-1.0357621249568183e-05,5.620267256745137e-05
-3.378047267688089e-06,4.825613723369315e-05,-1.326202072959859e-05,-1.1212257959414274e-05,5.6531607697252184e-05
-6.4145551732508466e-06,4.14038950111717e-05,-1.1000944141414948e-05,-1.2717572644760367e-05,5.916562440688722e-05
-1.1801516848208848e-05,3.5786768421530724e-05,-8.45885369926691e-06,-1.4636628293374088e-05,6.0854847106384113e-05
-1.7794374798540957e-05,2.7148753360961564e-05,-7.986555829120334e-06,-1.24155412777327e-05,5.900673204450868e-05
-1.6315440007019788e-05,1.9656841686810367e-05,-8.020394488994498e-06,-1.0230207408312708e-05,5.7708930398803204e-05
-1.5439060007338412e-05,1.5225309653033037e-05,-6.903143457748229e-06,-1.144718498835573e-05,5.9856549341930076e-05
-2.1993018890498206e-05,1.2507298379205167e-05,-4.054693363286788e-06,-1.0449430192238651e-05,6.185661914059892e-05
-3.5551998735172674e-05,1.6656844309181906e-05,-8.022813062780187e-07,3.00414143339367e-07,6.144614599179476e-05
-5.6959615903906524e-05,1.8682292648009025e-05,-5.572464374381525e-07,8.377010090043768e-06,6.108716479502618e-05
-7.293163071153685e-05,1.1530223673617002e-05,-1.833562691899715e-06,6.042334462108556e-06,6.249818397918716e-05
-6.463951285695657e-05,5.92175820202101e-06,-3.343692696944345e-06,2.034814315265976e-06,6.258762732613832e-05
-3.8493464671773836e-05,-9.812822554522427e-07,-3.803889114806225e-07,-2.0252248305041576e-06,6.263610703172162e-05
-2.4869810658856295e-05,-8.493161658407189e-06,5.7026181821129285e-06,-2.015229483731673e-06,6.210763240233064e-05
-2.7141397367813624e-05,-5.018602564632602e-07,3.5138764360453933e-06,-2.0116510768275475e-06,6.013329766574316e-05
-3.40003207384143e-05,1.8480193830328062e-05,-1.8501650345115195e-07,-5.47756008018041e-06,5.8241301303496584e-05
-3.89996130252257e-05,3.0170429454301484e-05,1.9437306946201716e-06,-9.183871952700429e-06,6.160641351016238e-05
-4.0884686313802376e-05,3.1204177503241226e-05,3.7558374970103614e-06,-1.1233684745093342e-05,6.6078056988772e-05
-4.019918560516089e-05,2.5972407456720248e-05,2.951743226731196e-06,-1.2094365956727415e-05,6.687725544907153e-05
-4.129209992242977e-05,2.2223479390959255e-05,4.683758561441209e-06,-1.1099170478701126e-05,6.702178507111967e-05
-4.416694719111547e-05,2.4771366952336393e-05,8.935881851357408e-06,-9.018696800922044e-06,6.807166937505826e-05
-4.19708012486808e-05,2.6315579816582613e-05,1.1966183592448942e-05,-8.161560799635481e-06,6.887729978188872e-05
-3.390734491404146e-05,1.9892468117177486e-05,1.634825639484916e-05,-6.280891739152139e-06,6.819862028351054e-05
-2.6884283215622418e-05,1.292890101467492e-05,2.025593857979402e-05,-4.470462499739369e-06,6.731320900144055e-05
-2.8378843126120046e-05,1.3773426871921401e-05,2.1493318854481913e-05,-5.9070616771350615e-06,6.626028334721923e-05
-3.535862924763933e-05,1.7189207937917672e-05,2.009343370446004e-05,-9.191525350615848e-06,6.473498797276989e-05
-3.7235709896776825e-05,2.036163459706586e-05,1.7775202650227584e-05,-9.872794180409983e-06,6.201597716426477e-05
-3.213382660760544e-05,2.5474333597230725e-05,1.6039450201787986e-05,-1.0952867341984529e-05,5.939149923506193e-05
-3.140620901831426e-05,3.461966116447002e-05,1.646745477046352e-05,-1.3567349924414884e-05,5.6964792747749016e-05
-3.775877848966047e-05,4.4907046685693786e-05,1.6933703591348603e-05,-1.3931266948929988e-05,5.716071609640494e-05
-4.434408765519038e-05,4.906838876195252e-05,1.5402529243147e-05,-1.3941477845946793e-05,5.688425153493881e-05
-4.702530350186862e-05,4.7174544306471944e-05,1.2800354852515738e-05,-1.6341153241228312e-05,5.690721809514798e-05
-4.5916560338810086e-05,4.979833829565905e-05,8.945192348619457e-06,-2.0702913388959132e-05,5.90313647990115e-05
-3.9293416193686426e-05,5.46280643902719e-05,5.665990556735778e-06,-2.4149581804522313e-05,6.010456490912475e-05
-3.0840077670291066e-05,4.917991827824153e-05,6.051748187019257e-06,-2.0139004845987074e-05,6.007430420140736e-05
-2.4225233573815785e-05,4.0692386392038316e-05,1.4123133041721303e-05,-1.4876593013468664e-05,6.096730794524774e-05
-2.1010533600929193e-05,3.999465116066858e-05,1.7044752894435078e-05,-1.6065934687503614e-05,5.844017869094387e-05
-2.208845216955524e-05,3.967747397837229e-05,1.2979986422578804e-05,-2.122845035046339e-05,5.2221777878003195e-05
-2.474878783687018e-05,3.47219938703347e-05,8.74060333444504e-06,-2.4059825591393746e-05,4.8032587073976174e-05
-2.867469265765976e-05,3.0975726986071095e-05,4.887373052042676e-06,-2.2572867237613536e-05,4.8900437832344323e-05
-3.066769932047464e-05,2.996402145072352e-05,4.212573912809603e-06,-1.905803037516307e-05,5.116617103340104e-05
-2.787781886581797e-05,2.6212588636553846e-05,2.119765440511401e-06,-1.9083348888671026e-05,5.1227525545982644e-05
-2.700466757232789e-05,1.984650589292869e-05,2.5747501695150277e-06,-2.179356488341e-05,5.104159936308861e-05
-2.9496601200662553e-05,1.5767102013342083e-05,6.3111460804066155e-06,-2.1347086658352055e-05,4.875650483882055e-05
-3.1921983463689685e-05,1.70087005244568e-05,1.257440362678608e-05,-1.9736366084543988e-05,4.743440877064131e-05
-3.129717879346572e-05,1.7133314031525515e-05,1.6831849279697053e-05,-1.7379481505486183e-05,5.0078786443918943e-05
-3.133758218609728e-05,1.8560540411272086e-05,1.6360654626623727e-05,-1.7224554540007375e-05,5.500400220626034e-05
-3.3297976187895983e-05,2.3000664441497065e-05,1.1320793419145048e-05,-1.9468843674985692e-05,5.677550507243723e-05
-2.965316343761515e-05,2.680766374396626e-05,4.878569143329514e-06,-2.321457395737525e-05,5.6637622037669644e-05
-2.215244239778258e-05,2.778484304144513e-05,4.4009539124090225e-06,-2.4103233954519965e-05,5.68649047636427e-05
-1.9710916603798978e-05,3.0103783501544967e-05,8.648474249639548e-06,-2.1045196263003163e-05,5.402636088547297e-05
-2.4103255782392807e-05,3.184127854183316e-05,1.156779944722075e-05,-1.4884692063787952e-05,4.9890597438206896e-05
-2.8125503376941197e-05,2.847190626198426e-05,1.1473433005448896e-05,-7.128600373107474e-06,4.957646524417214e-05
-2.7014120860258117e-05,2.8601252779481e-05,1.1435594387876336e-05,-9.014912620841642e-07,5.465024878503755e-05
-2.462313204887323e-05,3.850814755423926e-05,8.332582183356863e-06,2.3171937701960132e-09,5.9326819609850645e-05
-2.6312596673960797e-05,4.778664151672274e-05,5.5182690630317666e-06,-2.15645150092314e-06,5.9363846958149225e-05
-2.7613083148025908e-05,4.936614277539775e-05,5.996739218971925e-06,-4.397240445541684e-06,5.7278906751889735e-05
-2.3186988983070478e-05,5.005760249332525e-05,8.058048479142599e-06,-9.012191185320262e-06,5.738309118896723e-05
-1.5201141650322825e-05,4.78136062156409e-05,9.92559489532141e-06,-1.3696671885554679e-05,6.213918095454574e-05
-1.3302431398187764e-05,4.516475382843055e-05,7.823773557902314e-06,-1.603939017513767e-05,6.460258737206459e-05
-2.557627703936305e-05,4.192377673462033e-05,1.6645841469653533e-06,-1.7453399777878076e-05,6.022571324137971e-05
-4.416536830831319e-05,3.794720032601617e-05,-4.927140935251373e-07,-1.7459125956520438e-05,5.715973020414822e-05
-5.377440174925141e-05,3.930632374249399e-05,2.9565526347141713e-06,-1.3387670151132625e-05,5.699803296010941e-05
-5.316980241332203e-05,4.8511868953937665e-05,6.7373439378570765e-06,-1.1180428373336326e-05,5.573885209742002e-05
-4.651660856325179e-05,5.4044576245360076e-05,7.1826511884864885e-06,-1.1065936632803641e-05,5.356952897273004e-05
-3.845803075819276e-05,5.7388922868994996e-05,4.381734015623806e-06,-1.0576484783086926e-05,5.3094481700100005e-05
-3.9249211113201454e-05,6.201267387950793e-05,-6.767502895854705e-07,-6.914346158737317e-06,5.035084541304968e-05
-5.386205521062948e-05,6.184950325405225e-05,-1.0502483746677171e-05,-3.7341474126151297e-06,4.64573604403995e-05
-6.984447099966928e-05,5.953721847617999e-05,-1.7269205272896215e-05,-9.051078450283967e-06,4.498911221162416e-05
-7.616492075612769e-05,5.016257637180388e-05,-1.4714421922690235e-05,-1.601469557499513e-05,4.648884350899607e-05
-7.538219506386667e-05,3.1333147489931434e-05,-7.5447160270414315e-06,-1.9568924471968785e-05,5.052362394053489e-05
-6.605641829082742e-05,1.5468460333067924e-05,-1.235316631209571e-06,-2.4228562324424274e-05,5.2411251090234146e-05
-4.032577999169007e-05,7.4417553150851745e-06,1.687610051703814e-06,-2.712515924940817e-05,5.309559128363617e-05
-8.924582743929932e-07,1.561536578265077e-06,5.189758212509332e-06,-2.3919757950352505e-05,5.6598080846015364e-05
3.2700845622457564e-05,-3.6217379602021538e-06,8.611837984062731e-06,-1.8182698113378137e-05,6.176648457767442e-05
4.3865522457053885e-05,-4.364739652373828e-06,1.1472315236460418e-05,-1.5950830857036635e-05,6.416497490135953e-05
4.104263280169107e-05,2.5525539513182594e-06,1.3985792975290678e-05,-1.6098689229693264e-05,6.428339838748798e-05
4.1812432755250484e-05,1.9702305507962592e-05,1.521403555670986e-05,-1.4459472367889248e-05,6.304947601165622e-05
4.921026629745029e-05,4.4784108467865735e-05,1.3598139048554003e-05,-9.292534741689451e-06,6.188893166836351e-05
5.231609975453466e-05,6.340593245113268e-05,1.1105271369160619e-05,-4.094672931387322e-06,6.1009930504951626e-05
4.281181099941023e-05,6.054851837689057e-05,9.27383098314749e-06,-3.721226448760717e-06,6.174898589961231e-05
1.9494669686537236e-05,4.211135455989279e-05,7.721889232925605e-06,-5.8616533351596445e-06,6.259293877519667e-05
-1.2056296327500604e-05,3.05289649986662e-05,7.733388883934822e-06,-6.666761692031287e-06,6.096311335568316e-05
-3.652355371741578e-05,2.8425267373677343e-05,8.081277883320581e-06,-7.075831490510609e-06,5.69088697375264e-05
-4.322922177379951e-05,2.4238330297521316e-05,9.647026672610082e-06,-9.92507193586789e-06,5.597292329184711e-05
-3.477813515928574e-05,1.2044137292832602e-05,9.425847565580625e-06,-1.0555452718108427e-05,5.904144563828595e-05
-1.7100097466027364e-05,-9.116241699302918e-07,3.695543000503676e-06,-6.081043011363363e-06,6.171735731186345e-05
1.7727317072058213e-06,3.2406720151811896e-07,-7.843675120966509e-06,-5.1155825531168375e-06,6.369402399286628e-05
1.2826390957343392e-05,1.0956908226944506e-05,-1.5400699339807034e-05,-1.0584499250398949e-05,6.292355101322755e-05
1.1354644811945036e-05,1.9882936612702906e-05,-1.1756824278563727e-05,-1.867310311354231e-05,6.236227636691183e-05
-2.004576572289807e-06,2.486151788616553e-05,-8.557025466870982e-06,-1.710881042527035e-05,6.195230525918305e-05
-8.604898539488204e-06,3.351039413246326e-05,-1.188780242955545e-05,-1.0004161595134065e-05,5.9245798183837906e-05
1.4940667369955918e-06,3.9131802623160183e-05,-1.4131398529571015e-05,-8.916229489841498e-06,6.058665894670412e-05
8.28550400910899e-06,3.1569041311740875e-05,-1.1537498721736483e-05,-1.1292847375443671e-05,6.454345566453412e-05
-4.8926505513691154e-08,1.3282551662996411e-05,-4.424912731337827e-06,-1.4270751307776663e-05,6.414549716282636e-05
-1.4627555174229201e-05,-4.697617896454176e-06,3.962111804867163e-06,-8.375086508749519e-06,5.9697074902942404e-05
-2.8563807063619606e-05,-1.0987390851369128e-05,1.236437037732685e-05,-1.5581233583361609e-06,5.465374852064997e-05
-3.5118733649142087e-05,-1.7349293557344936e-05,1.790475107554812e-05,-2.0259616917428502e-07,5.5022770538926125e-05
-3.797653698711656e-05,-2.099629091389943e-05,2.027750997513067e-05,-2.6968098154611653e-06,5.845764098921791e-05
-4.189385799691081e-05,-1.4592304069083184e-05,2.010536081797909e-05,-3.680324198285234e-06,6.0677291912725195e-05
-4.794259803020395e-05,-4.465478866677586e-07,1.754948061716277e-05,-3.6728060877067037e-06,6.31331349723041e-05
-5.525959932128899e-05,1.309613526245812e-05,1.3220910659583751e-05,-3.260583753217361e-06,6.788925384171307e-05
-6.0564925661310554e-05,2.6860237994696945e-05,7.555112006230047e-06,-3.0606508971686708e-06,7.141607056837529e-05
-6.0763843066524714e-05,4.084705869900063e-05,3.3986618745984742e-06,-4.879426796833286e-06,7.078748603817075e-05
-5.9513353335205466e-05,4.920439823763445e-05,4.2318133637309074e-06,-6.242861672944855e-06,6.773563654860482e-05
-6.282908725552261e-05,4.761691889143549e-05,7.872577043599449e-06,-4.878845174971502e-06,6.49911307846196e-05
-6.767031300114468e-05,4.0806280594551936e-05,7.595011993544176e-06,8.436990697191504e-07,6.363329157466069e-05
-7.095546607160941e-05,3.6437209928408265e-05,2.8435947569960263e-06,5.444698217615951e-06,6.369189941324294e-05
-7.164064300013706e-05,3.5866662074113265e-05,-2.030766836469411e-06,1.9917856661777478e-06,6.301565008470789e-05
-6.649554416071624e-05,3.866724364343099e-05,-3.7668310142180417e-06,-7.265186468430329e-06,5.982474613119848e-05
-5.498039172380231e-05,4.028083276352845e-05,-3.5610003124020295e-06,-1.0020263289334252e-05,5.758659608545713e-05
-4.613900455296971e-05,4.033703589811921e-05,-1.2542717513497337e-06,-6.806027613492915e-06,5.9801874158438295e-05
-4.4580836402019486e-05,3.675765037769452e-05,2.2714732494932832e-06,-3.5810580811812542e-06,6.553019920829684e-05
-4.788473961525597e-05,3.4799253626260906e-05,3.495589680824196e-06,-4.8676292863092385e-06,6.87673018546775e-05
-4.935507968184538e-05,3.203142841812223e-05,3.862628545903135e-06,-8.41781911731232e-06,6.88645159243606e-05
-5.277646050672047e-05,2.6799285478773527e-05,3.860048764181556e-06,-1.2739821613649838e-05,6.877654232084751e-05
-6.220925570232794e-05,2.7988515284960158e-05,6.4208120420516934e-06,-1.3964730896987021e-05,6.770654727006331e-05
-6.996370211709291e-05,3.3434585930081084e-05,1.062317915057065e-05,-7.2361585807811935e-06,6.506680074380711e-05
-6.935020792298019e-05,3.170626951032318e-05,9.916197996062692e-06,5.363710897654528e-07,6.093032789067365e-05
-5.521785715245642e-05,2.863284680643119e-05,4.8001479626691435e-06,1.2338559827185236e-06,5.717172098229639e-05
-2.9472419555531815e-05,2.7228899853071198e-05,-2.292952103744028e-06,-4.533347691904055e-06,5.819412399432622e-05
-7.441940852004336e-06,2.3655971745029092e-05,-3.854710030282149e-06,-1.3870998373022303e-05,6.219960050657392e-05
1.4930445786376367e-06,2.613809374452103e-05,-4.1979021148108586e-07,-1.701696965028532e-05,6.631783617194742e-05
-2.2975029878580244e-06,3.226823901059106e-05,4.5751448851660825e-06,-1.480854280089261e-05,7.033887231955305e-05
-1.325737321167253e-05,3.568029569578357e-05,8.151846486725844e-06,-1.1564433407329489e-05,7.218661630759016e-05
-2.2806460037827492e-05,3.5531582398107275e-05,8.657099897391163e-06,-9.083242730412167e-06,6.901120650582016e-05
-2.714946458581835e-05,3.099430978181772e-05,5.324933681549737e-06,-1.1075048860220704e-05,6.380952254403383e-05
-2.957871947728563e-05,2.6643720048014075e-05,-1.0350579486839706e-06,-1.5564337445539422e-05,5.7993907830677927e-05
-3.250846202718094e-05,2.73851583187934e-05,-4.491519575822167e-06,-1.9756698748096824e-05,5.401201997301541e-05
-3.5860521165886894e-05,3.125742296106182e-05,-3.24655297845311e-06,-1.931434053403791e-05,5.5665219406364486e-05
-3.8764810597058386e-05,3.1051720725372434e-05,6.086021926421381e-07,-1.754538061504718e-05,5.88832153880503e-05
-3.850504435831681e-05,2.9409726266749203e-05,4.157785951974802e-06,-1.588082523085177e-05,5.980733476462774e-05
-3.5689547075890005e-05,3.204193853889592e-05,5.379346930567408e-06,-1.5181256458163261e-05,5.982246148050763e-05
-3.3870812330860645e-05,3.2754818676039577e-05,3.755321813514456e-06,-1.4732571798958816e-05,6.07607580604963e-05
-3.179823761456646e-05,2.716060589591507e-05,-2.0143454548815498e-07,-1.3895767551730387e-05,6.255620974116027e-05
-2.628863694553729e-05,2.4729119104449637e-05,-4.922717835142976e-06,-1.2745816093229223e-05,6.368746107909828e-05
-2.1321138774510473e-05,2.5253075364162214e-05,-3.491093366392306e-06,-1.1535377780091949e-05,6.128824315965176e-05
-2.3028484065434895e-05,2.4290071451105177e-05,2.126421122738975e-06,-9.743826012709178e-06,5.642903488478623e-05
-2.8244481654837728e-05,2.2517180696013384e-05,3.985162948083598e-06,-6.348336228256812e-06,5.358960697776638e-05
-2.1750473024439998e-05,2.0894913177471608e-05,3.960446520068217e-06,-2.718608129725908e-06,5.475904617924243e-05
-1.059729402186349e-05,2.275887891300954e-05,7.621565146109788e-06,-1.7333379673800664e-06,5.5936678108992055e-05
-9.234634489985183e-06,2.8794363970519044e-05,8.71109568834072e-06,-2.719398707995424e-06,5.52157944184728e-05
-1.3292856237967499e-05,3.4542081266408786e-05,3.447367589615169e-06,-4.208138761896407e-06,5.5230746511369944e-05
-1.5878171325311996e-05,3.231688606319949e-05,1.5037921912153251e-06,-8.524117220076732e-06,5.78200924792327e-05
-1.266197614313569e-05,2.9312192054931074e-05,4.595547579810955e-06,-1.283232541027246e-05,5.940204573562369e-05
-6.138207936601248e-06,3.1078376196091995e-05,9.536153811495751e-06,-1.5833862562431023e-05,5.8318393712397665e-05
-7.97895609139232e-07,3.357071182108484e-05,1.3051032510702498e-05,-1.7224647308466956e-05,5.5418080592062324e-05
2.333702923351666e-06,3.246820415370166e-05,1.2190975212433841e-05,-1.4524936887028161e-05,5.351573781808838e-05
3.1507584026257973e-06,2.8886512154713273e-05,1.1856606761284638e-05,-1.0323338756279554e-05,5.415653140516952e-05
1.5823077319510048e-06,2.7738180506275967e-05,9.758309715834912e-06,-7.084232038323535e-06,5.68476170883514e-05
-2.237806029370404e-06,2.753858825599309e-05,6.351545835059369e-06,-7.42230031391955e-06,6.04285451117903e-05
-8.281698683276772e-06,2.4247163310064934e-05,5.439023425424239e-06,-8.982487088360358e-06,6.0212056268937886e-05
-1.3738194866164122e-05,2.2953485313337296e-05,5.665141088684322e-06,-1.0114624274137896e-05,5.5698619689792395e-05
-1.6916892491281033e-05,3.050137274840381e-05,1.0144135558221024e-05,-1.0838907655852381e-05,5.235625576460734e-05
-1.5082031495694537e-05,4.103580431547016e-05,1.653812978474889e-05,-8.782312761468347e-06,5.3655086958315223e-05
-9.137435881712008e-06,4.848626849707216e-05,1.9375351257622242e-05,-5.803133717563469e-06,5.550390778807923e-05
-3.680592499222257e-06,5.415728810476139e-05,1.817142401705496e-05,-3.726861450559227e-06,5.727665848098695e-05
1.26922387266859e-07,5.502154090208933e-05,1.6926087482715957e-05,-3.7599020288325846e-06,6.00983330514282e-05
-1.7850094025106955e-07,5.050974141340703e-05,1.4978914805396926e-05,-5.394659183366457e-06,6.245606346055865e-05
-5.876919658476254e-06,4.533332685241476e-05,1.256175346497912e-05,-8.48021954880096e-06,6.159654731163755e-05
-1.4577477486454882e-05,4.2918498365907e-05,1.1544021617737599e-05,-1.2833824257540982e-05,5.8468387578614056e-05
-2.237817898276262e-05,4.455905582290143e-05,1.1128877304145135e-05,-1.4802332771068905e-05,5.715268707717769e-05
-2.6991974664269947e-05,4.610889300238341e-05,9.726412827149034e-06,-1.1772965990530793e-05,5.6902437790995464e-05
-2.8883023333037272e-05,3.646924960776232e-05,9.705820957606193e-06,-9.109818165597972e-06,5.7500656112097204e-05
-2.779905298666563e-05,1.6638297893223353e-05,1.3410582141659688e-05,-9.215907994075678e-06,5.943989890511148e-05
-1.399119537381921e-05,1.067298580892384e-05,1.8396389350527897e-05,-9.858542398433201e-06,6.050095544196665e-05
6.484167442977196e-06,2.176223097194452e-05,2.0152245269855484e-05,-8.8654442151892e-06,6.234904140001163e-05
1.0238674803986214e-05,2.537611362640746e-05,1.6379332009819336e-05,-6.251973445614567e-06,6.361176929203793e-05
-9.430869795323815e-06,1.749658076732885e-05,1.0322560228814837e-05,-3.631824938565842e-06,6.0971393395448104e-05
-3.9312883018283173e-05,1.2127547051932197e-05,9.234923709300347e-06,-4.057879323227098e-06,5.59035106562078e-05
-6.340914114844054e-05,1.405103103024885e-05,1.532460009912029e-05,-8.069071554928087e-06,5.150759170646779e-05
-6.403181032510474e-05,1.310830339207314e-05,1.810437061067205e-05,-1.3092576409690082e-05,5.068331302027218e-05
-4.735726543003693e-05,8.453365808236413e-06,1.3537750419345684e-05,-1.413505833625095e-05,4.939289283356629e-05
-2.7138572477269918e-05,8.294079634652007e-06,5.2619611778936815e-06,-1.5494782928726636e-05,4.651480048778467e-05
-1.2237289411132224e-05,1.1620848454185762e-05,3.80436489422209e-07,-1.9400324163143523e-05,4.538938446785323e-05
-1.8092170648742467e-05,1.4010716768098064e-05,1.0581968581391266e-06,-1.9669605535455048e-05,4.4422024075174704e-05
-3.474317054497078e-05,1.5274796169251204e-05,2.944420202766196e-06,-1.8121821995009668e-05,4.5410310121951625e-05
-4.9159349146066234e-05,1.913621963467449e-05,4.833785169466864e-06,-1.6028312529670075e-05,4.998423173674382e-05
-5.174812758923508e-05,1.605852048669476e-05,7.652471140318085e-06,-1.3266275345813483e-05,5.0157817895524204e-05
-4.4337626604828984e-05,9.485866939940024e-06,9.144739124167245e-06,-6.742848654539557e-06,4.461565913516097e-05
-3.8715163100278005e-05,8.038395208131988e-06,7.395959983114153e-06,-1.8309766574020614e-06,4.045245805173181e-05
-4.036940663354471e-05,8.82793483469868e-06,5.301370947563555e-06,-8.308101655529754e-07,4.3548880057642236e-05
-4.235708911437541e-05,1.155531299446011e-05,6.345951987896115e-06,-1.8283462850376964e-06,5.0295104301767424e-05
-3.8480033254018053e-05,1.757826430548448e-05,6.224672233656747e-06,-3.558785920176888e-06,5.391901504481211e-05
-3.366437158547342e-05,2.6224037355859764e-05,1.7548235291542369e-06,-5.261737442197045e-06,5.351303843781352e-05
-3.693808685056865e-05,3.31981063936837e-05,-1.9194737888028612e-06,-5.3752355597680435e-06,5.056424197391607e-05
-4.8781974328448996e-05,3.321854455862194e-05,-3.50521730752007e-07,-4.664826519729104e-06,4.8857280489755794e-05
-5.7001096138264984e-05,2.3262880858965218e-05,3.88457692679367e-06,-4.319795607443666e-06,4.979621371603571e-05
-5.454042548080906e-05,1.1381365766283125e-05,4.350971721578389e-06,-1.2596619853866287e-06,5.3545179980574176e-05
-4.658797843148932e-05,5.437973868538393e-06,-9.862148999673082e-07,3.186511094099842e-06,5.971296923235059e-05
-3.937982546631247e-05,4.687772161560133e-06,-6.343057521007722e-06,1.934027750394307e-06,6.463989120675251e-05
-3.4042986953863874e-05,6.7328101067687385e-06,-6.587582447536988e-06,-1.6619915186311118e-06,6.35806645732373e-05
-2.945348751381971e-05,1.1975351299042813e-05,-5.740866072301287e-06,-7.534438282164047e-07,5.753693403676152e-05
-2.6985335352947004e-05,1.6214487914112397e-05,-5.717091426049592e-06,-1.2668249382841168e-07,5.3930933063384145e-05
-2.7174361093784682e-05,2.048207534244284e-05,-6.260776899580378e-06,-1.9138678908348083e-06,5.800879807793535e-05
-1.895735113066621e-05,3.3699125197017565e-05,-8.188420906662941e-06,-5.057865564594977e-06,6.520673196064308e-05
-7.742699381196871e-06,5.092161882203072e-05,-9.50239882513415e-06,-5.6454300647601485e-06,6.910575757501647e-05
-3.3062324291677214e-06,5.671554754371755e-05,-4.432158220879501e-06,-1.1208827345399186e-05,6.776403461117297e-05
-8.645091838843655e-06,5.0599348469404504e-05,2.533217582367797e-07,-2.0852041416219436e-05,6.667357956757769e-05
-1.3091616892779712e-05,4.463075310923159e-05,2.618147050270636e-07,-2.2815031115897e-05,6.48138448013924e-05
-1.1568438821996097e-05,4.383970008348115e-05,-8.82481174357963e-07,-2.0642937670345418e-05,6.168493564473465e-05
-1.1956685739278328e-05,4.6293633204186335e-05,-3.7440388496179366e-06,-1.8838092728401534e-05,6.44459796603769e-05
-1.2563351447170135e-05,4.8555124521953985e-05,-5.388139015849447e-06,-1.5307947251130827e-05,6.900925654917955e-05
-1.0117250894836616e-05,5.2826839237241074e-05,-5.7251081670983694e-06,-1.5030428585305344e-05,6.803886935813352e-05
-3.5477471556077944e-06,6.016741463099606e-05,-3.3571534459042596e-06,-1.749489820213057e-05,6.437495176214725e-05
-6.343105951600592e-07,6.514193955808878e-05,1.613800009181432e-06,-2.071932249236852e-05,6.230363942449912e-05
-6.734684120601742e-06,6.36336044408381e-05,2.052223180726287e-06,-2.4596731236670166e-05,5.8614892623154446e-05
-1.9634888303698972e-05,5.3463318181457e-05,-1.1217130122531671e-06,-2.673128437891137e-05,5.523657819139771e-05
-3.4171978768426925e-05,4.0860220906324685e-05,7.747635777377582e-07,-2.432951077935286e-05,5.488453825819306e-05
-4.7259793063858524e-05,3.268833825131878e-05,4.685926796810236e-06,-1.8021593859884888e-05,5.814460018882528e-05
-5.325958409230225e-05,3.0304798201541416e-05,2.7043140562454937e-06,-1.4658157851954456e-05,6.22569423285313e-05
-4.898665429209359e-05,3.131048288196325e-05,-1.7715126432449324e-06,-1.442079883418046e-05,6.408591434592381e-05
-3.981322151958011e-05,3.084387935814448e-05,-1.008763774734689e-06,-1.3031456546741538e-05,6.491973181255162e-05
-3.234141695429571e-05,2.8363196179270744e-05,4.1114094528893474e-06,-1.073013754648855e-05,6.674452015431598e-05
-3.092410770477727e-05,2.6428828277857974e-05,8.259167771029752e-06,-1.1491265468066558e-05,6.826514436397702e-05
-3.114623177680187e-05,2.6665662517189048e-05,9.444849638384767e-06,-1.3624695384351071e-05,6.778114038752392e-05
-2.6911660825135186e-05,2.7426893211668357e-05,9.720773959998041e-06,-1.0866758202610072e-05,6.587003008462489e-05
-2.2808098947280087e-05,2.6690000595408492e-05,1.2727750799967907e-05,-4.278756023268215e-06,6.412259244825691e-05
-2.138089621439576e-05,2.6758998501463793e-05,1.374415478494484e-05,-1.0112714790011523e-06,6.241504161152989e-05
-1.623456773813814e-05,2.81108841591049e-05,6.9369411903608125e-06,-1.997741037484957e-06,5.88972179684788e-05
-1.0142867722606752e-05,2.636978570080828e-05,-1.3689266324945493e-06,-5.235540356807178e-06,5.817847704747692e-05
-9.28694225876825e-06,2.5702389393700287e-05,-6.659991413471289e-06,-7.4015738391608465e-06,5.978155240882188e-05
-1.1599678146012593e-05,2.864227099053096e-05,-1.2017791050311644e-05,-6.049801413610112e-06,5.804389365948737e-05
-9.691651939647272e-06,2.563061389082577e-05,-1.338757010671543e-05,-1.3633848539029714e-06,5.685630094376393e-05
9.421237336937338e-07,1.958105895027984e-05,-8.537119356333278e-06,2.173072289224365e-06,5.7535304222255945e-05
1.0393601769465022e-05,2.2410124074667692e-05,-2.9453558454406448e-06,1.9422784589551156e-06,6.033786485204473e-05
1.4518148418574128e-05,2.526739626773633e-05,-1.5235127648338675e-06,-3.751556221232022e-07,6.159994518384337e-05
1.2245883226569276e-05,1.678431362961419e-05,6.966504315641942e-07,-2.544548124205903e-06,5.761893407907337e-05
7.517884341723402e-07,4.823556537303375e-06,6.292968464549631e-06,-3.6479368645814247e-06,5.483042696141638e-05
-1.3774664694210514e-05,-7.867636782066256e-07,1.262962268810952e-05,-4.8110705392900854e-06,5.314048394211568e-05
-2.2155996703077108e-05,8.136204996844754e-06,1.8122744222637266e-05,-8.430726666119881e-06,5.3346739150583744e-05
-2.2536978576681577e-05,2.6152414648095146e-05,2.2448231902671978e-05,-1.2867838449892588e-05,5.440811219159514e-05
-2.1160214600968175e-05,3.3482192520750687e-05,2.707598832785152e-05,-1.6363757822546177e-05,5.4142161388881505e-05
-2.1931920855422504e-05,2.7444431907497346e-05,2.942444189102389e-05,-1.5782641639816575e-05,5.170872464077547e-05
-2.5478360839770176e-05,1.4994931007095147e-05,3.070445018238388e-05,-1.2475123185140546e-05,5.340609641280025e-05
-2.6664485631044954e-05,5.349775165086612e-06,2.8056279916199856e-05,-1.1133945918118116e-05,6.045526606612839e-05
-2.6813300792127848e-05,4.3071972868347075e-06,2.2345893739839084e-05,-1.1821121916000266e-05,6.621918873861432e-05
-2.799540015985258e-05,8.431140486209188e-06,1.398312633682508e-05,-1.5346395230153576e-05,6.81459714542143e-05
-2.739676165219862e-05,1.5926756532280706e-05,5.9536992011999246e-06,-1.83740758075146e-05,6.746160215698183e-05
-2.6181243811151944e-05,2.5684854335850105e-05,2.8041911264153896e-06,-1.7014966942952015e-05,6.49560970487073e-05
-2.8651727916439995e-05,2.8992377337999642e-05,4.18629724663333e-06,-1.2123619853809942e-05,6.29952410236001e-05
-3.413698868826032e-05,2.4544930056435987e-05,7.225251465570182e-06,-7.727836418780498e-06,6.472467794083059e-05
-3.603327422752045e-05,2.3067692382028326e-05,1.0496974027773831e-05,-9.089951163332444e-06,6.689491419820115e-05
-3.336236841278151e-05,2.6696927307057194e-05,1.5129070561670233e-05,-1.6352592865587212e-05,6.536675937240943e-05
-3.294326597824693e-05,2.9752451155218296e-05,2.031546137004625e-05,-2.1919322534813546e-05,6.206685065990314e-05
-3.63794133591e-05,3.179828490829095e-05,1.8716100385063328e-05,-2.1785497665405273e-05,6.144963845144957e-05
-4.185393845546059e-05,3.329800165374763e-05,1.0056243809231091e-05,-1.9325781977386214e-05,5.99082195549272e-05
-4.8386053094873205e-05,3.01986001431942e-05,3.14770500153827e-06,-1.945568510564044e-05,5.802833766210824e-05
-5.201460589887574e-05,2.7325741029926576e-05,-3.8949011127442645e-07,-1.8135557183995843e-05,5.7356588513357565e-05
-4.877984611084685e-05,2.8540162020362914e-05,4.399595070481155e-07,-1.4990252566349227e-05,5.9591824538074434e-05
-3.9552378439111635e-05,3.102777918684296e-05,1.499660697845684e-06,-1.2085312846465968e-05,6.238315836526453e-05
-3.2380750781157985e-05,3.4826400224119425e-05,2.9725606509600766e-06,-7.445501523761777e-06,6.191914872033522e-05
-3.203784945071675e-05,3.6161512980470434e-05,3.07056666315475e-06,-3.670135583888623e-06,6.0807309637311846e-05
-3.935095082852058e-05,3.3564741897862405e-05,1.9079911908193026e-06,-3.2267164442600915e-06,6.182522338349372e-05
-5.0051603466272354e-05,2.9318978704395704e-05,1.080491074390011e-06,-2.700860704862862e-06,5.9177247749175876e-05
-5.18027190992143e-05,2.7074453100794926e-05,7.646410153938632e-07,-3.3884775803016964e-06,5.636714195134118e-05
-3.457375350990333e-05,3.0003497158759274e-05,1.353625066258246e-06,-6.191444299474824e-06,5.829878500662744e-05
-1.3615544958156534e-05,3.9896527596283704e-05,3.7680240438930923e-06,-6.44716237729881e-06,5.870576205779798e-05
-6.687209861411247e-06,5.125044481246732e-05,5.6856597439036705e-06,-5.111014161229832e-06,5.898550807614811e-05
-1.1824265129689593e-05,5.3532221500063315e-05,3.969477802456822e-06,-4.256000920577208e-06,5.9694633819162846e-05
-1.4921259207767434e-05,5.112356666359119e-05,4.886671831627609e-07,-4.44715260528028e-06,6.069458686397411e-05
-5.767695711256238e-06,5.1365535910008475e-05,-1.2461231335691991e-06,-4.122105565329548e-06,6.237960769794881e-05
9.074483386939391e-06,5.4595613619312644e-05,9.202038881994667e-07,-4.743319550470915e-06,6.365027365973219e-05
1.4508967979054432e-05,5.352350854082033e-05,3.5069597288384102e-06,-7.443725280609215e-06,6.392778595909476e-05
7.699178240727633e-06,4.9963651690632105e-05,2.6979344056599075e-06,-1.138178413384594e-05,6.442119047278538e-05
-3.991384346591076e-06,4.477215406950563e-05,1.0069138625112828e-06,-1.2441230865078978e-05,6.271588790696114e-05
-1.4269437087932602e-05,3.8912417949177325e-05,2.0364382180559915e-06,-9.71961890172679e-06,5.9317662817193195e-05
-2.1797932276967913e-05,3.447668859735131e-05,3.8419557313318364e-06,-7.566550721094245e-06,5.944027361692861e-05
-2.735962152655702e-05,3.0770002922508866e-05,3.2507668947800994e-06,-7.326767445192672e-06,6.176585156936198e-05
-2.740996569627896e-05,2.895928264479153e-05,3.0662408789794426e-07,-6.353185199259315e-06,6.164955266285688e-05
-2.5378978534718044e-05,2.885735739255324e-05,1.5455681179332714e-08,-6.298006610450102e-06,5.809779031551443e-05
-2.6051488021039404e-05,3.0626844818471e-05,4.164560323260957e-06,-9.8320715551381e-06,5.618559225695208e-05
-2.8937438401044346e-05,3.681159796542488e-05,9.792947821551934e-06,-9.878190212475602e-06,5.857457290403545e-05
-3.134167491225526e-05,4.692201400757767e-05,1.2090584277757443e-05,-6.154115908429958e-06,5.86093810852617e-05
-3.3845855796243995e-05,5.3511506848735735e-05,9.063056495506316e-06,-4.3314134927641135e-06,5.317879913491197e-05
-4.065968460054137e-05,5.9203779528615996e-05,5.536737262445968e-06,-5.970223810436437e-06,5.0820643082261086e-05
-4.925109169562347e-05,6.677854980807751e-05,4.335784069553483e-06,-1.091904141503619e-05,5.3171836043475196e-05
-5.286319355946034e-05,6.807740282965824e-05,5.328381575964158e-06,-1.496229106123792e-05,5.3551324526779354e-05
-5.347585101844743e-05,5.260422040009871e-05,9.469486940361094e-06,-2.039322498603724e-05,4.834609353565611e-05
-5.246595901553519e-05,2.2524916857946664e-05,1.3838352970196865e-05,-2.677011798368767e-05,4.6541885240003467e-05
-5.1786752010229975e-05,-2.4161340661521535e-06,1.3698933798877988e-05,-2.6531677576713264e-05,4.9796504754340276e-05
-5.1676699513336644e-05,-8.602755769970827e-06,1.192095714941388e-05,-2.545279494370334e-05,5.152575977263041e-05
-4.755086047225632e-05,-1.5120081116037909e-05,1.2810058251488954e-05,-2.4903374651330523e-05,5.443392365123145e-05
-4.0133796574082226e-05,-3.7626767152687535e-05,1.1459590496087912e-05,-2.1043806555098854e-05,5.748661351390183e-05
-3.496868521324359e-05,-5.9671969211194664e-05,6.5784574871941e-06,-2.0510975446086377e-05,6.0132686485303566e-05
-2.7262633011559956e-05,-6.0600461438298225e-05,1.8590869785839459e-06,-2.3732849513180554e-05,5.951113780611195e-05
-1.837002855609171e-05,-4.7951089072739705e-05,-4.918323384117684e-07,-2.342034895264078e-05,5.658772715833038e-05
-1.4284783901530318e-05,-3.3784348488552496e-05,-5.316154783940874e-06,-1.894805427582469e-05,5.4221269238041714e-05
-1.3901589227316435e-05,-1.805556530598551e-05,-7.606341569044162e-06,-1.6150046576512977e-05,5.4763670050306246e-05
-1.3843353372067213e-05,3.8871479546287446e-07,-4.406253083288902e-06,-1.9774137399508618e-05,5.73722536501009e-05
-1.060033628164092e-05,1.7465054042986594e-05,1.335743718300364e-06,-2.430770473438315e-05,5.8498349972069263e-05
-8.423257895628922e-06,3.0898558179615065e-05,5.208300535741728e-06,-2.4305916667799465e-05,6.030278746038675e-05
-9.489167496212758e-06,3.92979163734708e-05,5.906405021960381e-06,-2.216922257503029e-05,6.313044286798686e-05
-1.0263293006573804e-05,4.2236122681060806e-05,6.7055175350105856e-06,-2.2419722881750204e-05,6.583904178114608e-05
-8.468316082144156e-06,4.002741479780525e-05,6.721708359691547e-06,-2.466055411787238e-05,6.609378033317626e-05
-7.978532266861293e-06,3.617602851591073e-05,6.389956524799345e-06,-2.3305114154936746e-05,6.293397746048868e-05
-1.2355381841189228e-05,3.8745383790228516e-05,6.32794899502187e-06,-1.7080785255529918e-05,5.991611396893859e-05
-1.9362534658284858e-05,4.3649830331560224e-05,7.5740272222901694e-06,-1.1825579349533655e-05,5.9206158766755834e-05
-2.4460259737679735e-05,4.254289888194762e-05,7.765506779833231e-06,-1.432262342859758e-05,6.0423659306252375e-05
-2.773348751361482e-05,3.668762292363681e-05,6.807655609009089e-06,-1.9571914890548214e-05,6.171772110974416e-05
-2.921236227848567e-05,3.145236041746102e-05,5.454158781503793e-06,-1.8080903828376904e-05,5.817992860102095e-05
-3.0187175070750527e-05,2.9522574550355785e-05,7.338445357163437e-06,-1.3262287211546209e-05,5.2655177569249645e-05
-3.474382174317725e-05,3.43137035088148e-05,9.328065061708912e-06,-9.045726983458735e-06,4.800216629519127e-05
-4.154465568717569e-05,4.026900205644779e-05,1.1304719919280615e-05,-7.357639333349653e-06,4.471910870051943e-05
-4.201004048809409e-05,3.9990856748772785e-05,1.4308428035292309e-05,-6.15570706941071e-06,4.3965344957541674e-05
-3.871529770549387e-05,3.871113221975975e-05,1.3399454473983496e-05,-7.371617130047525e-07,4.656777673517354e-05
-3.795851080212742e-05,4.0520662878407165e-05,1.089284251065692e-05,5.654709980262851e-07,5.1511753554223105e-05
-3.501277387840673e-05,4.303459354559891e-05,1.149924810306402e-05,-1.4833514114798163e-06,5.521570346900262e-05
-2.850007513188757e-05,4.4186715967953205e-05,1.3673547982762102e-05,-1.1828668675661902e-06,5.512268398888409e-05
-2.8078266041120514e-05,4.5723136281594634e-05,1.2000836250081193e-05,-2.013621980267999e-07,5.3265510359779e-05
-3.748292147065513e-05,5.0798338634194806e-05,8.167889973265119e-06,4.942904183735664e-07,5.1923223509220406e-05
-4.469542909646407e-05,5.567887637880631e-05,4.0451213862979785e-06,9.180999427371717e-07,5.320823402144015e-05
-4.0165781683754176e-05,6.0223203036002815e-05,1.178646698463126e-06,7.995268447302806e-07,5.747142859036103e-05
-2.3781009076628834e-05,6.265012780204415e-05,1.6000440155039541e-06,3.2724833545216825e-06,5.871601388207637e-05
-2.001775328608346e-06,5.968659388599917e-05,-3.5366326756047783e-07,5.249096375337103e-06,5.6850549299269915e-05
7.870490662753582e-06,4.7970879677450284e-05,-4.597564839059487e-06,1.2402748552631238e-06,5.4910753533476964e-05
2.881143473132397e-06,3.448972711339593e-05,-8.16211922938237e-06,-3.3893800264195306e-06,5.768355185864493e-05
-3.338354190418613e-06,2.868092997232452e-05,-7.5946745710098185e-06,-4.7547273425152525e-06,6.252840830711648e-05
-6.681082595605403e-06,3.079743328271434e-05,-6.192912223923486e-06,-4.926836481899954e-06,6.641115760430694e-05
-7.922071745269932e-06,3.489351365715265e-05,-6.388523161149351e-06,-6.8293543336039875e-06,6.83460893924348e-05
-8.951340532803442e-06,3.347967140143737e-05,-4.442243607627461e-06,-1.0126243068953045e-05,6.712191679980606e-05
-1.177085596282268e-05,1.86267225217307e-05,6.010652668919647e-07,-1.2778309610439464e-05,6.554146239068359e-05
-1.657232132856734e-05,-2.1824998839292675e-06,4.5287515604286455e-06,-1.188040550914593e-05,6.570394180016592e-05
-2.0147583200014196e-05,-7.4235231295460835e-06,3.275776407463127e-06,-9.549267815600615e-06,6.601549102924764e-05
-2.424526792310644e-05,5.106443950353423e-06,1.2843416925534257e-06,-7.298323907889426e-06,6.451542139984667e-05
-2.728001527430024e-05,1.985676135518588e-05,4.779260507348226e-06,-6.37159928373876e-06,6.363239663187414e-05
-2.725108788581565e-05,2.7613026759354398e-05,1.1444010851846542e-05,-7.015255960141076e-06,6.498898437712342e-05
-3.111053956672549e-05,2.9341885237954557e-05,1.239195898961043e-05,-7.5292714427632745e-06,6.91743116476573e-05
-4.048391565447673e-05,3.269064472988248e-05,7.651959094800986e-06,-5.978486115054693e-06,7.106538396328688e-05
-4.8890764446696267e-05,4.2784417018992826e-05,1.7442068838136038e-06,-5.058853730588453e-06,6.774736539227888e-05
-4.8729361878940836e-05,5.0418704631738365e-05,-5.420657771537662e-07,-7.775687663524877e-06,6.618153565796092e-05
-3.927809666492976e-05,4.873905345448293e-05,4.8297833927790634e-06,-1.017460544971982e-05,6.546625081682578e-05
-2.7358131774235517e-05,3.8194611988728866e-05,1.047381738317199e-05,-1.490584145358298e-05,6.340118852676824e-05
-1.834430622693617e-05,3.3425541914766654e-05,6.4825294430193026e-06,-1.8390823242953047e-05,6.182355718920007e-05
-1.0384559573139995e-05,3.887775892508216e-05,2.0277457224437967e-06,-1.7880813174997456e-05,6.011657023918815e-05
-6.010907782183494e-06,4.29412248195149e-05,3.2097830171551323e-06,-1.4193908100423869e-05,6.220091017894447e-05
-8.258031812147237e-06,3.98218871850986e-05,3.8788803067291155e-06,-1.2431528375600465e-05,6.517559086205438e-05
-1.7449276128900237e-05,3.3349097066093236e-05,2.602730774015072e-06,-1.3778672837361228e-05,6.423582817660645e-05
-3.132607525913045e-05,3.066073986701667e-05,3.2701395866752136e-06,-1.3796966413792688e-05,5.9644698922056705e-05
-4.5095708628650755e-05,2.7693586162058637e-05,3.973004822910298e-06,-1.4910046047589276e-05,5.6644239521119744e-05
-5.6330987717956305e-05,2.327786569367163e-05,5.802735813631443e-06,-1.3408716768026352e-05,5.447665898827836e-05
-5.980924834148027e-05,2.4002289137570187e-05,9.71104691416258e-06,-1.0638798812578898e-05,5.3225649025989696e-05
-6.042019958840683e-05,2.5366109184687957e-05,1.2134706594224554e-05,-9.539370694255922e-06,5.4954296501819044e-05
-6.271842721616849e-05,2.6014706236310303e-05,1.024163248075638e-05,-1.0446764463267755e-05,5.600996155408211e-05
-6.024712638463825e-05,2.6392119252705015e-05,4.427509338711388e-06,-1.1401270057831425e-05,5.5152300774352625e-05
-5.250353933661245e-05,2.3913909899420105e-05,-7.184676178439986e-07,-1.1737459317373578e-05,5.4293908760882914e-05
-4.885744783678092e-05,2.0390963982208632e-05,-3.880377789755585e-06,-1.2738400073430967e-05,5.365341712604277e-05
-5.0230082706548274e-05,2.0115845472901128e-05,-4.978584001946729e-06,-1.4543569704983383e-05,5.1786653784802184e-05
-5.117234104545787e-05,2.2729960619471967e-05,-4.265274583303835e-06,-1.4421873856917955e-05,5.136995605425909e-05
-4.985267878510058e-05,2.6445099138072692e-05,1.4277884474722669e-07,-1.1215885933779646e-05,5.156942643225193e-05
-4.16466427850537e-05,3.201032450306229e-05,7.245985216286499e-06,-8.715036528883502e-06,5.277070158626884e-05
-2.9415306926239282e-05,3.3882355637615547e-05,1.1416907909733709e-05,-1.0607835065457039e-05,5.493606659001671e-05
-2.2471385818789713e-05,2.7843163479701616e-05,1.302254713664297e-05,-1.696794424788095e-05,5.607676939689554e-05
-2.4169681637431495e-05,2.0950858015567064e-05,1.3257792488730047e-05,-2.2107373297330923e-05,5.643451731884852e-05
-3.093895429628901e-05,2.0816351025132462e-05,1.058545421983581e-05,-2.1251988073345274e-05,5.8388006436871365e-05
-3.4765769669320434e-05,2.4049240892054513e-05,9.866018444881774e-06,-1.5865731256781146e-05,6.074135308153927e-05
-3.435583857935853e-05,3.0161232643877156e-05,7.362568339885911e-06,-9.64105947787175e-06,5.936361412750557e-05
-2.8271879273233935e-05,4.3017062125727534e-05,2.603221901154029e-06,-3.700743263834738e-06,5.592395245912485e-05
-2.28458611672977e-05,5.00964124512393e-05,3.0696767225890653e-06,3.690194887440157e-07,5.58643696422223e-05
-2.341975960007403e-05,4.7042060032254085e-05,5.035356480220798e-06,1.7895067685458343e-06,5.565846004174091e-05
-2.4067254344117828e-05,4.9439462600275874e-05,3.3795633953559445e-06,-2.560684151831083e-06,5.12899350724183e-05
-2.720312295423355e-05,5.492765558301471e-05,1.3041828594850813e-07,-4.647238711186219e-06,4.503809759626165e-05
-3.04086697724415e-05,4.704413368017413e-05,-3.546305379131809e-06,2.867436990072747e-07,4.229119076626375e-05
-3.0256611353252083e-05,2.066917841148097e-05,-6.082309937482933e-06,3.897220892667974e-07,4.468832048587501e-05
-3.154623118462041e-05,-4.9832151489681564e-06,-7.738183740002569e-06,-5.850781235494651e-06,4.9624570237938315e-05
-3.7642101233359426e-05,-1.4354386621562298e-05,-9.02172632777365e-06,-9.739392226038035e-06,5.3061306971358135e-05
-3.673724131658673e-05,-1.0193018169957213e-05,-8.530379091098439e-06,-1.080552647181321e-05,5.107951437821612e-05
-2.852587931556627e-05,-3.8717707866453566e-06,-6.422515070880763e-06,-1.3157471585145686e-05,4.7954741603462026e-05
-1.7967779058380984e-05,-2.566049943197868e-06,-1.4071072200749768e-06,-1.587054066476412e-05,4.7900764911901206e-05
-1.1946276572416537e-05,-6.34875550531433e-06,5.944580152572598e-06,-1.588131817698013e-05,5.477108061313629e-05
-1.4293224921857473e-05,-6.746121471223887e-06,1.4314884538180195e-05,-1.2172376955277286e-05,6.362848216667771e-05
-1.9921646526199766e-05,3.0762234928261023e-06,1.6040152331697755e-05,-7.921668839117046e-06,6.938758451724425e-05
-2.2973214072408155e-05,1.9403383703320287e-05,1.1369812455086503e-05,-8.631486707599834e-06,7.182816625572741e-05
-1.9067143512074836e-05,3.6265962990000844e-05,7.609833119204268e-06,-1.1783300578827038e-05,6.965326610952616e-05
-1.314020664722193e-05,4.9590871640248224e-05,7.2570701377117075e-06,-1.078434524970362e-05,6.409510388039052e-05
-1.1929025276913308e-05,5.6945802498376e-05,9.620569471735507e-06,-8.034673555812333e-06,6.080325329094194e-05
-1.738916034810245e-05,5.570906796492636e-05,1.1882452781719621e-05,-8.074753168330062e-06,6.308078445727006e-05
-2.372444942011498e-05,4.811514736502431e-05,1.3648196727444883e-05,-9.065473932423629e-06,6.67907006572932e-05
-2.799908907036297e-05,4.37243033957202e-05,1.653783692745492e-05,-9.061471246241126e-06,6.65975094307214e-05
-2.7173553462489508e-05,4.4971457100473344e-05,2.203301846748218e-05,-9.513518307358027e-06,6.298975495155901e-05
-2.111972207785584e-05,4.252248618286103e-05,2.7076141122961417e-05,-1.0220794138149358e-05,6.0975955420872197e-05
-1.2485214938351419e-05,3.517200093483552e-05,3.0558188882423565e-05,-7.248439942486584e-06,6.161780038382858e-05
-8.57764644024428e-06,2.8578622732311487e-05,3.268241562182084e-05,-4.046928552270401e-06,6.337102240649983e-05
-9.371238775202073e-06,2.3344653527601622e-05,2.790446706057992e-05,-6.639993443968706e-06,6.338342791423202e-05
-1.0315889994672034e-05,1.6165289707714692e-05,2.05661854124628e-05,-8.901221917767543e-06,6.21200306341052e-05
-5.181804226594977e-06,7.016842573648319e-06,1.8527745851315558e-05,-7.0172277446545195e-06,6.0842561651952565e-05
-1.945817302839714e-06,6.65746301820036e-06,1.7549842596054077e-05,-4.449120751814917e-06,6.0405473050195724e-05
-1.0707137334975414e-05,1.3032118658884428e-05,1.377954595227493e-05,-7.605686278111534e-06,6.0995535022811964e-05
-1.9546896510291845e-05,1.2969045201316476e-05,1.2141525985498447e-05,-1.3699671399081126e-05,6.195634341565892e-05
-2.1673888113582507e-05,1.4193022252584342e-05,1.0912345715041738e-05,-1.2574114407470915e-05,6.292177567956969e-05
-1.8859833289752714e-05,1.4272862244979478e-05,4.491714662435697e-06,-8.657170837977901e-06,6.291604222496971e-05
-1.467424226575531e-05,1.1871651622641366e-05,-1.8833940202966915e-06,-1.2530843378044665e-05,6.177128670969978e-05
-1.2385458830976859e-05,1.4110572919889819e-05,-3.5330522223375738e-06,-1.7560600099386647e-05,6.183741061249748e-05
-1.3574733202403877e-05,1.846859413490165e-05,-1.4770274674447137e-06,-1.3663103345606942e-05,6.345969450194389e-05
-1.9444227291387506e-05,1.4752356946701184e-05,-2.3189902549347607e-06,-9.169376426143572e-06,6.314765778370202e-05
-2.5740053388290107e-05,5.894919013371691e-06,-6.681730610580416e-06,-9.66785864875419e-06,6.022992238285951e-05
-2.990340544783976e-05,3.5945022318628617e-06,-1.0296811524312943e-05,-9.647679689805955e-06,5.780447827419266e-05
-3.225745240342803e-05,1.1925690159841906e-05,-7.247472240123898e-06,-8.208253348129801e-06,5.774431338068098e-05
-3.1164301617536694e-05,2.5303528673248366e-05,-1.5980008356564213e-06,-9.762163244886324e-06,5.827191489515826e-05
-2.6032526875496842e-05,3.5456367186270654e-05,3.3574351618881337e-06,-1.5129142411751673e-05,5.657264409819618e-05
-2.0727367882500403e-05,3.919397568097338e-05,8.605443326814566e-06,-1.9654004063340835e-05,5.3503288654610515e-05
-1.7796615793486126e-05,3.824211307801306e-05,1.4186076441546902e-05,-1.8670370991458185e-05,5.172380042495206e-05
-1.896248068078421e-05,3.807682151091285e-05,2.0862686142208986e-05,-1.0793200999614783e-05,5.108633195050061e-05
-2.350513204874005e-05,4.355947385192849e-05,2.635923374327831e-05,-2.824907824106049e-06,5.063707794761285e-05
-2.4322142053279094e-05,5.596483242698014e-05,2.8246942747500725e-05,-9.772109876848845e-08,5.240482641966082e-05
-1.808130764402449e-05,6.212967855390161e-05,2.5152996386168525e-05,-1.9896033336408436e-06,5.4345167882274836e-05
-1.0048063813883346e-05,5.45140756003093e-05,1.9417597286519594e-05,-4.9722843868948985e-06,5.3639774705516174e-05
-4.796936991624534e-06,4.099273792235181e-05,1.2884728675999213e-05,-4.07531160817598e-06,5.466642323881388e-05
-5.520357262867037e-06,2.9726874345215037e-05,9.905879778671078e-06,-1.7770187241694657e-06,5.8067274949280545e-05
-1.227765460498631e-05,1.675597195571754e-05,7.045952315820614e-06,-2.575530515969149e-06,5.960979251540266e-05
-1.6920195776037872e-05,-2.747437690686638e-07,2.6007544420281192e-06,-6.942193522263551e-06,6.058354483684525e-05
-2.007971124839969e-05,-7.569601621071342e-06,2.0170548395981314e-06,-1.0425304935779423e-05,6.355549703584984e-05
-2.6744801289169118e-05,4.307825292926282e-06,5.135175797477132e-06,-6.965828106331173e-06,6.428776396205649e-05
-3.623240263550542e-05,2.614080767671112e-05,5.568296273850137e-06,-4.150280346948421e-06,6.081773608457297e-05
-5.106767639517784e-05,4.6253961045295e-05,3.5493271752784494e-06,-4.547210210148478e-06,5.9538473578868434e-05
-6.24372623860836e-05,5.6223296269308776e-05,3.794868234763271e-06,-2.082229002553504e-06,6.208735430845991e-05
-6.374753138516098e-05,6.178728654049337e-05,4.690355126513168e-06,1.5308822867154959e-06,6.58627541270107e-05
-6.308300362434238e-05,6.694955663988367e-05,1.4532085970131448e-06,6.26799555902835e-06,6.858532287878916e-05
-5.794866956421174e-05,7.257073593791574e-05,-4.181064014119329e-06,5.957974281045608e-06,6.779027171432972e-05
-5.2375224186107516e-05,7.491286669392139e-05,-8.572551450924948e-06,4.419892434270878e-07,6.610817217733711e-05
-4.990087472833693e-05,7.338125578826293e-05,-1.004575278784614e-05,-5.280646746541606e-06,6.21733779553324e-05
-5.33739548700396e-05,7.191081385826692e-05,-8.99676433618879e-06,-1.0847144949366339e-05,5.76053025724832e-05
-5.998340202495456e-05,7.15970090823248e-05,-7.989921869011596e-06,-1.5288589565898292e-05,5.872083784197457e-05
-6.026308983564377e-05,7.071188883855939e-05,-7.715009815001395e-06,-1.8312652173335664e-05,6.49068460916169e-05
-4.792992695001885e-05,6.485568155767396e-05,-9.768360541784205e-06,-1.8755901692202315e-05,6.95500202709809e-05
-2.722006684052758e-05,5.734112346544862e-05,-1.4829966858087573e-05,-1.6249668988166377e-05,6.875374674564227e-05
-4.071914190717507e-06,4.535103653324768e-05,-1.7964517610380426e-05,-1.1351074135745876e-05,6.780362309655175e-05
2.016450889641419e-05,2.3938657250255346e-05,-1.5455902030225843e-05,-7.891319000918884e-06,7.057048060232773e-05
3.7733017961727455e-05,-6.8396761889744084e-06,-1.2292675819480792e-05,-6.2650406107422896e-06,7.063406519591808e-05
4.2598810978233814e-05,-4.083913518115878e-05,-1.2340338798821904e-05,-5.099290774523979e-06,6.684587424388155e-05
3.6542798625305295e-05,-7.034518057480454e-05,-1.1641950550256297e-05,-5.622825028694933e-06,6.354499782901257e-05
3.0228306059143506e-05,-8.166927727870643e-05,-8.64558205648791e-06,-6.996837328188121e-06,6.117444718256593e-05
2.9251719752210192e-05,-6.618946645176038e-05,-4.180838004685938e-06,-7.014143193373457e-06,5.891891123610549e-05
2.9659266147064045e-05,-3.393526276340708e-05,1.687061171651294e-06,-6.913250672369031e-06,5.933704596827738e-05
2.5851069949567318e-05,-4.618252205546014e-06,5.222361778578488e-06,-7.541128979937639e-06,6.218062480911613e-05
1.8160031686420552e-05,9.842166036833078e-06,5.299141321302159e-06,-6.776509508199524e-06,6.242717063287273e-05
6.159355052659521e-06,1.2861618415627163e-05,6.06841149419779e-06,-5.3952198868501e-06,5.894916830584407e-05
-1.0850162652786821e-05,1.875278030638583e-05,7.704887138970662e-06,-9.119034984905738e-06,5.717558087781072e-05
-3.427152114454657e-05,3.123012720607221e-05,7.734751306998078e-06,-1.5565956346108578e-05,5.972628787276335e-05
-5.261615297058597e-05,4.149601227254607e-05,7.709587407589424e-06,-1.6895943190320395e-05,5.79048391955439e-05
-5.919234536122531e-05,4.667422399506904e-05,1.1176298357895575e-05,-1.7551374185131863e-05,5.2386698371265084e-05
-6.154825678095222e-05,4.920117135043256e-05,1.5276120393536985e-05,-1.7995793314184994e-05,5.173010504222475e-05
-5.947490717517212e-05,5.072358908364549e-05,1.4122917491476983e-05,-1.6558033166802488e-05,5.4151329095475376e-05
-5.631389649352059e-05,5.217178841121495e-05,9.749364835442975e-06,-1.6707315808162093e-05,5.364380922401324e-05
-5.369039354263805e-05,4.775017805513926e-05,5.730623797717271e-06,-1.168036487797508e-05,5.374716056394391e-05
-5.237148070591502e-05,3.74743904103525e-05,6.853998456790578e-06,-7.249751433846541e-06,5.935149238212034e-05
-5.118711487739347e-05,3.578407267923467e-05,6.85091663399362e-06,-1.2727318789984565e-05,6.451912486227229e-05
-4.4320600864011794e-05,4.311088196118362e-05,4.024489044240909e-06,-1.8544576960266568e-05,6.367629248416051e-05
-3.723847839864902e-05,4.409224129631184e-05,4.086265562364133e-06,-1.676175816101022e-05,5.7847679272526875e-05
-3.2879284844966605e-05,3.816525713773444e-05,4.305742095311871e-06,-1.0701949577196501e-05,5.0612594350241125e-05
-3.336746522109024e-05,3.413844751776196e-05,4.049410108564189e-06,-8.060569598455913e-06,4.872756471741013e-05
-3.667673809104599e-05,3.558262687874958e-05,4.150684617343359e-06,-8.880280802259222e-06,5.24504212080501e-05
-3.795538577833213e-05,4.138217627769336e-05,4.434840320755029e-06,-1.187489033327438e-05,5.527228131541051e-05
-3.9967340853763744e-05,4.805174103239551e-05,5.77200080442708e-06,-1.5385177903226577e-05,5.413599137682468e-05
-4.695945972343907e-05,5.259756653686054e-05,1.2347919437161181e-05,-1.5917199561954476e-05,5.098872497910634e-05
-4.7973942855605856e-05,5.2707215218106285e-05,2.0853211026405916e-05,-1.1935937436646782e-05,4.743930549011566e-05
-3.098848173976876e-05,5.048040111432783e-05,2.5372088202857412e-05,-9.006073014461435e-06,4.78159126942046e-05
-8.695189535501413e-06,4.6801749704172835e-05,2.5121318685705774e-05,-9.879447134153452e-06,5.2911600505467504e-05
-2.1559976630669553e-06,4.400076068122871e-05,2.214941196143627e-05,-1.0078932064061519e-05,5.8021192671731114e-05
-8.10300753073534e-06,4.296252882340923e-05,1.6974456229945645e-05,-7.017459211056121e-06,5.859063094248995e-05
-1.0491891771380324e-05,4.061993240611628e-05,1.0735743671830278e-05,-3.83990027330583e-06,5.69549338251818e-05
-9.289771696785465e-06,3.731610922841355e-05,5.880391654500272e-06,-4.159029685979476e-06,5.5286986025748774e-05
-1.1271647053945344e-05,3.562780693755485e-05,3.740216243386385e-06,-8.349293239007238e-06,5.216127465246245e-05
-1.8170456314692274e-05,2.915862569352612e-05,2.4054152163444087e-06,-9.761994988366496e-06,5.1093626098008826e-05
-2.169554318243172e-05,2.2639442249783315e-05,1.6402061646658694e-06,-6.923963155713864e-06,5.5154388974187896e-05
-2.1128595108166337e-05,2.374523137405049e-05,4.9562149797566235e-06,-6.414970357582206e-06,5.950407648924738e-05
-2.3037020582705736e-05,2.5160306904581375e-05,9.466471055930015e-06,-9.160326953860931e-06,5.966102980892174e-05
-2.504009535186924e-05,2.3467840946977958e-05,1.4274405657488387e-05,-1.1365643331373576e-05,5.896796574234031e-05
-2.771854451566469e-05,1.6823529222165234e-05,1.491226976213511e-05,-7.250412181747379e-06,6.133066199254245e-05
-2.7488205887493677e-05,1.3564948858402204e-05,1.5113303561520297e-05,-9.065804079000372e-06,6.315976497717202e-05
-1.7183519958052784e-05,1.918092675623484e-05,1.9038847312913276e-05,-1.5534307749476284e-05,6.343604763969779e-05
-1.1649704902083613e-05,2.7935671823797747e-05,1.7242986359633505e-05,-2.0431913071661256e-05,6.501915049739182e-05
-1.8919929061667062e-05,2.626372042868752e-05,1.4802754776610527e-05,-2.0339964976301417e-05,6.47541310172528e-05
-2.97715359920403e-05,2.050229704764206e-05,1.4281004951044451e-05,-1.7491807739133947e-05,6.356555240927264e-05
-3.414658203837462e-05,2.4670343918842264e-05,1.4221868696040474e-05,-1.6937961845542304e-05,5.870421591680497e-05
-3.453304088907316e-05,2.7280160793452524e-05,1.575042369950097e-05,-1.37503930091043e-05,5.581917139352299e-05
-3.325567377032712e-05,2.4110569938784465e-05,1.5676261682529002e-05,-1.2312448234297335e-05,5.713488280889578e-05
-3.196645775460638e-05,1.6184039850486442e-05,1.0917213330685627e-05,-1.3608582776214462e-05,6.247655983315781e-05
-3.2959254895104095e-05,9.85692076937994e-06,3.478540065771085e-06,-1.7664329789113253e-05,6.827930337749422e-05
-3.6295456084189937e-05,1.1499024367367383e-05,-4.267726581019815e-06,-1.7637972632655874e-05,7.175322389230132e-05
-3.9403934351867065e-05,2.239992500108201e-05,-1.2411665011313744e-05,-1.5216360225167591e-05,7.261773862410337e-05
-3.841293073492125e-05,3.0131433959468268e-05,-1.5376779629150406e-05,-1.774816155375447e-05,6.96046045050025e-05
-3.5686680348590016e-05,2.8854590709670447e-05,-1.1547559552127495e-05,-2.3498663722421043e-05,6.415517418645322e-05
-3.40914266416803e-05,2.8355419999570586e-05,-4.8996116674970835e-06,-2.4639663024572656e-05,6.026702612871304e-05
-3.074786945944652e-05,3.3409305615350604e-05,9.730623560244567e-07,-2.1683876184397377e-05,6.185982056194916e-05
-2.050740658887662e-05,3.946348442696035e-05,5.486984264280181e-06,-1.9583252651500516e-05,6.733984628226608e-05
-2.8198696782055777e-06,4.1734518163139e-05,7.89692876423942e-06,-2.0358893380034715e-05,7.347112841671333e-05
1.2783053534803912e-05,4.010526754427701e-05,1.0410101822344586e-05,-2.2049738618079573e-05,7.351417298195884e-05
6.492934062407585e-06,3.989009201177396e-05,1.2038784916512668e-05,-2.22347371163778e-05,6.814362859586254e-05
-2.0524594219750725e-05,4.4584739953279495e-05,1.3824203961121384e-05,-2.103951555909589e-05,6.234496686374769e-05
-5.029805834055878e-05,4.348464426584542e-05,1.4853170796413906e-05,-1.5813406207598746e-05,5.94883385929279e-05
-6.656762707279995e-05,4.620791878551245e-05,1.5268220522557385e-05,-1.2883363524451852e-05,5.832675378769636e-05
-6.640704668825492e-05,6.163353828014806e-05,1.4798475604038686e-05,-1.4198329154169187e-05,6.168134859763086e-05
-6.215333996806294e-05,7.530378934461623e-05,1.663120201556012e-05,-1.370736845274223e-05,6.964022031752393e-05
-5.775517274742015e-05,7.088588608894497e-05,2.1303307221387513e-05,-1.232493650604738e-05,7.266009924933314e-05
-5.427660289569758e-05,4.840749897994101e-05,1.965303636097815e-05,-1.3333389688341413e-05,7.149428711272776e-05
-5.110779602546245e-05,2.6558136596577242e-05,1.643484029045794e-05,-1.0014295185101219e-05,7.02714387443848e-05
-4.228182297083549e-05,1.570318272570148e-05,1.3212616977398284e-05,-3.98605152440723e-06,6.569787365151569e-05
-3.117975575150922e-05,5.490029707289068e-06,8.525083103450015e-06,-2.375442818447482e-06,6.265395495574921e-05
-1.6749483620515093e-05,-8.070734111242928e-06,2.4459545784338843e-06,-3.130974164378131e-06,5.919374234508723e-05
1.4351165873449645e-06,-1.1554673619684763e-05,-4.6532062469850644e-07,-4.25570988227264e-06,5.99037557549309e-05
1.6813368347357027e-05,-2.6188424726569792e-06,-3.1289373509935103e-06,-4.568094027490588e-06,6.31205111858435e-05
1.9853414414683357e-05,7.05157253833022e-06,-5.779458206234267e-06,-6.414526865228254e-07,6.36756158201024e-05
1.0190697139478289e-05,1.0969019967888016e-05,-5.511822109838249e-06,2.635604232636979e-06,6.194103480083868e-05
-6.808945272496203e-06,9.869178938970435e-06,-3.6449346225708723e-06,1.4600258282371215e-06,5.845899067935534e-05
-2.2238154997467063e-05,1.0475831004441716e-05,-3.5305305345900706e-07,-2.0147638224443654e-06,5.455764403450303e-05
-2.874611527658999e-05,1.41428299684776e-05,-2.840822022065481e-10,-6.049132025509607e-06,5.0662943976931274e-05
-2.6149849873036146e-05,1.6797386706457473e-05,-4.559474746201886e-06,-8.555448403058108e-06,4.9109399697044864e-05
-2.261655026813969e-05,1.623118259885814e-05,-1.040399911289569e-05,-8.940480256569572e-06,5.001862155040726e-05
-2.31370358960703e-05,1.6092255464172922e-05,-1.1522796739882324e-05,-5.303638772602426e-06,5.328523548087105e-05
-2.73714103968814e-05,1.8012200598604977e-05,-8.606793926446699e-06,-2.0976497694391583e-07,5.5210843129316345e-05
-3.2330390240531415e-05,1.899424933071714e-05,-5.713947757612914e-06,4.318026469718461e-07,5.3418025345308706e-05
-3.249994188081473e-05,1.7727265003486536e-05,-4.806246579391882e-06,-4.748302217194578e-06,4.948944479110651e-05
-2.773411870293785e-05,1.8464794266037643e-05,-3.181245801897603e-06,-7.528172318416182e-06,4.834074934478849e-05
-1.8638307665241882e-05,2.108911212417297e-05,-7.107806965223062e-08,-4.743402769236127e-06,4.9094262067228556e-05
-1.1610957699303981e-05,2.0874309484497644e-05,2.7386374767957022e-06,-2.733761448325822e-06,5.07700169691816e-05
-1.6254305592156015e-05,1.889158556878101e-05,1.1685698382279952e-06,-3.2149509934242815e-06,5.425600829767063e-05
-3.1180476071313024e-05,1.5249343050527386e-05,-4.408322638482787e-06,-4.511216957325814e-06,5.935289300396107e-05
-4.180346877546981e-05,1.45381409311085e-05,-8.619756044936366e-06,-6.510413186333608e-06,6.0503287386382e-05
-3.891588858095929e-05,2.2281534256762825e-05,-1.062744740920607e-05,-9.203595254803076e-06,5.752551442128606e-05
-2.211616993008647e-05,2.5477935196249746e-05,-8.960603736341e-06,-1.3931762623542454e-05,5.418450746219605e-05
-7.027118044788949e-06,2.4016062525333837e-05,-5.6218468671431765e-06,-1.7162406948045827e-05,5.163007153896615e-05
-4.713379439635901e-06,2.3808386686141603e-05,-7.425099738611607e-06,-1.6809208318591118e-05,4.837347296415828e-05
-7.48708089304273e-06,2.0816434698645025e-05,-3.3914554933289764e-06,-1.9434392015682533e-05,4.5416825741995126e-05
-1.1296806405880488e-05,1.9945480744354427e-05,8.187711500795558e-06,-1.972950303752441e-05,4.663014260586351e-05
-1.7744418073561974e-05,2.1436280803754926e-05,1.7762664356268942e-05,-1.2630554010684136e-05,5.0108868890674785e-05
-2.448149461997673e-05,2.1750096493633464e-05,2.273990867251996e-05,-6.859747372800484e-06,5.070124097983353e-05
-2.8447890144889243e-05,2.057903111563064e-05,2.323564694961533e-05,-7.66647372074658e-06,4.799053931492381e-05
-2.8084165023756213e-05,2.1524710973608308e-05,2.1054027456557378e-05,-1.2574031643453054e-05,4.452161738299765e-05
-2.953725925181061e-05,2.2282400095718913e-05,1.9203564079361968e-05,-1.89956135727698e-05,4.527315832092427e-05
-3.292744804639369e-05,2.6669969884096645e-05,1.5829411495360546e-05,-2.3953902200446464e-05,4.874025034951046e-05
-4.113799877814017e-05,3.210856084479019e-05,7.890520464570727e-06,-2.5835597625700757e-05,5.074054570286535e-05
-4.827836892218329e-05,3.6931440263288096e-05,3.569247837731382e-06,-2.489778671588283e-05,5.2566701924661174e-05
-4.405765139381401e-05,3.7430927477544174e-05,6.156896688480629e-06,-1.811417496355716e-05,5.486519148689695e-05
-3.515488424454816e-05,3.2109117455547675e-05,1.1291696864645928e-05,-1.1453968909336254e-05,5.617701754090376e-05
-2.9099855964886956e-05,2.0001036318717524e-05,1.3576600395026617e-05,-1.1662639735732228e-05,5.64328147447668e-05
-2.666868022060953e-05,6.946493158466183e-06,1.459153281757608e-05,-1.4614652172895148e-05,5.508554386324249e-05
-2.533559745643288e-05,2.593032832010067e-06,1.4980672858655453e-05,-1.340795643045567e-05,5.199037696002051e-05
-2.6095774956047535e-05,6.3998277255450375e-06,1.5535575585090555e-05,-7.64328160585137e-06,4.9806963943410665e-05
-2.9593407816719264e-05,1.2014961612294428e-05,1.3964493518869858e-05,-1.1333455631756806e-06,5.161284570931457e-05
-3.572443165467121e-05,1.5384370271931402e-05,7.783945875416975e-06,1.6856577076396206e-06,5.680325921275653e-05
-3.895884219673462e-05,1.539554250484798e-05,1.7530975355839473e-06,2.2358779006026452e-07,6.19489946984686e-05
-3.6106972402194515e-05,1.3109732208249625e-05,1.8135052641810034e-06,-1.6872008927748539e-06,6.536813452839851e-05
-3.397983164177276e-05,1.7782867871574126e-05,6.441520326916361e-06,-2.6107306894118665e-06,6.550861144205555e-05
-4.022227949462831e-05,2.7556201530387625e-05,9.891630725178402e-06,-3.946384367736755e-06,6.140769983176142e-05
-5.5049164075171575e-05,4.119295772397891e-05,7.650713087059557e-06,-6.812892024754547e-06,5.8538738812785596e-05
-7.193217606982216e-05,5.451748438645154e-05,2.7140388283442007e-06,-6.77697425999213e-06,5.9697249525925145e-05
-8.174735557986423e-05,5.801203951705247e-05,3.9159099287644494e-06,-4.479798917600419e-06,6.105894863139838e-05
-8.32381410873495e-05,5.258175951894373e-05,9.045237675309181e-06,-5.298961696098559e-07,6.518774898722768e-05
-7.076551264617592e-05,4.9694659537635744e-05,1.2196819625387434e-05,7.227494052131078e-07,7.068063860060647e-05
-4.6064782509347424e-05,5.262648483039811e-05,9.303789738623891e-06,-2.632539235492004e-07,7.462839857907966e-05
-2.2822103346697986e-05,5.5832402722444385e-05,2.307813929292024e-06,-5.284354642753897e-07,7.533609459642321e-05
-8.390085895371158e-06,5.592032175627537e-05,-2.2268766315391986e-06,-4.468622591957683e-06,7.365237252088264e-05
-2.3188779323390918e-06,5.434171907836571e-05,-7.561224037999636e-07,-8.083292414085008e-06,7.140530942706391e-05
-1.978622549358988e-06,5.146386683918536e-05,2.64575692199287e-06,-1.0096757250721566e-05,7.147871656343341e-05
-3.0876894925313536e-06,5.331449574441649e-05,4.581448592944071e-06,-9.749966920935549e-06,6.870648212498054e-05
-3.118286031167372e-06,5.4416934290202335e-05,6.52144854029757e-06,-8.741373676457442e-06,6.630815914832056e-05
-2.8520505566120846e-06,5.0913873565150425e-05,5.868116659257794e-06,-8.597132364229765e-06,6.687027052976191e-05
7.849563985473651e-07,3.9660895708948374e-05,3.7186487134022173e-06,-9.981004041037522e-06,6.647793634328991e-05
6.019655756972497e-06,2.246900839963928e-05,8.119807262119139e-07,-1.1156235814269166e-05,6.5883323259186e-05
4.678503955801716e-06,7.75393345975317e-06,-1.3855773204340949e-06,-9.247621164831799e-06,6.440500146709383e-05
-4.957533292326843e-06,3.8053333355492214e-06,-1.34490917957919e-07,-5.061702267994406e-06,6.204547389643267e-05
-1.7858445062302053e-05,7.823524356354028e-06,2.2956567136134254e-06,-3.0943433557695244e-06,5.850514935445972e-05
-2.8529415430966765e-05,1.3783922440779861e-05,2.6348998289904557e-06,-6.086947905714624e-06,5.702864291379228e-05
-3.431880031712353e-05,2.118186603183858e-05,1.828048965535345e-07,-7.1387171374226455e-06,5.7477664086036384e-05
-3.495369674055837e-05,2.5410061425645836e-05,-1.7924145367942401e-06,-3.529142304614652e-06,5.722796049667522e-05
-2.8277179808355868e-05,2.8181351808598265e-05,-1.0305514024366857e-06,1.0252185802528402e-06,5.660431634169072e-05
-1.696674371487461e-05,3.316008951514959e-05,9.606125104255625e-07,3.107154498138698e-06,5.7419398217462e-05
-9.22788694879273e-06,3.781102714128792e-05,6.73709678267187e-07,2.7529674753168365e-06,5.724153379560448e-05
-1.1722187991836108e-05,3.380521229701117e-05,-1.3429240652840235e-06,-1.8328322539673536e-06,5.5966662330320105e-05
-2.291144846822135e-05,2.5936831661965698e-05,-4.649449238058878e-06,-9.325163773610257e-06,5.215589771978557e-05
-3.4556869650259614e-05,2.093323382723611e-05,-5.585806320596021e-06,-1.666366915742401e-05,4.8719419282861054e-05
-4.4685912143904716e-05,1.943539609783329e-05,-1.7055807575161452e-06,-1.9551232981029898e-05,4.6598997869296e-05
-4.965880361851305e-05,1.756385427142959e-05,1.7202763729073922e-06,-1.9418623196543194e-05,4.648333924706094e-05
-3.972466947743669e-05,2.17385222640587e-05,-5.409797267930117e-07,-2.388212305959314e-05,4.774719491251744e-05
-1.779310332494788e-05,2.5996987460530363e-05,-2.8389308681653347e-06,-2.675841642485466e-05,4.961657396052033e-05
-3.8358516576408874e-06,2.1308485884219408e-05,-2.8346530598355457e-06,-1.9410246750339866e-05,5.312093344400637e-05
-3.394911345822038e-06,1.1986354365944862e-05,-3.6951503261661856e-06,-1.3089987987768836e-05,5.347580372472294e-05
-7.16603108230629e-06,2.1542316517297877e-06,-4.667095709010027e-06,-1.3887302884540986e-05,5.073384818388149e-05
-1.4244056728784926e-05,2.3430820874636993e-06,-3.7266684103087755e-06,-1.3644390492117964e-05,4.734199683298357e-05
-2.209375088568777e-05,1.0893849321291782e-05,5.485720180331555e-07,-1.4043309420230798e-05,4.6572622522944584e-05
-2.381404374318663e-05,2.038232923951e-05,1.7825605027610436e-06,-1.3689078514289577e-05,4.897594408248551e-05
-2.0470130039029755e-05,2.268413118144963e-05,2.6463230824447237e-06,-1.0757252312032506e-05,5.228587906458415e-05
-1.898280424939003e-05,1.5099750271474477e-05,8.989127309178002e-06,-9.32453986024484e-06,5.4250453104032204e-05
-1.830785913625732e-05,1.2171380149084143e-05,1.3043018043390475e-05,-1.2680318832281046e-05,5.376022090786137e-05
-2.1493369786185212e-05,1.5468523997697048e-05,1.0029593795479741e-05,-1.7115360606112517e-05,4.9916066927835345e-05
-2.67366867774399e-05,2.169731851608958e-05,7.727384399913717e-06,-1.7157346519525163e-05,4.7237437684088945e-05
-2.993059933942277e-05,2.7981330276816152e-05,7.5642219599103555e-06,-1.6997069906210527e-05,5.060555849922821e-05
-2.6589677872834727e-05,3.058236325159669e-05,7.523042313550832e-06,-1.621907540538814e-05,5.549296110984869e-05
-2.030292307608761e-05,2.5437117074034177e-05,8.012016223801766e-06,-1.3020629921811633e-05,5.687047087121755e-05
-1.7724298231769353e-05,1.877319300547242e-05,8.107906069199089e-06,-1.0188515261688735e-05,5.759844498243183e-05
-2.2766180336475372e-05,1.5857081962167285e-05,7.535544227721402e-06,-1.0296335858583916e-05,6.126648077042773e-05
-3.36757002514787e-05,1.738263017614372e-05,6.176040187710896e-06,-1.2233382221893407e-05,6.491726526292041e-05
-3.902701064362191e-05,2.6277615688741207e-05,3.5538384963729186e-06,-1.2942547982675023e-05,6.857968401163816e-05
-3.348326208651997e-05,4.4886881369166076e-05,9.790867352421628e-07,-1.1219253792660311e-05,7.197355444077402e-05
-1.7905378626892343e-05,6.787807797081769e-05,4.2394475485707517e-07,-1.254529161087703e-05,7.243631989695132e-05
-4.50857305622776e-06,8.631615492049605e-05,-1.5179782621999038e-06,-1.4042430848348886e-05,7.006189116509631e-05
-9.315837814938277e-06,9.796961967367679e-05,-7.883742910053115e-06,-9.851934009930119e-06,6.504420161945745e-05
-2.773986489046365e-05,9.837945981416851e-05,-1.553463880554773e-05,-7.541562354163034e-06,5.7178636780008674e-05
-3.688210199470632e-05,9.625811071600765e-05,-1.909882303152699e-05,-9.96441758616129e-06,5.126214455231093e-05
-2.895268153224606e-05,9.801376290852204e-05,-1.9214241547160782e-05,-1.0245007615594659e-05,5.174989200895652e-05
-1.6322688679792918e-05,9.398807014804333e-05,-1.563381556479726e-05,-6.809033493482275e-06,5.570617940975353e-05
-1.2728933143080212e-05,7.920886855572462e-05,-4.896990503766574e-06,-5.764826255472144e-06,6.038507854100317e-05
-1.8586288206279278e-05,5.4088061006041244e-05,5.625563062494621e-06,-4.281936980987666e-06,6.108041270636022e-05
-3.121388363069855e-05,1.8681415895116515e-05,9.045665137819014e-06,-4.399866611493053e-06,5.889922977075912e-05
-4.239129339111969e-05,-1.1120689123345073e-05,8.96288202056894e-06,-5.675624834111659e-06,5.9271093050483614e-05
-5.5723143304931e-05,-1.9336273908265866e-05,9.587136446498334e-06,-6.35282367511536e-06,5.947527097305283e-05
-6.89938387949951e-05,-1.2443060768418945e-05,1.378587148792576e-05,-7.108425961632747e-06,5.866387436981313e-05
-6.728206062689424e-05,-4.912879830953898e-06,1.754270306264516e-05,-9.617516298021656e-06,6.039708750904538e-05
-4.807026925846003e-05,9.095939276448917e-06,1.9773611711570993e-05,-1.2915486877318472e-05,6.39788486296311e-05
-2.8679813112830743e-05,3.128371463390067e-05,2.0967483578715473e-05,-1.3667523489857558e-05,6.454896356444806e-05
-2.589718314993661e-05,5.6860579206841066e-05,1.995123238884844e-05,-1.1772740435844753e-05,6.461802695412189e-05
-3.4122269426006824e-05,7.96199165051803e-05,1.8933873434434645e-05,-8.01463465904817e-06,6.667318666586652e-05
-3.7750982301076874e-05,9.182009671349078e-05,1.8971797544509172e-05,-6.864706392661901e-06,6.625424430239946e-05
-2.775455686787609e-05,8.696887380210683e-05,1.8186468878411688e-05,-8.644276931590866e-06,6.158366159070283e-05
-1.1183454262209125e-05,6.677660712739453e-05,1.7099817341659218e-05,-1.3459773072099779e-05,5.835627962369472e-05
5.731919827667298e-06,4.2514049710007384e-05,1.9077875549555756e-05,-1.4847892089164816e-05,6.097043660702184e-05
2.376923839619849e-05,2.379731449764222e-05,2.1467536498676054e-05,-1.1566206012503244e-05,6.542661867570132e-05
4.4557807996170595e-05,1.1708721103786957e-05,1.879866249510087e-05,-6.991587724769488e-06,6.803296128055081e-05
6.0893449699506164e-05,1.0349714330004645e-06,1.2236080692673568e-05,-7.698625267948955e-06,6.793731154175475e-05
6.512999243568629e-05,-9.260340448236093e-06,7.497239494114183e-06,-1.3978547940496355e-05,6.66048945276998e-05
5.025957943871617e-05,-1.613174936210271e-05,6.994334398768842e-06,-1.7736627341946587e-05,6.509744707727805e-05
1.896292633318808e-05,-1.832270936574787e-05,8.79598064784659e-06,-1.7083082639146596e-05,6.278103683143854e-05
-8.761927347222809e-06,-1.9229160898248665e-05,7.969063517521136e-06,-1.7389367712894455e-05,6.05223212915007e-05
-1.8612310668686405e-05,-2.014298297581263e-05,5.608648734778399e-06,-1.8038073903881013e-05,5.941007475485094e-05
-1.841812627390027e-05,-1.2834395420213696e-05,5.822099865326891e-06,-1.675320709182415e-05,5.890125612495467e-05
-2.1940360966254957e-05,3.1652093639422674e-06,5.607312232314143e-06,-1.6773101378930733e-05,6.008632408338599e-05
-2.828282413247507e-05,1.8167507732869126e-05,3.0870430691720685e-06,-1.9273518773843534e-05,6.152150308480486e-05
-3.0002851417521015e-05,2.8373970053507946e-05,5.461204182211077e-06,-2.245240830234252e-05,6.322547415038571e-05
-2.660728569026105e-05,3.1555431633023545e-05,9.11996448849095e-06,-2.1946310880593956e-05,6.162800855236128e-05
-2.2235728465602733e-05,3.658693822217174e-05,9.57335487328237e-06,-2.005896567425225e-05,5.871094253961928e-05
-2.029261850111652e-05,4.403396451380104e-05,1.0906815077760257e-05,-1.9129989595967345e-05,6.205117824720219e-05
-2.805442454700824e-05,4.6059016312938184e-05,8.322099347424228e-06,-1.8424616428092122e-05,6.437362753786147e-05
-4.129275475861505e-05,3.8200942071853206e-05,3.0812905151833547e-06,-1.823102320486214e-05,6.213547749212012e-05
-4.756839189212769e-05,3.1418960134033114e-05,2.612375737953698e-07,-1.673763108556159e-05,5.730387783842161e-05
-4.6061628381721675e-05,3.4273638448212296e-05,-2.42123383031867e-06,-1.3675527952727862e-05,5.833938121213578e-05
-4.1797909943852574e-05,3.807530447375029e-05,-5.610558218904771e-06,-1.4670380551251583e-05,6.315973587334156e-05
-4.144948979956098e-05,3.6854737118119374e-05,-4.160674052400282e-06,-1.6510855857632123e-05,6.188444967847317e-05
-4.775908382725902e-05,3.264136830694042e-05,1.7294879626206239e-06,-1.713593337626662e-05,5.9637168305926025e-05
-5.66500129934866e-05,2.66273691522656e-05,6.9121042542974465e-06,-1.6212907212320715e-05,6.029623909853399e-05
-5.717218300560489e-05,1.95342545339372e-05,9.66881725616986e-06,-1.4205247680365574e-05,6.155372830107808e-05
-4.824925781576894e-05,1.5386603990918957e-05,9.531589057587553e-06,-1.1512104720168281e-05,5.9560676163528115e-05
-3.912008833140135e-05,1.5464311218238436e-05,1.0594866580504458e-05,-8.062492270255461e-06,5.9622794651659206e-05
-3.895683403243311e-05,1.4480076970357914e-05,1.4581882169295568e-05,-7.069984349072911e-06,6.22067236690782e-05
-4.4607993913814425e-05,1.4760445992578752e-05,1.7872962416731752e-05,-9.571018381393515e-06,6.24286403763108e-05
-4.709573113359511e-05,1.7590424249647185e-05,1.828285530791618e-05,-1.1053200069000013e-05,5.89707306062337e-05
-4.617865852196701e-05,1.6681560737197287e-05,1.8518778233556077e-05,-9.795538062462583e-06,5.4223506595008075e-05
-3.919295340892859e-05,1.5251880540745333e-05,1.663186958467122e-05,-9.690070328360889e-06,5.0506816478446126e-05
-2.4393448256887496e-05,1.9822295143967494e-05,9.090917956200428e-06,-8.576223081036005e-06,4.7071505832718685e-05
-1.1082363016612362e-05,2.4269656933029182e-05,1.2918784477733425e-06,-4.429312866705004e-06,4.432508285390213e-05
-8.191886990971398e-06,2.469326318532694e-05,-1.2998173133382807e-06,-2.2083181647758465e-06,4.486336911213584e-05
-2.0409619537531398e-05,2.2769781935494393e-05,-1.1725880995072657e-06,-7.397412900900235e-06,4.7374487621709704e-05
-4.886294846073724e-05,1.5066291780385654e-05,-2.1304961137502687e-06,-1.2724188309221063e-05,4.941209408571012e-05
-7.103106327122077e-05,1.1260667633905541e-05,-3.210882141502225e-06,-1.354354481009068e-05,5.174954276299104e-05
-7.309443753911182e-05,1.8594148059492e-05,3.3673251209620503e-07,-1.700138636806514e-05,5.24531897099223e-05
-6.264757394092157e-05,2.6768761017592624e-05,8.44550504552899e-06,-1.9095556126558222e-05,5.042570410296321e-05
-4.633504795492627e-05,2.6648031052900478e-05,1.7341557395411655e-05,-1.3665233382198494e-05,4.5653636334463954e-05
-4.189407991361804e-05,2.612991193018388e-05,2.2667683879262768e-05,-9.56447001954075e-06,4.4480551878223196e-05
-4.3077277950942516e-05,3.076792927458882e-05,1.986946699616965e-05,-8.860238267516252e-06,4.8004803829826415e-05
-3.478264625300653e-05,3.6501605791272596e-05,1.6227777450694703e-05,-5.350535502657294e-06,5.150221477379091e-05
-2.556571052991785e-05,3.585974991437979e-05,1.6255879017990083e-05,-5.821375452796929e-07,5.309423431754112e-05
-1.5134948625927791e-05,3.244182880735025e-05,1.4875608940201346e-05,4.241272506533278e-07,5.388364297687076e-05
-9.393626896780916e-06,3.528871093294583e-05,1.141896063927561e-05,1.3776136711385334e-06,5.5182346841320395e-05
-1.0148924047825858e-05,4.2344538087490946e-05,8.23096797830658e-06,4.522305971477181e-06,5.77278588025365e-05
-1.5401690689031966e-05,4.390910908114165e-05,6.915994163136929e-06,6.369562015606789e-06,5.76258753426373e-05
-2.278548890899401e-05,4.393989365780726e-05,9.261976629204582e-06,5.752234301326098e-06,5.4652042308589444e-05
-2.8771635697921738e-05,4.4454020098783076e-05,1.0963911336148158e-05,1.3680382835445926e-06,5.412829705164768e-05
-3.0315610274556093e-05,3.93851260014344e-05,8.663832886668388e-06,-5.537684955925215e-06,5.574508031713776e-05
-2.763269003480673e-05,3.224769898224622e-05,8.261032235168386e-06,-1.114380302169593e-05,5.5641939979977906e-05
-2.748887891357299e-05,3.0446039090747945e-05,1.2077335668436717e-05,-1.2397582395351492e-05,5.420275920187123e-05
-3.082260809605941e-05,3.329070386826061e-05,1.1986647223238833e-05,-9.426004908164032e-06,5.421373134595342e-05
-3.623340671765618e-05,3.175464007654227e-05,7.381725481536705e-06,-6.083212156227091e-06,5.601378143182956e-05
-4.174968853476457e-05,2.5628585717640817e-05,4.637915935745696e-06,-3.804624157055514e-06,5.959313421044499e-05
-4.444588557817042e-05,2.0126435629208572e-05,4.648836693377234e-06,-2.932909865194233e-06,6.173516158014536e-05
-3.842999285552651e-05,1.9671686459332705e-05,2.3225825316330884e-06,-3.96990253648255e-06,6.250259320950136e-05
-2.7301590307615697e-05,2.3235823391587473e-05,-2.9502455163310515e-06,-6.727480013068998e-06,6.27015033387579e-05
-2.226033029728569e-05,2.723809848248493e-05,-4.949524736730382e-06,-1.0457364624016918e-05,6.207923433976248e-05
-3.068125806748867e-05,2.945635969808791e-05,-2.1754515273642028e-06,-1.2537490874819923e-05,6.036867489456199e-05
-4.5761549699818715e-05,2.771406616375316e-05,-3.3358176665387873e-07,-1.1385041034372989e-05,5.836333002662286e-05
-5.648695878335275e-05,2.069009315164294e-05,-2.4192654564103577e-06,-9.041951670951676e-06,5.960155976936221e-05
-5.588723433902487e-05,2.2377418645191938e-05,-4.561079094855813e-06,-9.506788046564907e-06,6.458596180891618e-05
-4.8933485231827945e-05,3.525610372889787e-05,-6.6680881900538225e-06,-9.971725376090035e-06,6.706425483571365e-05
-4.2215822759317234e-05,4.4909462303621694e-05,-5.4976376304693986e-06,-6.108580237196293e-06,6.471019150922075e-05
-3.68198161595501e-05,4.538240682450123e-05,-3.433267750097002e-07,-3.922637915820815e-06,6.0502567066578194e-05
-2.75454676739173e-05,3.8286641938611865e-05,4.171392447460676e-06,-7.717167136434e-06,5.752864308306016e-05
-1.6567060811212286e-05,3.242187449359335e-05,6.829262474639108e-06,-1.3585779925051611e-05,5.526739187189378e-05
-1.4985491361585446e-05,2.570751530583948e-05,9.11463939701207e-06,-1.676011561357882e-05,5.496562152984552e-05
-1.6723008229746483e-05,1.7268877854803577e-05,8.978136065707076e-06,-1.5413666915264912e-05,5.615828195004724e-05
-1.6451642295578495e-05,1.2177676580904517e-05,3.893316716130357e-06,-1.0364731679146644e-05,5.5891046940814704e-05
-1.4680642379971687e-05,1.3140737792127766e-05,-2.1043956621724647e-06,-6.658557595073944e-06,5.932123531238176e-05
-9.149503966909833e-06,2.077942008327227e-05,-5.944267286395188e-06,-5.476388651004527e-06,6.648812268394977e-05
3.876458777085645e-06,2.6205052563454956e-05,-6.082619620428886e-06,-2.0905258679704275e-06,7.179890235420316e-05
1.3369177395361476e-05,2.7011570637114346e-05,-4.52389576821588e-06,-2.3039214624986926e-07,7.276301766978577e-05
1.0934187230304815e-05,2.33461814787006e-05,-3.303812491139979e-06,-2.95298150376766e-06,7.398737216135487e-05
3.975750644258369e-07,1.8734339391812682e-05,-1.6556773516640533e-06,-8.819989488983992e-06,7.487565017072484e-05
-1.2493636859289836e-05,1.61114294314757e-05,3.244961419568426e-07,-1.2964857887709513e-05,7.323955651372671e-05
-2.1622223357553594e-05,1.8003936929744668e-05,1.1218722306693962e-07,-1.2339523891569115e-05,7.063276279950514e-05
-2.590249278000556e-05,2.509374826331623e-05,-2.3864954528107774e-06,-1.0573643521638587e-05,6.891567318234593e-05
-2.504351687093731e-05,3.538076634868048e-05,-5.325087386154337e-06,-1.0740220204752404e-05,6.870884681120515e-05
-2.297786886629183e-05,4.438132236828096e-05,-6.689810561510967e-06,-1.329588849330321e-05,6.916473648743704e-05
-2.0546258383546956e-05,4.694787639891729e-05,-5.759899067925289e-06,-1.5067653293954208e-05,6.712329923175275e-05
-1.9762983356486075e-05,4.426476516528055e-05,-4.674064712162362e-06,-1.4369790733326226e-05,6.269155710469931e-05
-2.2614962290390395e-05,4.1426290408708155e-05,-3.572773266569129e-06,-1.186885765491752e-05,6.185053644003347e-05
-2.8048789317836054e-05,4.006770541309379e-05,-2.7298751774651464e-06,-9.797405255085323e-06,6.489054794656113e-05
-3.145899245282635e-05,3.620439019869082e-05,-1.0036760613729712e-06,-9.812729331315495e-06,6.851900980109349e-05
-3.442276283749379e-05,3.3420987165300176e-05,2.7173614398634527e-06,-1.065493870555656e-05,6.889193900860846e-05
-4.555815030471422e-05,3.461506639723666e-05,6.569375273102196e-06,-1.2411292118486017e-05,6.547596422024071e-05
-5.77741811866872e-05,4.067940608365461e-05,9.161864909401629e-06,-1.560317468829453e-05,6.26232722424902e-05
-5.917993257753551e-05,4.670603448175825e-05,1.1661411008390132e-05,-1.6646685253363103e-05,6.14825839875266e-05
-4.8693975259084255e-05,4.2885854782070965e-05,1.3070743989374023e-05,-1.3159452464606147e-05,5.951861749053933e-05
-3.125827788608149e-05,3.543116326909512e-05,1.3111998669046443e-05,-1.0979350008710753e-05,5.990736826788634e-05
