-2.7358622901374474e-05,4.330042429501191e-05,7.113431820471305e-06,1.3734416825172957e-05,6.666479021077976e-05
-2.9938233637949452e-05,3.099987225141376e-05,1.1557835932762828e-05,1.939389039762318e-05,6.520470196846873e-05
-2.8703545467578806e-05,2.1270952856866643e-05,1.1764486771426164e-05,2.5332365112262778e-05,6.429974018828943e-05
-2.4133902115863748e-05,1.762457577569876e-05,1.4799501514062285e-05,3.157887840643525e-05,6.762222619727254e-05
-1.5028655070636887e-05,1.551558125356678e-05,1.8852360881282948e-05,3.155436206725426e-05,6.881263107061386e-05
-7.610524789924966e-06,1.5794541468494572e-05,1.3607875189336482e-05,2.3506712750531733e-05,6.301957910181955e-05
-3.95286588172894e-06,2.688583299459424e-05,2.6557636374491267e-06,1.5050180991238449e-05,5.817360579385422e-05
-3.7311899632186396e-06,4.87545839860104e-05,-7.071729214658262e-06,6.391608167177765e-06,5.699259781977162e-05
-7.1965937422646675e-06,6.101965482230298e-05,-1.1538862054294441e-05,1.881963612504478e-06,5.7356875913683325e-05
-1.0836476576514542e-05,6.187960389070213e-05,-9.240798135579098e-06,1.6862769598446903e-06,5.8286645071348175e-05
-1.490608246967895e-05,5.620504089165479e-05,-4.505277956923237e-06,1.1830212542918161e-06,6.029924043104984e-05
-1.7783999282983132e-05,4.384139538160525e-05,5.335781452231458e-07,2.9915693176008062e-06,5.966557000647299e-05
-1.7580912754056044e-05,2.1994343114783987e-05,4.822558366868179e-06,6.714007668051636e-06,5.748079638578929e-05
-1.693812373559922e-05,-9.162818059849087e-06,1.1076194823544938e-05,8.253045052697416e-06,5.5472355597885326e-05
-2.1636351448250934e-05,-3.520195241435431e-05,1.9014922145288438e-05,6.1510177147283684e-06,5.5249332945095375e-05
-2.927217065007426e-05,-4.3860130972461775e-05,2.7187685191165656e-05,6.92221692588646e-06,5.6848322856239974e-05
-3.4321124985581264e-05,-3.96674768126104e-05,3.1369370844913647e-05,1.3028615285293199e-05,5.798448546556756e-05
-3.225513864890672e-05,-3.386521711945534e-05,3.192924850736745e-05,2.0489502276177518e-05,5.881238030269742e-05
-2.3687267457717098e-05,-2.3742957637296058e-05,3.0146800781949423e-05,1.8775086573441513e-05,6.027832205290906e-05
-1.2955488273291849e-05,1.3357569628169585e-07,2.3810840502846986e-05,7.141696642065654e-06,6.1030234064674005e-05
-9.774035788723268e-06,3.232242670492269e-05,1.573907684360165e-05,-3.5395610211708117e-06,5.81050080654677e-05
-1.497405901318416e-05,5.823374885949306e-05,1.1043351150874514e-05,-8.448179869446903e-06,5.3565556299872696e-05
-2.2258520402829163e-05,7.818199810571969e-05,7.172180175984977e-06,-1.0619503882480785e-05,5.245035936241038e-05
-2.7500083888298832e-05,0.00010233886132482439,2.468222191964742e-06,-1.1394574357836973e-05,5.690121543011628e-05
-3.0569288355764e-05,0.00013321662845555693,1.7244223045054241e-06,-1.4985430425440427e-05,6.131975533207878e-05
-3.0056475225137547e-05,0.0001578042283654213,6.2356002672459e-06,-1.9690944100148045e-05,6.16362813161686e-05
-2.379917714279145e-05,0.00016585210687480867,1.1807611372205429e-05,-2.3329594114329666e-05,5.8455956605030224e-05
-1.687796611804515e-05,0.00014798564370721579,1.6050100384745747e-05,-2.2214044292923063e-05,5.520925697055645e-05
-7.789410119585227e-06,0.00010468265099916607,1.6791667803772725e-05,-2.1481038857018575e-05,5.320450145518407e-05
2.423996420475305e-06,6.236680928850546e-05,1.85517747013364e-05,-2.1312796889105812e-05,5.568558117374778e-05
6.077020316297421e-06,5.203507316764444e-05,2.283062167407479e-05,-1.8167538655688986e-05,5.721819252357818e-05
1.686617224549991e-06,5.293635695124976e-05,2.1335776182240807e-05,-1.6335499822162092e-05,6.033607496647164e-05
-6.570266577909933e-06,2.8151502192486078e-05,2.0939223759341985e-05,-1.700862958387006e-05,6.365526496665552e-05
-9.856573342403863e-06,-1.4956257473386358e-05,2.1274399841786362e-05,-1.785654603736475e-05,6.53478637104854e-05
-8.036728104343638e-06,-5.198881626711227e-05,1.975844679691363e-05,-1.6775209587649442e-05,6.487375503638759e-05
-8.005846211744938e-06,-6.389295594999567e-05,1.6302887161145918e-05,-1.553940455778502e-05,6.264843250392005e-05
-8.265437827503774e-06,-5.0197293603559956e-05,1.3843239685229491e-05,-1.2289355254324619e-05,6.170263804960996e-05
-5.794034677819582e-06,-4.2681087506935e-05,1.5006571629783139e-05,-1.0060463864647318e-05,5.9976639022352174e-05
-5.2261134442233015e-06,-6.250028673093766e-05,1.5008199625299312e-05,-9.655695976107381e-06,5.840121229994111e-05
-1.0690830094972625e-05,-8.81380692590028e-05,1.2101912034268025e-05,-1.3035190931987017e-05,5.590755972662009e-05
-2.0849964130320586e-05,-9.983792551793158e-05,6.7964547270094045e-06,-1.649626028665807e-05,5.6875265727285296e-05
-3.210380600648932e-05,-9.940683958120644e-05,1.8518662727728952e-06,-1.5102936231414787e-05,5.800284998258576e-05
-4.206648009130731e-05,-9.331523324362934e-05,-1.0133842351933708e-06,-1.1093622561020311e-05,5.810962829855271e-05
-4.6349538024514914e-05,-7.879796612542123e-05,-1.851708901767779e-07,-9.910039807436988e-06,5.865745333721861e-05
-4.39364266640041e-05,-5.640987365040928e-05,1.6837457224028185e-06,-1.1405378245399334e-05,5.914274152019061e-05
-3.998617103206925e-05,-2.4967899662442505e-05,2.024406740019913e-06,-1.4102008208283223e-05,5.747491741203703e-05
-3.728079536813311e-05,2.1496787667274475e-05,-7.29414921352145e-07,-1.6624095223960467e-05,5.4191372328205034e-05
-3.436589759076014e-05,7.958071364555508e-05,-4.613237251760438e-06,-1.840219738369342e-05,5.079416951048188e-05
-3.0058025004109368e-05,0.00012281053932383657,-6.903081157361157e-06,-2.436200884403661e-05,4.985358827980235e-05
-2.5347988412249833e-05,0.0001303289900533855,-9.783181667444296e-06,-3.170036507071927e-05,5.22437367180828e-05
-1.4974454643379431e-05,0.00011842024832731113,-1.5622961655026302e-05,-3.5017488698940724e-05,5.467841765494086e-05
2.0473814856813988e-06,0.00012231976143084466,-2.2219079255592078e-05,-3.561768971849233e-05,5.478188177221455e-05
1.4150314200378489e-05,0.00014593853848055005,-2.675000359886326e-05,-3.68578294001054e-05,5.1927741878898814e-05
8.744451406528242e-06,0.00015483122842852026,-2.4453494916087948e-05,-3.6981127777835354e-05,4.995282870368101e-05
-6.969783498789184e-06,0.00011728130630217493,-1.4979676961957011e-05,-3.4587803384056315e-05,5.149908974999562e-05
-1.922242336149793e-05,4.79543705296237e-05,-7.546304459538078e-06,-2.8967078833375126e-05,5.436591891339049e-05
-2.639654303493444e-05,-9.957462680176832e-06,-5.020548996981233e-06,-2.6972680643666536e-05,5.8619258197722957e-05
-2.8148768251412548e-05,-3.4998538467334583e-05,-4.3498216655279975e-06,-2.744619814620819e-05,5.976128886686638e-05
-2.494198088243138e-05,-2.286922790517565e-05,-1.7170117416753783e-06,-2.257995402032975e-05,5.7165412727044895e-05
-1.9333927411935292e-05,6.126921107352246e-06,4.344788521848386e-06,-1.379782406729646e-05,5.582833546213806e-05
-1.311858886765549e-05,2.984516140713822e-05,8.044138667173684e-06,-8.840839655022137e-06,5.682667324435897e-05
-1.0198041309195105e-05,3.464883775450289e-05,8.497105227434076e-06,-7.317909876292106e-06,5.991027501295321e-05
-1.1625632396317087e-05,2.4837774617481045e-05,1.2235755093570333e-05,-3.080780743403011e-06,6.192161526996642e-05
-1.3181113899918273e-05,2.2693948267260566e-05,1.4462530089076608e-05,3.832424226857256e-06,6.462626333814114e-05
-1.4526180166285485e-05,3.467956048552878e-05,9.901159501168877e-06,1.0899056178459432e-05,6.525342905661091e-05
-1.6816902643768117e-05,4.965550033375621e-05,4.873510079050902e-06,1.1294306204945315e-05,6.237989873625338e-05
-2.2320771677186713e-05,6.435583054553717e-05,1.1715710570570081e-06,7.840553735150024e-06,5.750162381445989e-05
-3.1152379960985854e-05,8.103727304842323e-05,-1.9331389466969995e-06,3.7537233765760902e-06,5.427473661256954e-05
-3.7811212678207085e-05,8.682148472871631e-05,-4.7181497393467e-06,-1.5239579909120948e-07,5.3582120017381385e-05
-3.7023706681793556e-05,7.294923125300556e-05,-4.6754021241213195e-06,-2.171855612687068e-06,5.387926285038702e-05
-3.24094871757552e-05,5.011041139368899e-05,-2.03354670702538e-06,-1.8461554418536252e-06,5.3174488130025566e-05
-3.1298983230954036e-05,3.291877146693878e-05,4.6703692646588024e-07,-1.1912333093277994e-06,4.882533539785072e-05
-3.3545926271472126e-05,2.4555733034503646e-05,1.3824055713484995e-06,-1.1530143240179314e-07,4.5372969907475635e-05
-3.715733328135684e-05,2.0475141354836524e-05,1.0642917231962201e-06,3.7604982026095968e-06,4.694778908742592e-05
-4.395979703986086e-05,1.2261723895790055e-05,4.348370566731319e-06,8.686470209795516e-06,5.0126182031817734e-05
-5.228948066360317e-05,2.063168949462124e-06,1.3563440916186664e-05,9.482132554694545e-06,4.991695095668547e-05
-5.363181480788626e-05,-4.6876857595634647e-07,1.8450402421876788e-05,8.017198638299305e-07,4.8984169552568346e-05
-5.5000302381813526e-05,7.453109446942108e-06,1.2155373951827642e-05,-1.1963174074480776e-05,5.0545171689009294e-05
-6.229852442629635e-05,2.103777114825789e-05,5.6628050515428185e-06,-1.9476874513202347e-05,5.102816066937521e-05
-6.347081944113597e-05,3.5167482565157115e-05,3.5060302252531983e-06,-2.1019865016569383e-05,4.959652869729325e-05
-6.217886402737349e-05,4.435968730831519e-05,7.915342393971514e-06,-2.0325873265392147e-05,4.788856313098222e-05
-5.950271224719472e-05,4.4896401959704235e-05,1.3144701370038092e-05,-2.2281596102402546e-05,4.4322288886178285e-05
-5.479235915117897e-05,4.3329837353667244e-05,1.3058786862529814e-05,-2.411836430837866e-05,4.2578434658935294e-05
-5.1338414778001606e-05,4.838431777898222e-05,1.5502593669225462e-05,-1.58533966896357e-05,4.5916673116153106e-05
-4.3983083742205054e-05,5.7972505601355806e-05,2.0758170649060048e-05,-7.4498020694591105e-06,4.904327943222597e-05
-3.449773430475034e-05,6.0893537010997534e-05,2.404146835033316e-05,-1.0235520676360466e-05,5.1511116907931864e-05
-2.1448797269840725e-05,4.9739213864086196e-05,2.498237336112652e-05,-2.0662151655415073e-05,5.499070175574161e-05
-8.776390131970402e-06,2.7437099561211653e-05,2.3870843506301753e-05,-3.235097028664313e-05,5.819304715259932e-05
1.6899432466743747e-06,-1.4637603271694388e-06,1.7911597751663066e-05,-4.031862044939771e-05,6.17661644355394e-05
4.895421625406016e-06,-2.4937735361163504e-05,1.034693377732765e-05,-4.214185173623264e-05,6.317882798612118e-05
7.849619265698493e-08,-2.485543336661067e-05,5.755990059697069e-06,-3.864812970277853e-05,6.136506999609992e-05
-9.194907761411741e-06,-8.919994797906838e-06,6.0965771808696445e-06,-3.575998925953172e-05,5.6725082686170936e-05
-1.67685702763265e-05,2.5076503789023263e-06,1.0759647921076976e-05,-3.499045124044642e-05,5.351151412469335e-05
-1.6324927855748683e-05,1.618311034690123e-05,1.3861425941286143e-05,-2.9374721634667367e-05,5.41421577509027e-05
-1.731817792460788e-05,5.0665868911892176e-05,1.373435134155443e-05,-1.97220088011818e-05,5.7067569287028164e-05
-2.39759792748373e-05,9.250800940208137e-05,1.3144429431122262e-05,-1.1525163245096337e-05,5.929030885454267e-05
-3.433955498621799e-05,0.00011099543189629912,1.3513176781998482e-05,-5.724418315367075e-06,6.12175208516419e-05
-4.518984860624187e-05,9.228559792973101e-05,1.4044553608982824e-05,3.486234163574409e-07,6.43461462459527e-05
-5.245487773208879e-05,4.6146513341227546e-05,1.77907550096279e-05,6.584921266039601e-06,6.628374831052497e-05
-4.887538671027869e-05,-9.784937446966069e-07,2.4775103156571276e-05,9.061775017471518e-06,6.43672829028219e-05
-3.891860251314938e-05,-2.0129315089434385e-05,3.328893581056036e-05,1.0945769645331893e-05,6.07791735092178e-05
-3.553005080902949e-05,-1.1529313269420527e-05,4.2211395339109004e-05,1.758644611982163e-05,6.048443538020365e-05
-3.9747006667312235e-05,4.935496690450236e-06,4.8979403800331056e-05,2.4540982849430293e-05,6.495052366517484e-05
-4.172833723714575e-05,1.0832185580511577e-05,4.7964786062948406e-05,2.7821515686810017e-05,7.028120307950303e-05
-4.166903090663254e-05,-1.5873938536969945e-06,3.782318890444003e-05,2.7144360501552e-05,7.0124828198459e-05
-4.028041803394444e-05,-4.2184592530247755e-06,2.6037756470032036e-05,2.1573458070633933e-05,6.628123810514808e-05
-3.7963560316711664e-05,2.536155443522148e-05,1.4769250810786616e-05,1.3125376426614821e-05,6.431752990465611e-05
-4.134640039410442e-05,5.838106881128624e-05,2.9244035886222264e-06,5.895702997804619e-06,6.36359109194018e-05
-5.396447886596434e-05,7.586665742564946e-05,-7.665882549190428e-06,9.456987868361466e-07,5.811798109789379e-05
-6.932599353604019e-05,7.529952563345432e-05,-1.3431178558676038e-05,-2.110198693117127e-06,5.458734813146293e-05
-6.994812429184094e-05,5.5149750551208854e-05,-1.3854599274054635e-05,2.6856613999370893e-07,5.7050630857702345e-05
-5.933750799158588e-05,3.766635563806631e-05,-1.1128922778880224e-05,7.720048415649217e-06,6.108683010097593e-05
-5.334184970706701e-05,2.3876293198554777e-05,-4.788274964084849e-06,8.47390947456006e-06,6.293176556937397e-05
-5.5802531278459355e-05,6.40724692857475e-06,4.416181582200807e-06,-7.777973223710433e-06,6.0214657423784956e-05
-6.095253775129095e-05,-1.2190452252980322e-05,8.322389476234093e-06,-2.3973570932867005e-05,5.957300527370535e-05
-5.6317050621146336e-05,-2.9794111469527707e-05,9.01488328963751e-06,-2.73684854619205e-05,6.048126670066267e-05
-4.2478459363337606e-05,-5.4447991715278476e-05,1.3020920050621498e-05,-2.2215701392269693e-05,6.275245686993003e-05
-2.7117432182421908e-05,-6.854187085991725e-05,1.4977472346799914e-05,-1.894602428365033e-05,6.965632201172411e-05
-1.785052882041782e-05,-5.3758492867928e-05,1.25633332572761e-05,-1.815924588299822e-05,7.80162590672262e-05
-1.911041726998519e-05,-2.3064327251631767e-05,6.062557986297179e-06,-1.7365380699629895e-05,8.197964780265465e-05
-2.390622830716893e-05,9.480999324296135e-06,-2.9822679152857745e-06,-1.5768997400300577e-05,8.155812247423455e-05
-2.7663718356052414e-05,3.3666539820842445e-05,-1.1060398719564546e-05,-7.297940101125278e-06,7.945561810629442e-05
-3.286247738287784e-05,4.755234840558842e-05,-1.4145321074465755e-05,9.107671758101787e-06,7.351894601015374e-05
-3.97531439375598e-05,5.389502257457934e-05,-1.3776450032310095e-05,2.586322807474062e-05,6.530383689096197e-05
-4.595651262206957e-05,5.824461186421104e-05,-1.2825250450987369e-05,3.414845195948146e-05,5.9153971960768104e-05
-4.821478432859294e-05,5.847970533068292e-05,-8.828919817460701e-06,3.423688031034544e-05,5.620495358016342e-05
-4.047936090501025e-05,5.3450494306162e-05,-2.5241672574338736e-06,2.956827484013047e-05,5.6894630688475445e-05
-2.8022812330164015e-05,4.411617192090489e-05,1.1283963203823077e-06,2.386622509220615e-05,5.97635043959599e-05
-2.3318030798691325e-05,3.7022655305918306e-05,1.8649119510882883e-06,1.9813056496786885e-05,6.165257946122438e-05
-2.4016871975618415e-05,3.3447446185164154e-05,7.1805279731052e-06,1.4930669749446679e-05,6.41239239485003e-05
-2.091534588544164e-05,2.5493882276350632e-05,1.6139656509039924e-05,-1.3638920108860475e-06,6.59060460748151e-05
-1.4750347872904968e-05,8.146907021000516e-06,2.063515057670884e-05,-2.2934882508707233e-05,6.34650350548327e-05
-1.0207355444435962e-05,-1.5434725355589762e-05,1.792972943803761e-05,-3.195526005583815e-05,6.099604433984496e-05
-5.659703674609773e-06,-3.1535342714050785e-05,1.4697288861498237e-05,-3.009242209373042e-05,6.323635898297653e-05
-4.199410795990843e-06,-3.502142499201e-05,1.3891201888327487e-05,-2.8437847504392266e-05,6.487745849881321e-05
-1.430148768122308e-05,-3.31265946442727e-05,9.928716281137895e-06,-2.139870048267767e-05,6.413901428459212e-05
-2.4164270143955946e-05,-1.744977453199681e-05,5.350767878553597e-06,-1.0011232006945647e-05,6.659115751972422e-05
-2.7192454581381753e-05,1.1593179806368425e-05,4.39823907072423e-06,-5.682210485247197e-06,6.74910334055312e-05
-2.9918172003817745e-05,3.816968819592148e-05,3.871865374094341e-06,-1.0278849003952928e-05,6.123325874796137e-05
-3.0742983653908595e-05,4.649220500141382e-05,4.35063338954933e-06,-1.5427000107592903e-05,5.5393174989148974e-05
-2.7117601348436438e-05,3.9649421523790807e-05,8.120488018903416e-06,-1.4695446225232445e-05,5.665970456902869e-05
-1.959679320862051e-05,3.7870719097554684e-05,1.118666841648519e-05,-1.1245262612646911e-05,6.0489994211820886e-05
-1.1729023754014634e-05,4.316968988860026e-05,1.1708551937772427e-05,-1.1059581083827652e-05,6.227750418474898e-05
-5.2701961976708844e-06,4.381605322123505e-05,1.3400277566688601e-05,-1.4499493772746064e-05,6.24401363893412e-05
8.762294001485316e-09,3.972703780164011e-05,1.2225978935020976e-05,-1.737349339236971e-05,5.934620639891364e-05
5.805730438623868e-07,3.653307066997513e-05,4.41336169387796e-06,-2.5674537027953193e-05,5.441082612378523e-05
-1.7460625940657337e-06,3.8197638787096366e-05,-4.160615844739368e-06,-5.439362212200649e-05,5.319002957548946e-05
-3.0052810870984104e-06,4.5944369048811495e-05,-1.2380953194224276e-05,-9.651057189330459e-05,5.6189197493949905e-05
-2.004802354349522e-06,5.339392737369053e-05,-2.3570823032059707e-05,-0.0001361575850751251,5.895098001929e-05
1.768891166875619e-07,6.142798520158976e-05,-3.624612509156577e-05,-0.00016685767332091928,5.9531041188165545e-05
1.6682391787981032e-06,7.286063919309527e-05,-4.798794907401316e-05,-0.00018056685803458095,5.8783942222362384e-05
1.3291817140270723e-06,8.124415762722492e-05,-5.764713932876475e-05,-0.00017043223488144577,5.7184952311217785e-05
-3.5760313039645553e-06,7.50362960388884e-05,-5.9488422266440466e-05,-0.00014161733270157129,5.3839954489376396e-05
-1.1707282283168752e-05,6.019138527335599e-05,-4.8500674893148243e-05,-0.00010563942487351596,5.234222408034839e-05
-1.7480191672802903e-05,4.510885992203839e-05,-3.1803760066395625e-05,-6.495367415482178e-05,5.3966996347298846e-05
-1.896509638754651e-05,2.3612770746694878e-05,-2.0446903363335878e-05,-2.1249730707495473e-05,5.4900094255572185e-05
-1.8633980289450847e-05,-1.1801198525063228e-05,-1.574572888785042e-05,1.6920201233006082e-05,5.185824556974694e-05
-1.3871416740585119e-05,-4.2042120185215026e-05,-9.946537829819135e-06,4.328565773903392e-05,4.586431896314025e-05
-1.1138090485474095e-05,-4.200236435281113e-05,6.854230832686881e-06,6.485374615294859e-05,4.226842793286778e-05
-1.2593700375873595e-05,-2.422944271529559e-05,3.1238880183082074e-05,8.896435610949993e-05,4.285247268853709e-05
-8.728536158741917e-06,-1.058110865415074e-05,5.3249354095896706e-05,0.0001158255836344324,4.752257518703118e-05
-4.360077127785189e-06,-2.4680200567672728e-06,7.15705900802277e-05,0.0001342051982646808,5.091470666229725e-05
-1.1259196071478073e-05,2.9749116947641596e-06,8.71448137331754e-05,0.00013530249998439103,5.3130032029002905e-05
-2.1145942810107954e-05,1.2798207535524853e-05,9.810634946916252e-05,0.00012822638382203877,5.358601265470497e-05
-2.471506013534963e-05,3.456639387877658e-05,9.836463141255081e-05,0.00011688948870869353,5.0539878429844975e-05
-3.067544093937613e-05,6.577347085112706e-05,7.98546097939834e-05,9.552628034725785e-05,5.18648921570275e-05
-3.717481376952492e-05,8.810259896563366e-05,5.529107147594914e-05,6.963547639315948e-05,5.801052975584753e-05
-3.9244292565854266e-05,9.03871186892502e-05,3.758774619200267e-05,4.587304647429846e-05,6.337430386338383e-05
-3.811622445937246e-05,8.534250810043886e-05,2.2985843315836973e-05,2.7167463485966437e-05,6.991263217059895e-05
-3.748250310309231e-05,7.98155742813833e-05,1.5056203665153589e-05,1.4060389730730094e-05,7.502253720303997e-05
-3.8140449760248885e-05,7.670190097996965e-05,1.3603134902950842e-05,6.592881163669517e-06,7.212578202597797e-05
-3.8913629396120086e-05,7.550462032668293e-05,1.4397379345609806e-05,-3.315728633879189e-07,6.59782235743478e-05
-4.3223622924415395e-05,6.030018630553968e-05,1.148226874647662e-05,-1.0037225365522318e-05,6.289732846198604e-05
-4.3757918319897726e-05,3.145601658616215e-05,3.5245113849668996e-06,-1.9793367755482905e-05,6.22250372543931e-05
-3.713913247338496e-05,1.2963390872755554e-05,-6.515944733109791e-06,-2.7580785172176547e-05,6.391458009602502e-05
-3.070083766942844e-05,1.1841749255836476e-05,-1.3104327081236988e-05,-3.3865693694679067e-05,6.663852400379255e-05
-3.0729373975191265e-05,1.4475753232545685e-05,-1.638482353882864e-05,-4.100045407540165e-05,6.702981045236811e-05
-3.131661651423201e-05,1.1859943697345443e-05,-1.968054857570678e-05,-4.706104300566949e-05,6.45005566184409e-05
-2.5849929443211295e-05,8.840578630042728e-06,-2.0970013792975806e-05,-4.595593418343924e-05,6.184918311191723e-05
-1.6511401554453187e-05,6.904886959091527e-06,-2.0570521883200854e-05,-3.635728717199527e-05,6.08233422099147e-05
-8.944816727307625e-06,8.831790182739496e-06,-1.8820070181391202e-05,-2.6422976588946767e-05,6.24975873506628e-05
-1.13848927867366e-05,1.7720549294608645e-05,-1.5137655282160267e-05,-2.7604186470853165e-05,6.263600516831502e-05
-2.281654997204896e-05,2.878631858038716e-05,-1.0607663170958403e-05,-3.895728150382638e-05,5.6415221479255706e-05
-3.15824945573695e-05,3.72749927919358e-05,-1.0495530659682117e-05,-4.451762652024627e-05,4.908288610749878e-05
-3.1961975764716044e-05,4.424633152666502e-05,-1.123908532463247e-05,-3.933188781957142e-05,4.7670473577454686e-05
-2.647634937602561e-05,5.067513484391384e-05,-8.01933401817223e-06,-2.5640572857810184e-05,5.143254020367749e-05
-2.1264379029162228e-05,4.958657154929824e-05,-3.127835270788637e-06,-1.0640073924150784e-05,5.757337567047216e-05
-1.5863939552218653e-05,4.1989020246546715e-05,-9.031772378875758e-07,6.133677743491717e-07,6.261300586629659e-05
-6.9722441367048305e-06,2.882321859942749e-05,1.5616757309544482e-07,6.949363068997627e-06,6.510314415208995e-05
-6.732520887453575e-06,2.3810454877093434e-05,5.365513516153442e-06,1.346174394711852e-05,6.40377911622636e-05
-1.7061871403711848e-05,3.8685830077156425e-05,8.00242560217157e-06,1.8567901861388236e-05,6.129523535491899e-05
-2.74909361905884e-05,5.2610455895774066e-05,2.6381367206340656e-06,1.744672772474587e-05,6.161038618301973e-05
-3.412602745811455e-05,5.5873846577014774e-05,-8.65028596308548e-06,1.215951851918362e-05,5.8489815273787826e-05
-3.696535713970661e-05,4.7896675823722035e-05,-1.7934635252458975e-05,7.761820597806945e-06,5.3826872317586094e-05
-3.628464764915407e-05,3.410932913539e-05,-1.622376476007048e-05,8.521434210706502e-06,5.367735866457224e-05
-3.317490700283088e-05,2.9928851290605962e-05,-9.07944286154816e-06,4.616569640347734e-06,5.644238626700826e-05
-2.7014582883566618e-05,3.3311520382994786e-05,-3.2602804367343197e-06,-7.811867362761404e-06,5.76655802433379e-05
-2.3466804123017937e-05,3.188784830854274e-05,-3.073130983466399e-06,-2.5979141355492175e-05,5.794273238279857e-05
-2.540630339353811e-05,3.104342249571346e-05,-3.932510026061209e-06,-3.757861122721806e-05,5.8262015954824165e-05
-2.8852147806901485e-05,3.1502444471698254e-05,-1.994229705815087e-06,-4.170005558989942e-05,5.988900738884695e-05
-3.369331534486264e-05,2.9889162760809995e-05,2.4197306629503146e-06,-4.033262302982621e-05,6.095237404224463e-05
-3.708381700562313e-05,3.392263897694647e-05,5.576972853305051e-06,-3.49028741766233e-05,6.074514749343507e-05
-3.669956640806049e-05,4.545731644611806e-05,7.617382379976334e-06,-2.994088026753161e-05,6.151258276076987e-05
-3.324837234686129e-05,5.379080539569259e-05,1.1852655916300137e-05,-2.4181183107430115e-05,6.353414210025221e-05
-2.855382626876235e-05,4.963124592904933e-05,1.579185300215613e-05,-1.6151334421010688e-05,6.585748633369803e-05
-2.702622805372812e-05,3.6240293411538005e-05,1.7599351849639788e-05,-5.4022675612941384e-06,6.734990165568888e-05
-2.949627196358051e-05,1.980915476451628e-05,1.7314046999672428e-05,1.566356672810798e-06,6.706629210384563e-05
-2.9142765924916603e-05,6.23237383479136e-06,1.9316134057589807e-05,2.129569793396513e-06,6.441560253733769e-05
-1.933294151967857e-05,-2.533182168917847e-06,2.439591844449751e-05,1.114960070935922e-07,6.149004912003875e-05
-6.698376637359615e-06,-6.026562459737761e-06,2.9665990950888954e-05,-1.3739271480517345e-06,6.091489194659516e-05
-1.6252506611635908e-06,-8.384088687307667e-06,3.205638495273888e-05,-4.962926595908357e-06,6.0950802435399964e-05
-3.6359635942062596e-06,-1.3734598724113312e-05,3.319970710435882e-05,-1.106306808651425e-05,6.121904880274087e-05
-4.848340722674038e-06,-2.8157339329482056e-05,3.33038333337754e-05,-1.799949495762121e-05,6.210825085872784e-05
-2.5824212457337126e-07,-3.925376586266793e-05,3.329005994601175e-05,-1.8839025869965553e-05,5.78079852857627e-05
4.8302795221388806e-06,-2.9223414458101615e-05,3.0962168239057064e-05,-1.527155291114468e-05,5.2615836466429755e-05
5.8339446695754305e-06,-1.484889435232617e-05,2.3021255401545204e-05,-1.591157342772931e-05,4.9670052248984575e-05
1.4479800825029088e-07,-2.877348379115574e-06,1.4241122698877007e-05,-2.8667020160355605e-05,4.710144639830105e-05
-1.7401607692590915e-05,2.92592139885528e-05,8.378558959520888e-06,-4.2872845369856805e-05,4.6852972445776686e-05
-3.6639881727751344e-05,7.545681728515774e-05,2.334926875846577e-06,-4.546723357634619e-05,5.009411324863322e-05
-4.284000169718638e-05,0.00010728074266808107,-1.8404928141535493e-06,-4.101920785615221e-05,5.2158895414322615e-05
-4.027787872473709e-05,0.000121456672786735,-3.3529231586726382e-06,-3.913397449650802e-05,5.093241634313017e-05
-3.668616773211397e-05,0.00013593466428574175,-7.761588676657993e-06,-4.020372580271214e-05,5.0129670853493735e-05
-3.1858624424785376e-05,0.0001763820619089529,-1.5098241419764236e-05,-3.7706460716435686e-05,5.10157915414311e-05
-3.187786933267489e-05,0.0002328427362954244,-2.3851576770539396e-05,-3.625061799539253e-05,5.0019643822452053e-05
-4.232449646224268e-05,0.00025028694653883576,-3.3376043575117365e-05,-4.300814543967135e-05,5.177508501219563e-05
-5.616492126137018e-05,0.00022038038878235966,-4.110167719773017e-05,-5.578751733992249e-05,5.5607728427276015e-05
-6.365359877236187e-05,0.0001699129061307758,-4.5343924284679815e-05,-6.553363346029073e-05,5.7488206948619336e-05
-5.864267950528301e-05,0.00010996298806276172,-4.460109994397499e-05,-6.548957753693685e-05,5.478314415086061e-05
-4.366754001239315e-05,4.6751276386203244e-05,-4.118281140108593e-05,-5.716392115573399e-05,5.299103577272035e-05
-2.4455581296933815e-05,-1.7673413594820886e-06,-3.66138519893866e-05,-5.182324821362272e-05,5.552230140892789e-05
-1.1254949640715495e-05,-3.0408107704715803e-05,-3.1591782317264006e-05,-5.474788122228347e-05,5.851778041687794e-05
-5.3885087254457176e-06,-5.583462552749552e-05,-3.1044924980960786e-05,-5.840152516611852e-05,6.0032554756617174e-05
-3.711929366545519e-06,-8.804256503935903e-05,-3.525533975334838e-05,-5.059051909483969e-05,6.049426883691922e-05
-2.9533382530644303e-06,-0.0001378617453156039,-3.752007978619076e-05,-3.325996658531949e-05,6.112270784797147e-05
-8.53394226396631e-08,-0.0001996532519115135,-3.478468715911731e-05,-1.254002381756436e-05,6.262991519179195e-05
3.4871416119131027e-06,-0.00021729397121816874,-3.0090892323642038e-05,1.0641701919666957e-05,6.494968693004921e-05
2.353315039727022e-06,-0.00014767487300559878,-2.278284046042245e-05,3.288293009973131e-05,6.502405449282378e-05
-7.311891749850474e-06,-4.720674405689351e-05,-1.0635577382345218e-05,4.399548561195843e-05,6.452348316088319e-05
-1.5602736311848275e-05,4.542602709989296e-06,5.0264720812265296e-06,3.8853751902934164e-05,6.106684304540977e-05
-1.9230832549510524e-05,6.742211553500965e-06,1.9870783944497816e-05,2.940214835689403e-05,5.799957943963818e-05
-2.252664853585884e-05,2.7588816919887904e-06,3.082123294007033e-05,3.212453520973213e-05,5.808819696540013e-05
-3.0342429454321973e-05,6.157860070743482e-07,3.3143398468382657e-05,4.445465674507432e-05,5.735787999583408e-05
-4.4742391764884815e-05,-4.585156602843199e-06,2.801324808388017e-05,4.729957436211407e-05,5.2140305342618376e-05
-5.5109569075284526e-05,-6.564380328200059e-06,2.567502269812394e-05,3.407002077437937e-05,4.9598726036492735e-05
-5.451164179248735e-05,3.1749675599712646e-06,2.599646722956095e-05,1.606679506949149e-05,5.1689006795641035e-05
-4.86639873997774e-05,1.5238009837048594e-05,2.3863858586992137e-05,-3.638939688244136e-06,5.436646824819036e-05
-4.574993727146648e-05,2.0725423382828012e-05,1.799994242901448e-05,-1.911361687234603e-05,5.4566891776630655e-05
-4.115721822017804e-05,2.606776797620114e-05,9.554649295751005e-06,-2.866402610379737e-05,5.279531978885643e-05
-3.136292798444629e-05,3.133709469693713e-05,3.2311208997271024e-06,-3.3071337384171784e-05,5.1837163482559845e-05
-2.553984995756764e-05,3.29469439748209e-05,-2.319838813491515e-06,-2.6427085686009377e-05,5.326275640982203e-05
-2.319485975021962e-05,3.401965295779519e-05,-3.586796310628415e-06,-1.5536857972620055e-05,5.632473039440811e-05
-2.1241805370664224e-05,3.983243368566036e-05,1.6471617527713533e-06,-2.511602815502556e-06,5.8868190535577014e-05
-1.9429277017479762e-05,4.079670179635286e-05,8.322887879330665e-06,9.435199899598956e-06,6.269010191317648e-05
-1.9572429664549418e-05,3.352165731485002e-05,1.2824395525967702e-05,1.9541535948519595e-05,6.761212716810405e-05
-2.1637777535943314e-05,2.3621685613761656e-05,1.508982040832052e-05,2.7117406716570258e-05,6.951722753001377e-05
-2.6126373995793983e-05,1.56088535732124e-05,1.6647189113427885e-05,3.250350710004568e-05,6.672009476460516e-05
-3.0476921892841347e-05,1.3530291653296445e-05,1.85666012839647e-05,3.368574471096508e-05,6.41383885522373e-05
-3.255628689657897e-05,2.0445933841983788e-05,2.2843632905278355e-05,2.8822116291848943e-05,6.312618643278256e-05
-3.360201299074106e-05,3.0496044928440824e-05,2.6975307264365256e-05,2.1625814042636193e-05,5.889925887458958e-05
-3.702192771015689e-05,3.7302772398106754e-05,2.832704376487527e-05,1.716691258479841e-05,5.160970977158286e-05
-4.1587794839870185e-05,4.003385765827261e-05,2.658978155523073e-05,9.194716767524369e-06,4.660285412683152e-05
-4.245731543051079e-05,4.222787538310513e-05,2.324855449842289e-05,-1.0320625733584166e-05,4.549985169433057e-05
-3.751805343199521e-05,4.6736040530959144e-05,2.0806186512345448e-05,-2.9498345611500554e-05,4.456572060007602e-05
-3.0542589229298756e-05,5.260392208583653e-05,1.974445149244275e-05,-3.9193171687657014e-05,4.586171417031437e-05
-2.5317651306977496e-05,6.023704190738499e-05,1.898658592836e-05,-4.124750557821244e-05,5.621172022074461e-05
-2.4028915504459292e-05,6.185940583236516e-05,1.8534627088229172e-05,-3.624196324381046e-05,6.931463576620445e-05
-2.6891970264841802e-05,4.8160778533201665e-05,1.823648199206218e-05,-2.7277003027847968e-05,7.362960604950786e-05
-2.959827907034196e-05,2.155658876290545e-05,1.727377821225673e-05,-2.132268127752468e-05,6.677706551272422e-05
-3.0079758289502934e-05,-1.7033407857525162e-06,1.6926482203416526e-05,-1.4123788787401281e-05,5.8793197240447626e-05
-2.5024488422786817e-05,-4.78297624795232e-06,2.040049366769381e-05,-3.620818631588918e-07,5.49593532923609e-05
-2.4352193577215075e-05,1.413422705809353e-05,2.748698170762509e-05,2.0554809452733025e-05,5.308385152602568e-05
-3.188976552337408e-05,3.99742420995608e-05,3.3774544135667384e-05,3.9616112189833075e-05,4.829686076845974e-05
-3.133559584966861e-05,6.069481969461776e-05,3.628529520938173e-05,5.2934829000150785e-05,4.46062367700506e-05
-2.0016981579829007e-05,6.33061135886237e-05,3.71805508621037e-05,5.659745875163935e-05,5.124913150211796e-05
-1.6288870028802194e-05,5.2147523092571646e-05,3.530953836161643e-05,3.9858550735516474e-05,6.440828292397782e-05
-1.608206184755545e-05,4.195719156996347e-05,2.7090289222542197e-05,5.165022685105214e-06,7.506780093535781e-05
-1.1289920621493366e-05,3.543313141562976e-05,1.356380289507797e-05,-3.275051494711079e-05,8.088867616606876e-05
-6.906261205585906e-06,4.524509495240636e-05,3.0387318474822678e-06,-5.368043275666423e-05,8.601031731814146e-05
-4.185072157270042e-06,5.795168908662163e-05,8.994260269901133e-07,-5.403822069638409e-05,8.64872126840055e-05
-5.294690708979033e-06,5.329820851329714e-05,2.755863533820957e-06,-4.457255272427574e-05,8.275375876110047e-05
-5.509476068255026e-06,3.8799724279670045e-05,4.078262463735882e-06,-4.1052160668186843e-05,7.764487963868305e-05
-5.988659722788725e-06,3.186170579283498e-05,3.1628203487343853e-06,-5.185815098229796e-05,7.079747592797503e-05
-9.079503797693178e-06,2.9016182452323847e-05,-2.470188064762624e-06,-6.897222192492336e-05,6.397655670298263e-05
-1.2161866834503599e-05,1.4983481378294528e-05,-1.6792064343462698e-05,-8.668348891660571e-05,6.111249240348116e-05
-1.538096876174677e-05,-8.898684427549597e-06,-4.01325523853302e-05,-0.0001081923910533078,6.435848627006635e-05
-1.5768000594107434e-05,-2.37941239902284e-05,-6.31344155408442e-05,-0.00012670377327594906,6.913847755640745e-05
-1.2626361240108963e-05,-2.2644398995907977e-05,-7.217009988380596e-05,-0.00012815794616471976,7.169372111093253e-05
-9.758988198882435e-06,-1.5917403288767673e-05,-6.436624244088307e-05,-0.00011275446740910411,7.00417222105898e-05
-9.386359124619048e-06,-1.2678451639658306e-05,-4.7914225433487445e-05,-8.894578786566854e-05,6.821711576776579e-05
-1.3987963029649109e-05,-1.8831855413736776e-05,-3.262938480474986e-05,-6.472347013186663e-05,6.766215665265918e-05
-2.9197553885751404e-05,-2.199685877712909e-05,-2.0685089111793786e-05,-4.527132477960549e-05,6.528706580866128e-05
-4.583046029438265e-05,1.3498665794031695e-06,-4.7280082071665674e-06,-2.5785815523704514e-05,6.119544559624046e-05
-5.170926669961773e-05,4.508987331064418e-05,1.7379363271174952e-05,-1.0455459005243029e-06,6.309385935310274e-05
-5.30784236616455e-05,7.771537639200687e-05,3.4370954381302e-05,1.9892098862328567e-05,6.782594573451206e-05
-5.180356674827635e-05,9.497655264567584e-05,4.309335054131225e-05,3.6909426853526384e-05,6.777131056878716e-05
-4.084723332198337e-05,9.37431541387923e-05,5.137573680258356e-05,5.528675683308393e-05,6.131522241048515e-05
-2.6388235710328445e-05,6.427338666981086e-05,6.16406905464828e-05,7.169813034124672e-05,5.1558901759563014e-05
-1.558024996484164e-05,1.8147900846088305e-05,6.742894038325176e-05,8.32992373034358e-05,4.4537195208249614e-05
-7.169071068346966e-06,-3.101478796452284e-06,6.143311475170776e-05,9.69014290603809e-05,4.3505249777808785e-05
-1.2279781458346406e-06,1.043235715769697e-05,5.0184135034214705e-05,0.0001138391307904385,4.543058457784355e-05
2.0185395896987757e-06,3.8429756386904046e-05,4.082719897269271e-05,0.00012324580166023225,4.641500345314853e-05
-3.7770896597066894e-06,6.82907848386094e-05,3.1081839551916346e-05,0.00011468707089079544,4.704760431195609e-05
-1.4451499737333506e-05,8.990155765786767e-05,1.98096277017612e-05,9.38258453970775e-05,4.5466538722394034e-05
-2.0032748579978943e-05,0.00010865755757549778,6.508807928184979e-06,7.073403685353696e-05,4.653782525565475e-05
-2.163143471989315e-05,0.00011292105773463845,-6.58620865578996e-06,3.1891649996396154e-05,4.5761575165670365e-05
-2.2214419004740193e-05,9.394616063218564e-05,-1.4254334928409662e-05,-1.652817809372209e-05,4.179282041150145e-05
-2.9227128834463656e-05,6.427413609344512e-05,-1.5126147445698734e-05,-5.5448716011596844e-05,3.835010647890158e-05
-4.256107422406785e-05,3.849343556794338e-05,-1.37060706038028e-05,-7.789558731019497e-05,3.4860324376495555e-05
-4.922763037029654e-05,3.035295412701089e-05,-1.2533435437944718e-05,-8.323373913299292e-05,3.285605271230452e-05
-4.133919719606638e-05,3.570588887669146e-05,-1.1331499081279617e-05,-7.311344234040007e-05,3.738233135663904e-05
-2.716640847211238e-05,2.6917123250314035e-05,-9.009718269226141e-06,-4.87934157717973e-05,4.784527118317783e-05
-1.7254473277716897e-05,5.514380518434336e-06,-5.940042228758102e-06,-1.5735375200165436e-05,5.777873229817487e-05
-1.0558365829638205e-05,-3.3141402582259616e-06,-1.511567461420782e-06,1.858211908256635e-05,6.44771644147113e-05
-8.516514753864612e-06,9.192114703182597e-06,9.18981072572933e-07,4.638772225007415e-05,6.778146052965894e-05
-1.3002234481973574e-05,3.048625512747094e-05,4.126667079162871e-07,6.285355630097911e-05,6.646433030255139e-05
-2.1076191842439584e-05,4.5190288801677525e-05,3.321164285807754e-06,6.483715696958825e-05,6.153098365757614e-05
-2.7421931008575484e-05,4.891322896583006e-05,8.777563380135689e-06,4.474513843888417e-05,5.9432644775370136e-05
-2.8950853447895497e-05,4.99292800668627e-05,1.140451968240086e-05,4.2825527089007664e-06,6.234768807189539e-05
-2.58044819929637e-05,5.723906360799447e-05,1.0666678463167045e-05,-4.416495721670799e-05,6.885393668198958e-05
-2.4722561647649854e-05,5.9066718677058816e-05,1.0491444299987052e-05,-0.00010669745097402483,7.38172821002081e-05
-3.0818977393209934e-05,4.6873639803379774e-05,7.755099431960844e-06,-0.0001886841346276924,6.989772373344749e-05
-3.921159805031493e-05,3.4073094866471365e-05,2.2839661539819645e-07,-0.0002532852522563189,6.031607699696906e-05
-4.647610694519244e-05,2.8946544261998497e-05,-6.36630511507974e-06,-0.0002562253794167191,5.7299959735246375e-05
-4.7126370191108435e-05,2.5057637685677037e-05,-1.0746740372269414e-05,-0.000209273406653665,5.749462798121385e-05
-4.2829000449273735e-05,1.2313592378632165e-05,-1.7110356566263363e-05,-0.00013486758689396083,5.73267498111818e-05
-3.8587932067457587e-05,-1.443568635295378e-05,-2.112834954459686e-05,-4.9533253331901506e-05,5.8577254094416276e-05
-3.436997576500289e-05,-2.785521610348951e-05,-1.3610018868348561e-05,3.6488683690549806e-05,5.884096390218474e-05
-3.328626189613715e-05,-1.3691884305444546e-05,4.460446689336095e-06,0.0001256730465684086,6.071218740544282e-05
-3.8654819945804775e-05,9.932306056725793e-06,2.0264533304725774e-05,0.00019536538457032293,6.37000921415165e-05
-4.3528416426852345e-05,3.864641621476039e-05,3.0949631764087826e-05,0.00019982857338618487,5.9406665968708694e-05
-3.7949823308736086e-05,7.251011993503198e-05,4.023448855150491e-05,0.00012570133549161255,5.135105675435625e-05
-2.6783980501932092e-05,9.241837688023224e-05,4.616118167177774e-05,2.3495735149481334e-05,4.781816096510738e-05
-1.81058840098558e-05,8.389422146137804e-05,4.8578265705145895e-05,-5.2970390242990106e-05,4.654072836274281e-05
-1.5377308955066837e-05,5.9586218412732705e-05,4.6279499656520784e-05,-8.092786447377875e-05,4.592470213538036e-05
-1.5475616237381473e-05,3.9363669202430174e-05,4.1690418584039435e-05,-6.704480620101094e-05,4.857094609178603e-05
-1.1688533959386405e-05,2.6628715204424225e-05,3.717478830367327e-05,-2.582155866548419e-05,5.1787439588224515e-05
-6.035678779880982e-06,2.2438216547016054e-05,2.9806200473103672e-05,2.742735705396626e-05,5.0430688133928925e-05
-6.045410827937303e-06,1.872913708211854e-05,1.786338361853268e-05,7.699878915445879e-05,5.100419366499409e-05
-1.0365175512561109e-05,-1.813522203519824e-06,8.272462764580268e-06,0.00011632200767053291,6.128763197921216e-05
-1.9307684851810336e-05,-3.4723761928034946e-05,7.7444583439501e-06,0.0001480606006225571,7.498116610804573e-05
-3.665183248813264e-05,-5.952444553258829e-05,2.0171451978967525e-05,0.0001742394088068977,8.36308317957446e-05
-5.634249828290194e-05,-6.913180550327525e-05,4.1221279388992116e-05,0.0001939146313816309,8.540799899492413e-05
-6.491385283879936e-05,-6.06612375122495e-05,5.642297401209362e-05,0.00019903537759091705,7.870593981351703e-05
-5.9825841162819415e-05,-1.665901618252974e-05,6.190408748807386e-05,0.00017477099027018994,6.59640136291273e-05
-5.0012222345685586e-05,5.941875861026347e-05,5.960277485428378e-05,0.00011502634879434481,5.916137160966173e-05
-3.892047607223503e-05,0.00012182981299702078,4.360648017609492e-05,3.216715413145721e-05,6.178695184644312e-05
-2.7749443688662723e-05,0.00012081123713869601,1.5596657249261625e-05,-4.8762598453322425e-05,6.681796367047355e-05
-2.2282714780885726e-05,4.714506940217689e-05,-7.0489459176314995e-06,-0.000110227832919918,6.928691436769441e-05
-2.1519821530091576e-05,-4.421859921421856e-05,-1.655102641962003e-05,-0.0001362150360364467,6.7084954935126e-05
-1.7404034224455245e-05,-8.008188888197765e-05,-2.03721720026806e-05,-0.0001465565146645531,6.476473936345428e-05
-1.9064671505475417e-05,-7.288299093488604e-05,-2.649924499564804e-05,-0.00017831468721851707,6.263062095968053e-05
-2.1581579858320765e-05,-4.1415994928684086e-05,-4.356853969511576e-05,-0.00023960480757523328,6.284921255428344e-05
-8.070548574323766e-06,2.6869383873417974e-05,-6.733601912856102e-05,-0.00028852885589003563,6.25055909040384e-05
9.029979992192239e-06,8.082927524810657e-05,-8.009661542018875e-05,-0.00029058000654913485,6.392879004124552e-05
1.4138558071863372e-05,7.648105383850634e-05,-8.264600182883441e-05,-0.00025757955154404044,6.88910367898643e-05
1.2848543519794475e-05,3.021489828824997e-05,-8.149621862685308e-05,-0.00019588098803069443,7.046646351227537e-05
6.973355084483046e-06,-1.0083425650009303e-06,-7.625106809427962e-05,-0.00011996308603556827,7.140433444874361e-05
-8.985456588561647e-06,3.273870242992416e-05,-6.396022217813879e-05,-4.375392018118873e-05,7.370781531790271e-05
-2.7841433620778844e-05,0.00010212476627202705,-4.537778295343742e-05,2.6563720894046128e-05,7.572551839984953e-05
-3.179342093062587e-05,0.0001320754672633484,-2.6810370400198735e-05,8.536830137018114e-05,7.594486669404432e-05
-2.0632947780541144e-05,7.865254883654416e-05,-4.46270132670179e-06,0.00011503650603117421,7.535282202297822e-05
-9.222007065545768e-06,-1.7912565454025753e-05,2.0651983504649252e-05,0.0001134453050326556,7.059738709358498e-05
-1.3656342616741313e-06,-7.156472565839067e-05,4.123893450014293e-05,9.926190250553191e-05,6.502152973553166e-05
4.743064437207067e-06,-5.366039840737358e-05,5.587873965851031e-05,9.203331137541682e-05,6.3422201492358e-05
7.581001682410715e-06,-9.381202289659996e-06,6.563142233062536e-05,9.809971379581839e-05,6.410190690075979e-05
-1.0516284874029225e-06,1.3461247363011353e-05,7.346799247898161e-05,0.00010776297131087631,5.9031619457527995e-05
-2.207802936027292e-05,1.0113473763340153e-05,7.733815436949953e-05,0.00010622788249747828,4.675456148106605e-05
-4.064521272084676e-05,2.5085405468416866e-06,7.00340824550949e-05,8.599659486208111e-05,3.836943506030366e-05
-4.17528317484539e-05,6.105162242420192e-07,5.030672764405608e-05,5.899816096643917e-05,4.008842370240018e-05
-2.2585301849176176e-05,-3.410331828490598e-06,2.669775676622521e-05,3.537066004355438e-05,4.67761346953921e-05
9.127657563112734e-08,-8.46292641654145e-06,1.0072258191939909e-05,1.0618535270623397e-05,5.212404721532948e-05
5.18725346410065e-06,-3.7642757888534106e-06,4.008584255643655e-06,-2.2996642655925825e-05,5.648642763844691e-05
-5.744041573052527e-06,1.072480790753616e-05,-6.693281875413959e-07,-5.533062358153984e-05,5.945084922132082e-05
-1.6542953744647093e-05,2.6133760911761783e-05,-8.052697012317367e-06,-7.547516725026071e-05,6.26499459031038e-05
-2.2959295165492222e-05,3.790307528106496e-05,-8.656764293846209e-06,-7.663652650080621e-05,6.409474008250982e-05
-2.9048822398181073e-05,4.50435618404299e-05,-3.4357071854174137e-06,-6.425489118555561e-05,6.493401451734826e-05
-3.152604040224105e-05,5.156697079655714e-05,-3.304657809621858e-07,-4.837601227336563e-05,6.582303467439488e-05
-3.033358370885253e-05,6.240943184820935e-05,4.338436610851204e-06,-3.3962864108616486e-05,6.422411388484761e-05
-2.9822986107319593e-05,7.409672980429605e-05,8.499113391735591e-06,-1.562723991810344e-05,6.172284338390455e-05
-3.1304989533964545e-05,6.334162026178092e-05,1.0794926311064046e-05,9.387936188431922e-06,6.14714008406736e-05
-3.4897664590971544e-05,4.1934996261261404e-05,1.63409931701608e-05,2.493557258276269e-05,6.146628584247082e-05
-3.765643123188056e-05,4.5074080844642594e-05,1.6350521036656573e-05,2.4455792299704626e-05,5.778283957624808e-05
-4.256044121575542e-05,5.790404247818515e-05,1.2988359230803326e-05,2.1600832042167895e-05,5.077902096672915e-05
-4.7896850446704775e-05,6.23136802460067e-05,1.5243822417687625e-05,1.2745504136546515e-05,4.2056733946083114e-05
-4.3855427065864205e-05,6.315415521385148e-05,1.6949841665336862e-05,-1.7748809113982134e-05,3.6620604078052565e-05
-3.936817665817216e-05,6.335766374832019e-05,1.3388775187195279e-05,-6.155990558909252e-05,3.577299867174588e-05
-4.156902286922559e-05,5.650545790558681e-05,9.019149729283527e-06,-0.00010196406219620258,3.780413680942729e-05
-4.568753138300963e-05,4.3803378503071144e-05,2.8879808269266505e-06,-0.0001252882502740249,4.511845327215269e-05
-5.156096813152544e-05,2.8497319362941198e-05,-3.234913720007171e-06,-0.00012248277198523283,5.978245098958723e-05
-5.806588887935504e-05,1.8216036551166326e-05,-6.178237072163029e-06,-0.00010060274507850409,7.474963058484718e-05
-6.058880899217911e-05,2.100394522130955e-05,-6.955755452509038e-06,-7.02903198543936e-05,8.643215551273897e-05
-5.7302826462546363e-05,2.9864020689274184e-05,-7.844467290851753e-06,-4.575522689265199e-05,9.55144059844315e-05
-4.8998168495018035e-05,3.898565046256408e-05,-1.4828863641014323e-05,-4.719671414932236e-05,0.00010127628775080666
-3.8673133531119674e-05,5.2692492317873985e-05,-2.684370701899752e-05,-7.588744483655319e-05,0.00010199400276178494
-3.089903111685999e-05,6.170751294121146e-05,-3.4476186556275934e-05,-0.00010550628940109164,9.732348553370684e-05
-2.955799936898984e-05,4.448540130397305e-05,-3.3281314244959503e-05,-0.00011697239096974954,8.494991925545037e-05
-3.0533457902492955e-05,4.652845291275298e-06,-2.9189515771577135e-05,-0.0001124748814618215,6.339493120322004e-05
-2.6245845219818875e-05,-3.6434495996218175e-05,-2.5620180167607032e-05,-9.992916602641344e-05,3.6889636248815805e-05
-2.0690597011707723e-05,-5.998155756969936e-05,-2.186295205319766e-05,-8.430519665125757e-05,1.535310730105266e-05
-1.7265749193029478e-05,-5.870432869414799e-05,-1.4253037988964934e-05,-5.806877015857026e-05,1.4957316125219222e-05
-1.0878681678150315e-05,-4.7873607400106266e-05,-3.331379502924392e-06,-1.3469270925270393e-05,4.0597642509965226e-05
-3.071090304729296e-06,-4.223229188937694e-05,1.0037683750852011e-05,4.1731873352546245e-05,7.028396794339642e-05
-9.5837970093271e-07,-2.850927739928011e-05,2.7318044885760173e-05,9.389188926434144e-05,7.245979213621467e-05
-7.227325113490224e-06,6.661227416770998e-06,4.893656659987755e-05,0.0001401345361955464,5.1876668294426054e-05
-1.656604763411451e-05,5.852567483088933e-05,6.93422116455622e-05,0.0001688531192485243,3.407599433558062e-05
-2.2187106878845952e-05,0.00011061936675105244,7.292248483281583e-05,0.00017102283891290426,2.9359798645600677e-05
-2.4410430341959e-05,0.0001495423639426008,6.269229925237596e-05,0.00015898769197519869,3.411565558053553e-05
-2.5577732230885886e-05,0.00017568339535500854,4.959012585459277e-05,0.000140118325361982,4.443411671672948e-05
-2.725436024775263e-05,0.00018810501205734909,3.318349627079442e-05,0.00011477773659862578,5.0154063501395285e-05
-2.9044238544884138e-05,0.00017896028293762356,1.8230695786769502e-05,9.136299922829494e-05,4.984424595022574e-05
-2.8260101316845976e-05,0.00014774037117604166,4.800090664502932e-06,7.090486178640276e-05,5.067474558018148e-05
-2.6164791051996872e-05,0.00010300816938979551,-6.0963207033637445e-06,4.7469518904108554e-05,5.237821824266575e-05
-2.5730136258061975e-05,6.419959390768781e-05,-1.1583078048715834e-05,2.6951114705298096e-05,5.46811061212793e-05
-2.4009957996895537e-05,4.29551764682401e-05,-1.1427619028836489e-05,1.611901279829908e-05,5.39436332473997e-05
-2.1212365027167834e-05,3.122394628007896e-05,-5.604002581094392e-06,1.19441547212773e-05,5.279977267491631e-05
-1.846807572292164e-05,1.6034226064221002e-05,3.5011096315429313e-06,1.2773691196343862e-05,5.036155926063657e-05
-2.1024789020884782e-05,4.035209258290706e-06,1.287102986680111e-05,1.749407238094136e-05,4.8251618864014745e-05
-2.5413108232896775e-05,-7.971560989972204e-06,1.8129145246348344e-05,2.3004426111583598e-05,5.031028558732942e-05
-2.371207119722385e-05,-2.65644248429453e-05,1.812453592719976e-05,2.270254299219232e-05,5.443876580102369e-05
-2.0926696379319765e-05,-3.7947349483147264e-05,1.1279979844402988e-05,1.3980958101456054e-05,5.634894478134811e-05
-2.4284159735543653e-05,-2.828383003361523e-05,1.700263283055392e-06,-3.1834601941227447e-06,5.570902067120187e-05
-3.181541251251474e-05,-5.104449428472435e-06,-8.656178579258267e-06,-2.3174025045591407e-05,5.597985000349581e-05
-3.509177622618154e-05,1.0333420505048707e-05,-1.8607572201290168e-05,-4.1086372220888734e-05,5.698965469491668e-05
-3.583427314879373e-05,1.374266230413923e-05,-2.414745722489897e-05,-6.040773951099254e-05,5.845826672157273e-05
-4.0010181692196056e-05,1.4794672097195871e-05,-2.3921693355077878e-05,-8.352567965630442e-05,5.893771958653815e-05
-4.837975211557932e-05,1.8349337551626377e-05,-2.0859750293311663e-05,-0.00010413767449790612,6.032771852915175e-05
-5.530328053282574e-05,2.237256194348447e-05,-1.5757403161842376e-05,-0.00011163965973537415,6.375653902068734e-05
-5.816074553877115e-05,2.6060884920298122e-05,-7.704761628701817e-06,-0.00010610663593979552,6.493349792435765e-05
-5.9706766478484496e-05,2.6874276954913512e-05,-1.5637150454494986e-06,-9.757708903634921e-05,6.281269452301785e-05
-5.656769280903973e-05,3.0449751648120582e-05,-3.4679460441111587e-06,-9.606158710084856e-05,6.062134343665093e-05
-4.8671168769942597e-05,3.2281692256219685e-05,-1.2370026524877176e-05,-0.00010050999844679609,6.294125341810286e-05
-4.243629518896341e-05,2.8434727937565185e-05,-1.7757824025466107e-05,-9.308494190918282e-05,6.886395567562431e-05
-3.898134673363529e-05,2.4796441721264273e-05,-1.553264337417204e-05,-6.941358878975734e-05,6.739840318914503e-05
-3.6133053072262555e-05,2.597818456706591e-05,-9.207840776070952e-06,-4.094063842785545e-05,5.744622103520669e-05
-2.8604377803276293e-05,2.3926033463794738e-05,1.88495789643639e-06,-1.1854634976771194e-05,4.784134216606617e-05
-2.4557948563597165e-05,2.7325324481353164e-05,1.6168682122952305e-05,5.620700449071592e-06,4.1238818084821105e-05
-2.3784114091540687e-05,3.991973426309414e-05,2.649606904014945e-05,2.0367737306514755e-05,3.73999573639594e-05
-2.189660881413147e-05,4.249756602803245e-05,3.117440064670518e-05,3.214948083041236e-05,3.8596503145527095e-05
-1.3737439076066948e-05,3.203026790288277e-05,3.188340269844048e-05,2.6530047762207687e-05,4.367533256299794e-05
4.507235644268803e-06,1.5191896636679303e-05,2.6579735276754946e-05,1.8261034711031243e-06,5.208536458667368e-05
1.5638912373105995e-05,3.1595384371030377e-06,1.3956572729512118e-05,-2.884857531171292e-05,6.236747867660597e-05
9.160745321423747e-06,5.915127530897735e-06,2.9405598525045207e-06,-3.6966717743780464e-05,7.108271529432386e-05
-9.943712029780727e-06,1.981223795155529e-05,7.126152468117652e-07,-2.0322080672485754e-05,7.265425665536895e-05
-2.4482918888679706e-05,3.102616028627381e-05,3.1447657420358155e-06,-1.2292206292841001e-06,6.811851199017838e-05
-3.11760013573803e-05,3.4126122045563534e-05,-4.944263878314814e-07,-2.2383517261914676e-06,6.440405559260398e-05
-3.5898949136026204e-05,3.220299186068587e-05,-7.898264811956324e-06,-1.7208971257787198e-05,6.259854853851721e-05
-4.3938325688941404e-05,2.9206341423559934e-05,-7.172688583523268e-06,-2.3736605726298876e-05,5.9405676438473165e-05
-5.3365925850812346e-05,2.6572450224193744e-05,1.9634860564110568e-06,-2.002962355618365e-05,5.518264515558258e-05
-5.7166762417182326e-05,2.5188202926074155e-05,9.002844308270141e-06,-2.275841688970104e-05,5.6917382607934996e-05
-5.164794492884539e-05,2.249958924949169e-05,8.599570719525218e-06,-3.387174365343526e-05,6.354835204547271e-05
-3.824966188403778e-05,1.9555211110855453e-05,2.7649657567963004e-06,-4.694607559940778e-05,6.85180420987308e-05
-2.6513082048040815e-05,2.6883235477725975e-05,-6.229343853192404e-06,-6.815722736064345e-05,6.440892320824787e-05
-2.5162800739053637e-05,4.6151719288900495e-05,-1.856040398706682e-05,-0.00010026725067291409,5.4996227845549583e-05
-2.9389248084044084e-05,6.226113328011706e-05,-2.9881626687711105e-05,-0.00013021158520132303,4.974740295438096e-05
-3.188703703926876e-05,6.158746691653505e-05,-3.483763794065453e-05,-0.0001374935091007501,5.0769769586622715e-05
-3.227566048735753e-05,4.649509355658665e-05,-3.663879761006683e-05,-0.00011112086212961003,5.314337613526732e-05
-2.4787035727058537e-05,3.641056173364632e-05,-3.238076897105202e-05,-5.3151434258325025e-05,5.633597538690083e-05
-1.3666011909663212e-05,3.9646034565521404e-05,-1.8702088709687814e-05,1.930597863974981e-05,6.265219417400658e-05
-1.4159982129058335e-05,4.394742427393794e-05,4.563143534142e-07,7.481253851437941e-05,6.78721844451502e-05
-2.394920556980651e-05,4.486567559069954e-05,1.7695503629511222e-05,0.00010773183748824522,6.780614785384387e-05
-2.7749343644245528e-05,4.425100269145332e-05,2.9418550184345804e-05,0.00012733315816149116,6.719666271237656e-05
-2.0920757378917187e-05,4.617796003003605e-05,4.490127321332693e-05,0.00012949298252351582,6.717546784784645e-05
-3.973976163251791e-06,5.512071220437065e-05,7.028277468634769e-05,0.00012488731590565294,6.833207589806989e-05
1.1449369594629388e-05,6.0310379922157153e-05,8.869737212080508e-05,0.00012606196105480194,7.569632725790143e-05
1.526138476037886e-05,5.030287502449937e-05,8.640084706712514e-05,0.00012911437079310417,8.350917778443545e-05
1.128623989643529e-05,2.9645014365087263e-05,6.470804510172457e-05,0.00012409142800606787,9.013162343762815e-05
8.957276804721914e-06,7.040415766823571e-06,3.658030982478522e-05,0.00011008674482582137,9.066681377589703e-05
2.9401503525150474e-06,-9.572830094839446e-06,1.4121235835773405e-05,8.484120917273685e-05,8.308605902129784e-05
-1.451276330044493e-05,-1.83158517756965e-05,-7.665818770874466e-07,5.1334362069610506e-05,7.384912896668538e-05
-3.2864038075786084e-05,-3.165816451655701e-05,-8.109699592750985e-06,1.7586709873285145e-05,6.767181912437081e-05
-4.106296910322271e-05,-5.0415026635164395e-05,-1.322050502494676e-05,-1.0368955372541677e-05,6.326463335426524e-05
-3.807923349086195e-05,-5.918423266848549e-05,-1.8015025489148684e-05,-2.7707133995136246e-05,5.731892815674655e-05
-3.392502912902273e-05,-5.000281089451164e-05,-1.8402794012217782e-05,-2.8718161047436297e-05,5.272422276902944e-05
-3.733681296580471e-05,-3.1912113627186045e-05,-1.27649391288287e-05,-1.925757715071086e-05,5.077063906355761e-05
-4.5382963435258716e-05,-1.1048369742638897e-05,-7.455211743945256e-06,-1.374839757772861e-05,4.994933260604739e-05
-4.9389524065190926e-05,1.212461938848719e-05,-6.179183856147574e-06,-1.6594322005403228e-05,4.9054135160986334e-05
-4.43825738329906e-05,3.567536623449996e-05,-4.650629762181779e-06,-2.3314871214097366e-05,4.831821934203617e-05
-3.645914694061503e-05,5.748814146500081e-05,2.1411301531770732e-06,-2.772748666757252e-05,4.9323050916427746e-05
-3.262950122007169e-05,6.660593498963863e-05,9.249004506273195e-06,-2.526633943489287e-05,5.25062860106118e-05
-2.870365096896421e-05,5.534287265618332e-05,1.297906601394061e-05,-1.5175732187344693e-05,5.698482345906086e-05
-2.4225921151810326e-05,2.961050449812319e-05,1.2791682820534334e-05,-6.078516889829189e-06,6.074538396205753e-05
-2.689266693778336e-05,7.414351330226054e-06,5.904496902076062e-06,-6.704800398438238e-06,5.795944525743835e-05
-3.51179696735926e-05,8.5452875282499e-06,-6.5300887399644125e-06,-1.482853440393228e-05,5.165401307749562e-05
-3.7079909816384315e-05,3.116821244475432e-05,-1.804774183256086e-05,-2.4186152586480603e-05,5.0886013923445717e-05
-2.4821942133712582e-05,5.465523281600326e-05,-2.410688466625288e-05,-3.35738695866894e-05,5.5231146689038724e-05
-7.084747267072089e-06,6.132318958407268e-05,-2.5464680220466107e-05,-3.856324474327266e-05,5.802363375551067e-05
-1.4183547136781272e-06,4.449273183126934e-05,-2.3792685169610195e-05,-4.700793215306476e-05,5.496005906024948e-05
-7.70539918448776e-06,2.3569207769469358e-05,-2.5795830879360437e-05,-5.7706263760337606e-05,4.864348375122063e-05
-1.279309708479559e-05,1.5494171748287044e-05,-2.7234931621933356e-05,-6.614534504478797e-05,4.503244053921662e-05
-2.068749199679587e-05,1.0597157597658224e-05,-2.5031618861248717e-05,-6.796779052820057e-05,4.5848886657040566e-05
-3.368288525962271e-05,1.8779039692162769e-06,-2.0694280465249904e-05,-5.8740595704875886e-05,4.9475744162919e-05
-4.144213744439185e-05,-8.266493750852533e-06,-1.6358133507310413e-05,-4.51734485977795e-05,5.2152765420032665e-05
-4.22353514295537e-05,-1.0152701179322321e-05,-1.116685143642826e-05,-4.11554028687533e-05,5.1842052926076576e-05
-3.7337158573791385e-05,-2.923085560269101e-07,-8.683407941134647e-06,-6.397649849532172e-05,4.9555757868802175e-05
-3.392796133994125e-05,6.955780463613337e-06,-8.576416803407483e-06,-0.00010208240564679727,4.942256782669574e-05
-3.494080010568723e-05,6.795973149564816e-06,-3.7591494219668675e-06,-0.00012642810179386288,5.4921070841373876e-05
-3.945866774301976e-05,6.758304607501486e-06,-8.533600635018956e-07,-0.00013728314661420882,6.708663568133488e-05
-4.3509502575034276e-05,1.5790608813404106e-05,-2.996117927978048e-06,-0.00014345601084642112,8.088535105343908e-05
-4.43816497863736e-05,3.817445394815877e-05,-7.738992280792445e-06,-0.00013143286923877895,8.915989747038111e-05
-4.017797618871555e-05,6.68363572913222e-05,-6.089639555284521e-06,-8.682331827003509e-05,8.989866910269484e-05
-3.5998556995764375e-05,8.691497350810096e-05,3.751051053768606e-06,-1.8639837435330264e-05,8.124708983814344e-05
-3.3044565498130396e-05,8.887444710126147e-05,1.544176302559208e-05,4.31056396337226e-05,6.783675053156912e-05
-2.3399852580041625e-05,7.413129787892103e-05,2.4028651750995778e-05,8.22694055386819e-05,6.064711851649918e-05
-6.844250492576975e-06,5.378038986236788e-05,2.9779963369946927e-05,9.778788080438972e-05,6.343459972413257e-05
1.0520177056605462e-05,4.321183587308042e-05,3.359237598488107e-05,9.246931585948914e-05,6.804299482610077e-05
1.8743754480965436e-05,4.398497549118474e-05,3.5827382816933095e-05,7.145263953134418e-05,6.642312655458227e-05
1.394552418787498e-05,4.624864232027903e-05,3.581406417652033e-05,4.237822940922342e-05,5.9601203247439116e-05
3.834208200714784e-06,5.142517329659313e-05,2.951598071376793e-05,1.0529342034715228e-05,5.7083667343249545e-05
-3.4591580515552778e-06,5.8494169934419915e-05,1.5616904420312494e-05,-2.3092852643458173e-05,5.792639421997592e-05
-8.239920134656131e-06,5.1433111366350204e-05,-1.006322008834104e-06,-5.604781108559109e-05,5.6809305533533916e-05
-8.071543561527506e-06,3.3839638490462676e-05,-1.4748395187780261e-05,-7.642904529348016e-05,5.698486347682774e-05
-4.151761004322907e-06,1.9517861801432446e-05,-2.283864887431264e-05,-8.779098425293341e-05,5.9975449403282255e-05
-3.611248530432931e-06,1.1950716725550592e-05,-2.2501246348838322e-05,-0.00011117765825474635,6.330417818389833e-05
-9.54976258071838e-06,6.690178452117834e-06,-1.8134398487745784e-05,-0.00013842513726558536,6.29973437753506e-05
-1.3834681340085808e-05,6.329770258162171e-06,-1.528435677755624e-05,-0.00012639352644328028,5.843815961270593e-05
-1.6567722923355177e-05,1.611823245184496e-05,-5.751300250267377e-06,-6.20534410700202e-05,5.042176417191513e-05
-2.19632111111423e-05,2.2521073333336972e-05,1.1081448064942379e-05,2.7071097065345384e-05,4.054276359966025e-05
-2.547028270782903e-05,1.8214168449048884e-05,2.770677201624494e-05,0.00011629505752352998,3.2727886718930677e-05
-2.5312192519777454e-05,7.059789822960738e-06,3.843348167720251e-05,0.00017910976021084934,3.24273896694649e-05
-2.339393540751189e-05,4.7317489588749595e-06,3.79815319320187e-05,0.00021355062199290842,3.578103132895194e-05
-2.1900619685766287e-05,1.2595845873875078e-05,3.510188253130764e-05,0.00023070257157087326,3.5264903999632224e-05
-2.3734153728582896e-05,1.8670623830985278e-05,3.619588096626103e-05,0.00022986959083937109,3.3700875064823776e-05
-2.911373485403601e-05,2.5454055503359996e-05,4.0309121686732396e-05,0.0002013127668760717,3.4000804589595646e-05
-3.512538751238026e-05,3.040236515516881e-05,3.91949106415268e-05,0.0001373471604892984,3.733048652065918e-05
-3.621689393185079e-05,3.0218430765671656e-05,3.159144762321375e-05,5.0197118980577216e-05,4.395293217385188e-05
-2.9805811209371313e-05,2.9902175811002962e-05,1.8602630007080734e-05,-2.8418793590390123e-05,5.187449642107822e-05
-1.6821330063976347e-05,3.6234614526620135e-05,8.010574674699455e-06,-7.687366451136768e-05,6.157119787530974e-05
-4.000972239737166e-06,4.2820294765988365e-05,7.722504960838705e-06,-9.929126099450514e-05,7.47646699892357e-05
1.1562998452063766e-06,4.002645073342137e-05,1.57086305989651e-05,-0.0001059961796272546,8.847232675179839e-05
-2.7792893888545223e-06,2.4380586182815023e-05,2.4545272026443854e-05,-0.00011151255603181198,9.523654443910345e-05
-1.1419859220040962e-05,1.0027337538076608e-07,2.5349416318931617e-05,-0.00011779513442888856,8.9123728685081e-05
-1.985488233913202e-05,-1.9563025489333086e-05,1.6583926480961964e-05,-0.00010973219468723983,7.529401773354039e-05
-2.386926098552067e-05,-2.369137655477971e-05,9.318926572632336e-07,-8.462020923616365e-05,6.553051207447425e-05
-2.1964347979519516e-05,-1.9666982552735135e-05,-1.4307986930361949e-05,-7.013486174400896e-05,6.595091690542176e-05
-2.109688284690492e-05,-1.3750985999649856e-05,-2.5959894628613256e-05,-8.574706589570269e-05,7.27354854461737e-05
-2.4831320843077265e-05,1.1781078228523256e-06,-3.8515583582920954e-05,-0.00012121922190999612,7.674616063013673e-05
-3.132785059278831e-05,1.9107239495497197e-05,-5.412924292613752e-05,-0.0001602565316716209,7.495333557017148e-05
-3.186776302754879e-05,2.1188343453104608e-05,-6.1032711528241634e-05,-0.00017647077038418502,7.325682236114517e-05
-2.9509590603993274e-05,3.082101784457336e-06,-5.1201441237935796e-05,-0.00014937605010345578,7.463307701982558e-05
-2.7681300707627088e-05,-1.3863803360436577e-05,-3.0288510970422067e-05,-8.699919271748513e-05,7.349591032834724e-05
-2.6503674234845676e-05,2.873670439385023e-07,-6.369496986735612e-06,-1.1702215488185175e-05,7.090637518558651e-05
-2.7412932467996143e-05,3.388831828488037e-05,1.0060791282739956e-05,4.939129939884879e-05,6.717295036651194e-05
-2.9138915124349296e-05,5.9632639022311196e-05,1.8561011529527605e-05,8.69336654432118e-05,6.177978502819315e-05
-3.1814757676329464e-05,8.057536615524441e-05,2.9740707759629004e-05,0.00011137483670609072,5.9120709920534864e-05
-3.445053880568594e-05,9.146588126895949e-05,4.27065824624151e-05,0.0001291360385948792,5.4535255912924185e-05
-3.971863043261692e-05,8.924560825107619e-05,5.230674287304282e-05,0.00013753678649663925,4.535580592346378e-05
-3.8589671021327376e-05,7.941715011838824e-05,5.3615105571225286e-05,0.0001298598072025925,3.73248549294658e-05
-3.352260682731867e-05,6.650396971963346e-05,5.117711043567397e-05,0.00010922965157078579,3.6388137232279405e-05
-3.23159692925401e-05,5.472101111081429e-05,4.911006908514537e-05,9.093259723158553e-05,4.3143965740455315e-05
-3.618952541728504e-05,4.6305452997330576e-05,4.026123133371584e-05,6.938145088497549e-05,5.128443444846198e-05
-4.2257324821548536e-05,4.212902786093764e-05,2.2577492927666754e-05,3.457746788626537e-05,5.572513327933848e-05
-4.592353798216209e-05,4.0286970033776015e-05,9.241206498700194e-06,-1.2834129847760778e-06,5.5703134421491995e-05
-4.522459130384959e-05,3.430153810768388e-05,5.018999672756763e-06,-1.9821372916339897e-05,5.3263978770701215e-05
-3.9968665078049526e-05,2.2888263629283756e-05,4.7271628318412695e-06,-1.9255303413956426e-05,5.110505662742071e-05
-3.611313513829373e-05,1.458498718420742e-05,3.2951402317848988e-06,-1.1575350072234869e-05,4.953077950631268e-05
-3.345644290675409e-05,1.5064362742123194e-05,3.9045724520292424e-07,-7.2651928348932415e-06,4.926099063595757e-05
-3.1580311770085245e-05,1.9329749193275347e-05,-1.5605060070811305e-06,-1.4755732991034165e-05,5.095663436804898e-05
-3.226936678402126e-05,2.3231927116285078e-05,-1.0556739198364085e-06,-2.536208376113791e-05,5.14162311446853e-05
-3.6833109334111214e-05,3.075982385780662e-05,1.4522528317684191e-06,-2.5266030206694268e-05,5.127808981342241e-05
-3.810510679613799e-05,3.947798541048542e-05,2.752888804025133e-06,-1.3143418982508592e-05,5.4708332754671574e-05
-3.586280581657775e-05,4.266560063115321e-05,1.9561707631510217e-06,-3.147928509861231e-06,6.236435729078948e-05
-3.55962838511914e-05,4.3440628360258415e-05,1.301502152273315e-06,-1.5859481209190562e-05,6.938194565009326e-05
-3.498791920719668e-05,4.893909863312729e-05,1.6947933545452543e-07,-6.91499444656074e-05,7.235763041535392e-05
-3.259237200836651e-05,5.3335679695010185e-05,-7.529425602115225e-06,-0.00015718973008915782,7.074270251905546e-05
-3.376662789378315e-05,5.383059396990575e-05,-2.1069447029731236e-05,-0.00024611828848719597,6.748114537913352e-05
-3.241555532440543e-05,5.741266068071127e-05,-3.2509029551874846e-05,-0.00028937519527971745,6.681780359940603e-05
-2.3638111088075675e-05,6.113950803410262e-05,-2.8241627660463564e-05,-0.00026534515200182796,6.679605576209724e-05
-1.5252896446327213e-05,4.9289741582470015e-05,-1.5961899407557212e-05,-0.00017891256720758975,6.221268995432183e-05
-1.4075986655370798e-05,2.5767953047761694e-05,-8.294817234855145e-06,-5.841838355991058e-05,5.469366806210019e-05
-1.7415757611161098e-05,7.2076722972269636e-06,-7.236755664052907e-06,5.427597716334276e-05,5.455842983792536e-05
-1.9648125089588575e-05,-2.4485823360009817e-06,-8.048111340031028e-06,0.00013257586397230625,5.898095332668163e-05
-1.8103328329743817e-05,-1.0190671673626639e-05,1.5502281485169078e-06,0.0001634756481507793,6.062193278921768e-05
-1.57952235895209e-05,-1.9337458070367575e-05,1.82279254659079e-05,0.00015962064207997173,5.278208482195623e-05
-1.4666017705167178e-05,-1.830305700423196e-05,3.095243300776929e-05,0.00014763140643481165,3.691755046020262e-05
-1.0046089300885797e-05,-9.173399121209513e-06,4.1782510379562154e-05,0.0001387289521517232,2.7646250600810163e-05
-7.554898729722481e-06,-7.556177934020525e-06,4.940730650559999e-05,0.00012389510811772197,2.6887099011219107e-05
-1.2383721696096472e-05,-2.1597097656922415e-05,4.811692997463979e-05,0.00010143950203200802,2.9682847525691614e-05
-2.509292244212702e-05,-4.261023786966689e-05,3.7478184822248295e-05,7.168398587964475e-05,3.52789465978276e-05
-3.5567249142332e-05,-5.1956751121906564e-05,2.1550702513195574e-05,4.2415089410496876e-05,4.364647247712128e-05
-3.655050022643991e-05,-4.6358156396308914e-05,4.7960024858184624e-06,1.8302254829904996e-05,5.1257571612950414e-05
-3.225839100196026e-05,-3.5868411941919476e-05,-4.670584985433379e-06,-3.3636149510130053e-06,5.615679401671514e-05
-3.022890268766787e-05,-2.385052721365355e-05,-6.093335287005175e-06,-2.2155692931846716e-05,5.5633572628721595e-05
-3.314651257824153e-05,-8.779185918683652e-06,-7.015093615336809e-06,-3.916810601367615e-05,4.862779314862564e-05
-3.971161277149804e-05,7.691184691793751e-06,-1.010531559586525e-05,-5.927473466726951e-05,4.177728624199517e-05
-4.373716365080327e-05,2.4517756173736416e-05,-1.2637127838388551e-05,-8.184053149307147e-05,3.8999503885861486e-05
-4.194898792775348e-05,4.7747806092957035e-05,-1.2950959899171721e-05,-9.605546074453741e-05,4.131824243813753e-05
-3.5983095585834235e-05,8.47200644784607e-05,-1.3080585631541908e-05,-9.575810690876096e-05,4.77758476336021e-05
-3.176472455379553e-05,0.00012016203254461288,-1.3330934962141328e-05,-7.55688815843314e-05,5.478019738802686e-05
-3.1292969651985914e-05,0.0001375329156871885,-1.1944237485295162e-05,-3.9479324186686426e-05,5.94883385929279e-05
-2.4910556021495722e-05,0.00015406029706355184,-7.567942247987958e-06,-3.2811622077133507e-06,6.254839536268264e-05
-1.5060465557326097e-05,0.00019298828556202352,-4.515517844083661e-07,1.94841340999119e-05,6.197311449795961e-05
-1.5138602066144813e-05,0.0002364658867008984,6.4057035160658415e-06,2.297324317623861e-05,6.316631333902478e-05
-2.8016087526339106e-05,0.0002399741642875597,8.385953151446301e-06,1.4735657714481931e-05,7.466296665370464e-05
-4.9563801439944655e-05,0.00020389058045111597,9.645063983043656e-06,3.5671196201292332e-06,8.750987035455182e-05
-7.849348912714049e-05,0.0001762019528541714,1.4407370144908782e-05,-8.154746865329798e-06,8.866082498570904e-05
-0.00010064939851872623,0.00016838622104842216,2.2332767912303098e-05,-1.4479634955932852e-05,7.740686123725027e-05
-0.00011265321518294513,0.0001418204337824136,2.251486512250267e-05,-2.283922913193237e-05,6.356334051815793e-05
-0.0001197183519252576,9.773881174623966e-05,1.0097342965309508e-05,-3.187436959706247e-05,5.099381451145746e-05
-0.0001229814370162785,6.286195275606588e-05,-5.4006331993150525e-06,-3.8801899790996686e-05,4.468241968424991e-05
-0.00011991414794465527,3.0459634217550047e-05,-1.2749117558996659e-05,-4.5993692765478045e-05,4.734892718261108e-05
-0.00010088417184306309,8.03370221547084e-06,-1.3918515833211131e-05,-5.2036168199265376e-05,5.429275188362226e-05
-7.294751412700862e-05,8.276445441879332e-06,-1.6096648323582485e-05,-5.0307775381952524e-05,6.405120802810416e-05
-4.1001610952662304e-05,8.232791515183635e-06,-1.6803647667984478e-05,-4.647015157388523e-05,7.157980144256726e-05
-2.0893012333544903e-06,-1.8583572455099784e-05,-1.4629168617830146e-05,-5.4575459216721356e-05,7.15783316991292e-05
3.9991744415601715e-05,-6.939873128430918e-05,-1.2859879461757373e-05,-6.850511999800801e-05,7.006297528278083e-05
7.858344906708226e-05,-0.00011808812996605411,-1.3955703252577223e-05,-7.75390217313543e-05,7.22901604603976e-05
0.00010796095011755824,-0.00014136948448140174,-1.7867125279735774e-05,-6.989264511503279e-05,7.43266282370314e-05
0.0001234911906067282,-0.00013830920215696096,-1.9286260794615373e-05,-4.536562119028531e-05,7.440150511683896e-05
0.00012193580187158659,-0.00012172755668871105,-1.4209478649718221e-05,-8.301874913740903e-06,7.416553853545338e-05
0.00010565640695858747,-0.00010348432988394052,-4.6025988922338e-06,2.9095726858940907e-05,7.344749610638246e-05
8.027633157325909e-05,-8.834869368001819e-05,8.443628757959232e-06,5.054694338468835e-05,7.220417319331318e-05
5.0202623242512345e-05,-7.52271298551932e-05,2.0634564862120897e-05,3.426357579883188e-05,7.321552402572706e-05
1.9309556591906585e-05,-6.051196760381572e-05,2.181626587116625e-05,-2.74760077445535e-05,7.558821380371228e-05
-8.917301784094889e-06,-4.298951171222143e-05,1.028671431413386e-05,-9.478510764893144e-05,7.611353066749871e-05
-3.0447030439972878e-05,-2.350080103497021e-05,-9.323333642896614e-07,-0.00011592113878577948,7.535836630268022e-05
-3.6511588405119255e-05,-2.143140363841667e-06,-3.671243575809058e-06,-8.781353244557977e-05,7.486848335247487e-05
-2.6710678866948e-05,1.7124291844083928e-05,1.0067241191791254e-06,-3.9629871025681496e-05,7.444044604199007e-05
-1.759720908012241e-05,3.908384314854629e-05,6.213583219505381e-06,1.7236943676834926e-05,7.377855945378542e-05
-2.3908891307655722e-05,7.251148053910583e-05,1.1110505511169322e-05,7.515696779591963e-05,7.029587141005322e-05
-3.743328488781117e-05,0.00010193898197030649,2.2256552256294526e-05,0.0001187203306471929,6.485592166427523e-05
-4.335178164183162e-05,0.00010713520896388218,3.829267734545283e-05,0.00013887813838664442,6.036842751200311e-05
-4.0684106352273375e-05,9.260220394935459e-05,5.3078169003129005e-05,0.00013683614088222384,5.4682535846950486e-05
-3.579415351850912e-05,7.078583439579234e-05,5.9024951042374596e-05,0.00012026534386677667,4.715145769296214e-05
-3.124901559203863e-05,5.079271431895904e-05,5.549036359298043e-05,9.038874122779816e-05,4.218251706333831e-05
-2.6724130293587223e-05,2.5930003175744787e-05,4.5196942664915696e-05,5.2586714446078986e-05,4.4310756493359804e-05
-2.2690588593832217e-05,-2.970896275655832e-06,3.445438414928503e-05,1.9800252630375326e-05,5.676920773112215e-05
-1.8396223822492175e-05,-1.3229936485004146e-05,2.4009028493310325e-05,-5.5242653616005555e-06,7.184012065408751e-05
-1.6681524357409216e-05,1.3922779089625692e-06,1.4352175639942288e-05,-2.03373401745921e-05,7.83447248977609e-05
-2.1195201043155976e-05,2.4749489966779947e-05,1.126713596022455e-05,-3.529975583660416e-05,7.278014527400956e-05
-2.979204145958647e-05,3.985596777056344e-05,1.2636702194868121e-05,-6.002376176184043e-05,6.200062489369884e-05
-3.878546704072505e-05,4.812630868400447e-05,1.7243510228581727e-05,-8.364039240404963e-05,5.4173007811186835e-05
-4.583133340929635e-05,4.971759335603565e-05,1.9060173144680448e-05,-8.988237823359668e-05,5.029635576647706e-05
-5.350419451133348e-05,3.930600360035896e-05,1.971819619939197e-05,-7.330261723836884e-05,5.147721094544977e-05
-6.358111568260938e-05,2.075756674457807e-05,1.8174350771005265e-05,-4.601732507580891e-05,5.444872658699751e-05
-7.005794032011181e-05,1.3697657550437725e-06,1.540123048471287e-05,-1.4641511370427907e-05,5.713489736081101e-05
-6.878138083266094e-05,-1.5008235095592681e-05,1.6628926459816284e-05,1.3540850886784028e-05,5.727047027903609e-05
-6.444806786021218e-05,-2.883048182411585e-05,2.1901778382016346e-05,2.726504135353025e-05,5.5156328016892076e-05
-6.133776332717389e-05,-3.8643713196506724e-05,2.4968572688521817e-05,2.3808377591194585e-05,5.239823804004118e-05
-5.798077108920552e-05,-3.946702054236084e-05,2.3425296603818424e-05,1.1807298506028019e-05,4.877699393546209e-05
-5.275157673167996e-05,-2.704423422983382e-05,1.9708524632733315e-05,-5.216577960709401e-07,4.705590981757268e-05
-4.774846092914231e-05,-1.8613440033732331e-06,1.4561709576810244e-05,-1.0810967978613917e-05,4.649121547117829e-05
-4.446244929567911e-05,2.7460322598926723e-05,1.1349316082487348e-05,-1.7356402167933993e-05,4.4045387767255306e-05
-4.33170425822027e-05,5.2454168326221406e-05,1.0906722309300676e-05,-1.9482615243759938e-05,4.456902024685405e-05
-4.579990854836069e-05,7.71919367252849e-05,1.3299040801939555e-05,-1.9091936337645166e-05,5.11397811351344e-05
-5.163353125681169e-05,0.00010580274101812392,1.2726885870506521e-05,-2.0197587218717672e-05,5.675739157595672e-05
-5.972279541310854e-05,0.00013917993055656552,4.5796709855494555e-06,-2.7549542210181244e-05,5.828770008520223e-05
-6.750114698661491e-05,0.00017260416643694043,-5.2583400247385725e-06,-3.991583434981294e-05,6.0203314205864444e-05
-7.150493183871731e-05,0.0001849663385655731,-6.084143478801707e-06,-4.621346670319326e-05,6.124218634795398e-05
-7.150635065045208e-05,0.00016048512770794332,-5.393128958530724e-06,-4.8432448238600045e-05,5.723956201109104e-05
-5.8778576203621924e-05,0.00011607449414441362,-1.4812495464866515e-05,-5.109578341944143e-05,5.409292862168513e-05
-2.9341608751565218e-05,5.5609882110729814e-05,-2.5957671823562123e-05,-5.5742901167832315e-05,5.277316813590005e-05
-4.584905127558159e-06,-3.278937583672814e-05,-3.000197648361791e-05,-5.641244206344709e-05,5.011356552131474e-05
6.130390829639509e-06,-0.00011475940118543804,-2.672868868103251e-05,-3.984955037594773e-05,4.5449149183696136e-05
6.91157265464426e-06,-0.00011808452109107748,-2.161322299798485e-05,-1.0985000699292868e-05,4.076676850672811e-05
6.834412033640547e-06,-3.723521876963787e-05,-2.3384574888041243e-05,1.1003851795976516e-05,4.1769464587559924e-05
7.636005648237187e-06,4.055586032336578e-05,-2.6565970983938314e-05,8.437909855274484e-06,4.4911364966537803e-05
7.776477104926016e-06,5.953492654953152e-05,-2.5940482373698615e-05,-8.043873094720766e-06,4.765021367347799e-05
6.7042519731330685e-06,3.910644954885356e-05,-1.992436227737926e-05,-1.3960468095319811e-05,5.0105529226129875e-05
5.765458581663552e-07,2.3226883058669046e-05,-1.1747953976737335e-05,-5.712282472813968e-06,5.0479735364206135e-05
-4.491990239330335e-06,2.402252721367404e-05,-4.27649092671345e-06,6.511338142445311e-06,4.881558925262652e-05
-8.553388397558592e-06,2.699693686736282e-05,1.9624860669864574e-06,1.3637797565024812e-05,4.556569911073893e-05
-1.4104937690717634e-05,2.6745579816633835e-05,7.621608347108122e-06,1.6403253539465368e-05,4.361789979157038e-05
-2.2195321434992366e-05,3.007451414305251e-05,1.2950393283972517e-05,1.5438190530403517e-05,4.450405322131701e-05
-2.9818453185725957e-05,3.872403976856731e-05,1.4390677279152442e-05,1.2912133570353035e-05,4.609342431649566e-05
-3.185873356414959e-05,4.3431246012914926e-05,1.1672535038087517e-05,1.1913697562704328e-05,4.78520778415259e-05
-2.750576641119551e-05,4.0499435272067785e-05,5.804100510431454e-06,9.237262929673307e-06,4.7951965825632215e-05
-2.8046313673257828e-05,4.068369889864698e-05,-2.099022822221741e-07,3.247017730245716e-06,4.6757242671446875e-05
-3.688345896080136e-05,5.363376476452686e-05,-2.0049981230840785e-06,-3.4365586998319486e-06,5.11730759171769e-05
-4.3027706851717085e-05,6.787046004319564e-05,4.203940534353023e-06,-9.175794730253983e-06,5.978001718176529e-05
-4.518869172898121e-05,6.410765490727499e-05,1.4578442460333463e-05,-1.2774575225193985e-05,6.529543315991759e-05
-4.896206519333646e-05,4.1295923438156024e-05,2.380526166234631e-05,-1.1262765838182531e-05,6.635877798544243e-05
-5.560046338359825e-05,1.401224380970234e-05,3.294949419796467e-05,-5.564820185099961e-06,6.371446943376213e-05
-6.025532275089063e-05,-4.123868620808935e-06,4.089031426701695e-05,-1.2047802329107071e-06,5.87542490393389e-05
-5.467466689879075e-05,-8.546137905796058e-06,4.004561924375594e-05,-2.048776423180243e-06,5.5521879403386265e-05
-4.851772973779589e-05,-1.3562616913986858e-05,3.144142829114571e-05,-5.41137387699564e-06,5.558728298638016e-05
-4.76625791634433e-05,-3.125693547190167e-05,2.6058485673274845e-05,-1.1704612006724346e-05,5.670669270330109e-05
-4.1526061977492645e-05,-4.790671664522961e-05,2.6560914193396457e-05,-1.63430959219113e-05,6.0073056374676526e-05
-2.9459532015607692e-05,-4.831923797610216e-05,2.6481393433641642e-05,-1.560163582325913e-05,6.358909740811214e-05
-2.166266494896263e-05,-4.15927788708359e-05,2.7054875317844562e-05,-1.9712093489943072e-05,6.500603922177106e-05
-2.8706772354780696e-05,-2.9965362045913935e-05,2.626393143145833e-05,-3.886538615915924e-05,6.614514131797478e-05
-3.422026566113345e-05,-1.1110347259091213e-05,2.147478880942799e-05,-7.159469532780349e-05,6.439394928747788e-05
-2.264645263494458e-05,7.110071692295605e-06,1.6382866306230426e-05,-9.811524068936706e-05,6.279392255237326e-05
-3.952996394218644e-06,1.7187505363835953e-05,1.4198938515619375e-05,-0.00010165137064177543,6.223120726644993e-05
1.1386364349164069e-05,1.986767165362835e-05,1.536592208140064e-05,-8.93625765456818e-05,6.126635707914829e-05
2.4576225769123994e-05,2.8639722586376593e-05,1.5036167496873531e-05,-7.275798270711675e-05,6.0162110457895324e-05
2.8787921110051684e-05,4.0188773709814996e-05,7.981625458342023e-06,-6.26295804977417e-05,6.316804501693696e-05
1.489532041887287e-05,4.253681981936097e-05,-1.8574875184640405e-06,-6.361813575495034e-05,7.124309195205569e-05
-9.095489076571539e-06,3.8414960727095604e-05,-7.866583473514766e-06,-5.9878766478504986e-05,7.856084266677499e-05
-2.4373281121370383e-05,4.7765319322934374e-05,-7.865735824452713e-06,-3.6190405808156356e-05,8.296013402286917e-05
-2.4406837837886997e-05,8.480162068735808e-05,-5.6967064665514044e-06,2.8916865630890243e-06,8.246143988799304e-05
-1.7927844965015538e-05,0.0001255363749805838,-6.132966973382281e-06,4.455108137335628e-05,7.586950960103422e-05
-1.1502621418912895e-05,0.0001391907426295802,-9.66420066106366e-06,8.607746713096276e-05,6.869135540910065e-05
-6.386985205608653e-06,0.00012422646977938712,-1.1124644515803084e-05,0.00012532105029094964,6.784733704989776e-05
-1.310006325638824e-07,9.571840200806037e-05,-6.479271632997552e-06,0.00014699510938953608,6.973481504246593e-05
8.825063559925184e-06,6.443824531743303e-05,-8.360957508557476e-07,0.0001399535103701055,6.831068458268419e-05
1.4003913747728802e-05,3.523841223795898e-05,1.7552905546835973e-06,0.00011162352893734351,6.344948633341119e-05
9.918877367454115e-06,9.50169578572968e-06,6.961784492887091e-06,8.22784350020811e-05,5.560411955229938e-05
4.859260570810875e-06,-1.7507140000816435e-05,1.725010406516958e-05,6.174967711558565e-05,4.6102133637759835e-05
-1.8273274449143173e-08,-3.331469270051457e-05,1.949437501025386e-05,4.381095277494751e-05,4.127058491576463e-05
-3.5736397876462433e-06,-1.1946223821723834e-05,9.946328646037728e-06,2.4407483579125255e-05,4.642916610464454e-05
6.496978244285856e-07,3.215061951777898e-05,-2.6663694825401763e-06,1.4254828784032725e-06,5.57225794182159e-05
8.49068419483956e-06,5.192200842429884e-05,-1.049299771693768e-05,-1.931233964569401e-05,5.760552448919043e-05
9.261410014005378e-06,4.1144499846268445e-05,-1.067367793439189e-05,-2.750061139522586e-05,5.320839409250766e-05
1.6461310679005692e-06,2.6192750738118775e-05,-8.240543138526846e-06,-2.478818169038277e-05,5.3388681408250704e-05
-6.248440058698179e-06,2.0998939362470992e-05,-9.318525371782016e-06,-2.5097178877331316e-05,5.693944694940001e-05
-1.5665096725570038e-05,2.864712951122783e-05,-1.3025392945564818e-05,-3.963183189625852e-05,5.69709918636363e-05
-2.505810152797494e-05,3.21256993629504e-05,-1.4193743481882848e-05,-6.162138015497476e-05,5.6157674407586455e-05
-3.125944567727856e-05,2.960838537546806e-05,-1.2331230209383648e-05,-7.032141002127901e-05,5.58078390895389e-05
-3.2508982258150354e-05,3.294216367066838e-05,-1.034780143527314e-05,-6.104227213654667e-05,5.93234108237084e-05
-2.4361539544770494e-05,3.732061304617673e-05,-8.171138688339852e-06,-5.1758292102022097e-05,6.160092743812129e-05
-1.7691856555757113e-05,3.624538658186793e-05,-5.099991085444344e-06,-6.343935092445463e-05,5.860531746293418e-05
-2.2321430151350796e-05,3.204127278877422e-05,-4.5432548176904675e-06,-9.76371084107086e-05,5.5492633691756055e-05
-3.777619713218883e-05,3.423601810936816e-05,-6.417966687877197e-06,-0.00011879763042088598,5.435066486825235e-05
-5.8012799854623154e-05,4.7904559323797e-05,-1.3591018159786472e-06,-0.00010303255839971825,5.099000918562524e-05
-7.553072646260262e-05,7.376334542641416e-05,1.0183165613852907e-05,-6.174873124109581e-05,4.6467059291899204e-05
-8.301782509079203e-05,9.981666516978294e-05,1.839310243667569e-05,-1.596321089891717e-05,4.5217620936455205e-05
-7.574069604743272e-05,0.00010294863022863865,1.8827711755875498e-05,2.593021963548381e-05,4.399035606184043e-05
-5.9958802012261e-05,6.481960735982284e-05,1.66297031682916e-05,6.584975199075416e-05,4.178943709121086e-05
-4.423941209097393e-05,-3.7034965316706803e-06,2.129538006556686e-05,0.00010134567128261551,4.124565748497844e-05
-3.5409982956480235e-05,-6.0923393903067335e-05,3.402270158403553e-05,0.00012160801270511001,4.3695912609109655e-05
-3.718844527611509e-05,-7.371489482466131e-05,4.4980100938118994e-05,0.00011776020983234048,4.7556692152284086e-05
-4.307877316023223e-05,-5.319402407621965e-05,4.40704170614481e-05,9.550600225338712e-05,5.345160388969816e-05
-4.1477291233604774e-05,-3.11939547827933e-05,2.9814338631695136e-05,6.120232865214348e-05,5.905403304495849e-05
-3.6523382732411847e-05,-2.166953527193982e-05,1.3059900084044784e-05,1.9053026335313916e-05,6.241640221560374e-05
-3.8584319554502144e-05,-1.3757796295976732e-05,6.356303401844343e-06,-1.7790829588193446e-05,6.287409632932395e-05
-4.473264198168181e-05,4.75342812933377e-06,5.875858278159285e-06,-3.94923918065615e-05,6.342415872495621e-05
-5.006316496292129e-05,2.4166085495380685e-05,4.680101028498029e-06,-5.418907676357776e-05,6.600185588467866e-05
-5.3614905482390895e-05,3.664274117909372e-05,3.1366548682854045e-06,-6.129106623120606e-05,6.749788735760376e-05
-5.067645543022081e-05,5.182553286431357e-05,3.5474224659992615e-06,-4.408535096445121e-05,6.683504034299403e-05
-4.2568564822431654e-05,7.221454143291339e-05,4.963443188898964e-06,-5.610449534287909e-06,6.591300916625187e-05
-3.5915985790779814e-05,8.464489656034857e-05,8.692944902577437e-06,1.950601836142596e-05,6.625506648560986e-05
-2.934430267487187e-05,7.634769281139597e-05,1.3824153938912787e-05,2.001751090574544e-05,6.475819100160152e-05
-2.3916445570648648e-05,5.751218486693688e-05,1.5354155038949102e-05,1.2718357538687997e-05,6.375637167366222e-05
-2.209786543971859e-05,5.4514064686372876e-05,1.2466744919947814e-05,6.7029463934886735e-06,6.637019396293908e-05
-2.7867883545695804e-05,6.187970575410873e-05,5.268305812933249e-06,4.965171456206008e-07,6.866337935207412e-05
-3.52325732819736e-05,6.270176527323201e-05,-3.1541433145321207e-06,-1.0197211850027088e-05,7.146807911340147e-05
-2.8978251066291705e-05,5.7959710829891264e-05,-9.772817975317594e-06,-1.6686304661561735e-05,7.432658458128572e-05
-1.4850812476652209e-05,4.7765945055289194e-05,-1.1067791092500556e-05,-1.3242545719549526e-05,7.648189784958959e-05
-5.7380930229555815e-06,3.7890280509600416e-05,-7.559222922282061e-06,-7.500355422962457e-06,7.530103175668046e-05
-8.96707751962822e-06,3.39774414896965e-05,-5.148951458977535e-06,-5.007664185541216e-06,7.285136234713718e-05
-1.8403494323138148e-05,3.259018194512464e-05,-9.451623554923572e-06,-8.404197615163866e-06,6.99902229825966e-05
-2.4689950805623084e-05,2.8449159799492918e-05,-1.934359170263633e-05,-1.830104156397283e-05,6.694375770166516e-05
-3.064299744437449e-05,2.3587888790643774e-05,-2.7003312425222248e-05,-2.6832060029846616e-05,6.632140866713598e-05
-3.7765865272376686e-05,1.9660499674500898e-05,-3.059789742110297e-05,-2.905477049353067e-05,6.671809387626126e-05
-3.88162698072847e-05,1.3260519153845962e-05,-3.3932807127712294e-05,-2.828306969604455e-05,6.727267464157194e-05
-3.0456018066615798e-05,-3.862689027300803e-06,-3.885779733536765e-05,-3.336305235279724e-05,7.00403397786431e-05
-2.073176256089937e-05,-3.364832446095534e-05,-3.9687736716587096e-05,-4.602954868460074e-05,7.449482654919848e-05
-1.3558602404373232e-05,-5.493717617355287e-05,-3.518441371852532e-05,-5.728291580453515e-05,7.304136670427397e-05
-6.889885298733134e-06,-4.338982398621738e-05,-2.7381180188967846e-05,-6.115434371167794e-05,6.734013004461303e-05
-1.2637106010515708e-06,-9.2871732704225e-06,-1.633429928915575e-05,-5.975961175863631e-05,6.29872884019278e-05
-7.430083428516809e-07,1.709872049104888e-05,-7.251292117871344e-06,-5.6560325901955366e-05,5.9395544667495415e-05
-5.341616997611709e-06,2.2085090677137487e-05,-5.280819550534943e-06,-5.070123734185472e-05,5.499121471075341e-05
-1.2758768207277171e-05,8.6228510554065e-06,-7.181482942542061e-06,-3.2864412787603214e-05,5.4045329306973144e-05
-1.9058084944845177e-05,-2.617836798890494e-06,-9.143394890998024e-06,-1.4730949260410853e-06,5.87009999435395e-05
-2.1274361643008888e-05,3.524948169797426e-06,-1.0862081580853555e-05,2.3046357455314137e-05,6.401682185241953e-05
-2.2914098735782318e-05,1.4436182937060948e-05,-1.0009153811552096e-05,2.8254471544642e-05,6.483202014351264e-05
-2.4809231035760604e-05,2.0229985238984227e-05,-6.06323555985e-06,2.3797834728611633e-05,6.274089537328109e-05
-2.680753641470801e-05,2.9320381145225838e-05,-4.205500374609983e-07,1.1629723303485662e-05,6.108253728598356e-05
-2.476891313563101e-05,3.868584462907165e-05,4.205960976833012e-06,-8.453300324617885e-06,5.743005021940917e-05
-1.972263999050483e-05,4.236482345731929e-05,1.998562311200658e-06,-2.3127789972932078e-05,5.15369392815046e-05
-2.0855170077993535e-05,5.064639117335901e-05,3.0138182864902774e-06,-2.7198277166462503e-05,4.93654515594244e-05
-2.0045839846716262e-05,6.917567952768877e-05,9.226383554050699e-06,-2.6717272703535855e-05,4.9673417379381135e-05
-1.4320070476969704e-05,7.90519843576476e-05,6.060298801457975e-06,-3.8633843360003084e-05,5.3240099077811465e-05
-1.527378299215343e-05,6.720296369167045e-05,-1.2165332918812055e-07,-6.549547106260434e-05,5.984207382425666e-05
-2.898600541811902e-05,4.773626278620213e-05,-1.658153109929117e-06,-9.000462159747258e-05,6.365432636812329e-05
-4.3884861952392384e-05,4.310633084969595e-05,1.7854928273663973e-06,-9.311852772952989e-05,6.21201324975118e-05
-4.664151492761448e-05,5.140366920386441e-05,9.762293302628677e-06,-7.36371148377657e-05,5.889641761314124e-05
-3.6942346923751757e-05,5.880651224288158e-05,1.695074934104923e-05,-4.109584915568121e-05,5.568593769567087e-05
-2.08864439628087e-05,6.594060687348247e-05,1.877577233244665e-05,-1.8901980638474924e-06,5.0810162065317854e-05
-5.322297511156648e-06,7.888575782999396e-05,1.9530381905497052e-05,3.205368557246402e-05,4.706309482571669e-05
4.030227501061745e-06,9.270400187233463e-05,2.2719828848494217e-05,4.982008249498904e-05,4.897669350611977e-05
-5.844957513545523e-07,9.25864587770775e-05,2.5074185032281093e-05,4.752085806103423e-05,5.704466821043752e-05
-1.379885543428827e-05,7.196972001111135e-05,2.2482125132228248e-05,3.198924969183281e-05,6.660122016910464e-05
-2.214741471107118e-05,4.116959826205857e-05,1.732645796437282e-05,1.4794509297644254e-05,6.950012902962044e-05
-1.90990340342978e-05,1.3587907233159058e-05,1.4122698303253856e-05,4.629420345736435e-06,6.355134246405214e-05
-1.4047480362933129e-05,-1.1321955753373913e-05,1.3270299859868828e-05,2.2044865488624055e-08,5.4506537708221003e-05
-2.4693625164218247e-05,-3.703045877045952e-05,1.4909757737768814e-05,-3.4590425457281526e-06,4.925399480271153e-05
-5.075012813904323e-05,-5.3788495279150084e-05,1.9783441530307755e-05,-6.585774372069864e-06,5.1208924560341984e-05
-7.17648581485264e-05,-4.568147414829582e-05,2.4370117898797616e-05,-9.154634426522534e-06,5.681370021193288e-05
-8.438660734100267e-05,-9.275491720472928e-06,2.4108452635118738e-05,-1.0736901458585635e-05,6.0762678913306445e-05
-9.16593853617087e-05,3.7382214941317216e-05,2.0106523152207956e-05,-8.74423494678922e-06,6.235022010514513e-05
-9.252123709302396e-05,7.33826745999977e-05,1.3316569493326824e-05,-9.056365342985373e-06,6.435332034016028e-05
-9.151783160632476e-05,8.765306847635657e-05,7.914223715488333e-06,-1.3750092875852715e-05,6.298470543697476e-05
-8.539085683878511e-05,7.951837324071676e-05,3.8190974009921774e-06,-1.6117817722260952e-05,5.7712357374839485e-05
-7.037319301161915e-05,6.25087704975158e-05,-7.189863993062318e-08,-1.2518497896962799e-05,5.127411350258626e-05
-4.6654804464196786e-05,4.490756327868439e-05,-3.887379079969833e-06,-1.2850878192693926e-05,4.9357313400832936e-05
-1.7868027498479933e-05,3.098780507571064e-05,-6.336849764920771e-06,-2.459518873365596e-05,5.454982238006778e-05
8.289342986245174e-06,2.133171437890269e-05,-4.03754029321135e-06,-3.8926526030991226e-05,6.173179281176999e-05
2.5375804398208857e-05,1.5974130292306654e-05,-2.043427457465441e-06,-5.252694245427847e-05,6.512933759950101e-05
3.7209567381069064e-05,5.658492227667011e-06,-4.5898082134954166e-06,-6.0556430980795994e-05,6.630481220781803e-05
4.9080041208071634e-05,-9.333939487987664e-06,-6.514688720926642e-06,-6.0594444221351296e-05,6.540780304931104e-05
5.858592703589238e-05,-2.058102109003812e-05,-1.946294787558145e-06,-6.267995195230469e-05,6.185687379911542e-05
6.454630056396127e-05,-2.3574306396767497e-05,5.425534709502244e-06,-7.121845555957407e-05,6.07510119152721e-05
6.04291089985054e-05,-1.9035220248042606e-05,1.264926504518371e-05,-7.148560689529404e-05,6.372186908265576e-05
4.360920866020024e-05,-9.79812739387853e-06,1.908535159600433e-05,-4.9666236009215936e-05,6.530030077556148e-05
2.4979461159091443e-05,2.996072680616635e-06,2.5361250663991086e-05,-9.661843250796665e-06,6.318563100649044e-05
6.277833563217428e-06,1.4473700503003784e-05,2.9937418730696663e-05,3.102357732132077e-05,6.0371934523573145e-05
-1.1079291653004475e-05,2.1793553969473578e-05,3.283594560343772e-05,5.8432775404071435e-05,5.9121382946614176e-05
-2.2341442672768608e-05,2.564753231126815e-05,3.6504206946119666e-05,7.09027808625251e-05,5.95543060626369e-05
-2.600922562123742e-05,2.544973358453717e-05,3.946676224586554e-05,7.293071394087747e-05,6.229915015865117e-05
-2.4197323000407778e-05,1.6337764463969506e-05,3.9987440686672926e-05,6.860594294266775e-05,6.464585021603853e-05
-1.9256442101323046e-05,3.0113919819996227e-06,3.555234070518054e-05,5.745071030105464e-05,6.183423101902008e-05
-1.5782092305016704e-05,-6.984667379583698e-06,2.98996819765307e-05,4.3256884964648634e-05,5.7208617363357916e-05
-1.8330762031837367e-05,-5.475141279021045e-06,2.6044239348266274e-05,3.066333010792732e-05,5.4021624237066135e-05
-2.665188003447838e-05,1.3742705959884916e-05,2.155202855647076e-05,1.8620956325321458e-05,5.428689473774284e-05
-3.447035851422697e-05,4.0665618143975735e-05,1.8539902157499455e-05,9.695449989521876e-06,5.827910717925988e-05
-3.5581368138082325e-05,5.214537668507546e-05,1.9137241906719282e-05,5.519168098544469e-06,5.9425601648399606e-05
-3.474311961326748e-05,4.6866221964592114e-05,1.9024826542590745e-05,3.6977402828597405e-07,5.366432378650643e-05
-3.602818469516933e-05,4.0743387216934934e-05,1.5244208952935878e-05,-6.6160109781776555e-06,5.096550739835948e-05
-3.6142933822702616e-05,3.7698744563385844e-05,1.3436716471915133e-05,-8.665390851092525e-06,5.6687757023610175e-05
-3.2567761081736535e-05,3.402835500310175e-05,1.9201484974473715e-05,-1.1323411854391452e-05,6.376057717716321e-05
-2.917574420280289e-05,2.8813587050535716e-05,1.9222323317080736e-05,-1.3000212675251532e-05,6.663348176516593e-05
-3.192042277078144e-05,2.1441590433823876e-05,1.1484682545415126e-05,-1.0867845958273392e-05,6.472525274148211e-05
-3.521940016071312e-05,2.044177381321788e-05,8.958906505540654e-07,-1.4909363926562946e-05,6.048271097824909e-05
-3.648608981166035e-05,2.8197991923661903e-05,-6.932196811249014e-06,-2.0663728719227947e-05,5.961548231425695e-05
-4.3934032873949036e-05,3.718059087987058e-05,-4.7022417675179895e-06,-2.26989923248766e-05,5.917105954722501e-05
-5.049584069638513e-05,3.835168172372505e-05,8.980974826044985e-07,-2.3617192709934898e-05,5.767981565441005e-05
-5.0370770622976124e-05,3.1997900805436075e-05,2.9076288683427265e-06,-2.6279067242285237e-05,5.725283335777931e-05
-4.756335692945868e-05,3.1031042453832924e-05,-1.978613227038295e-06,-2.5959936465369537e-05,5.740474080084823e-05
-4.5719596528215334e-05,4.6256256609922275e-05,-8.446952961094212e-06,-2.377887358306907e-05,5.686772055923939e-05
-4.528703721007332e-05,6.89128355588764e-05,-1.1403440112189855e-05,-2.2788419300923124e-05,5.6660050177015364e-05
-4.655883458326571e-05,7.741931040072814e-05,-9.581633094057906e-06,-2.388658504060004e-05,5.821725426358171e-05
-4.684579107561149e-05,6.51033187750727e-05,-9.089966624742374e-06,-2.0528150344034657e-05,5.9617665101541206e-05
-4.512731175054796e-05,4.351185998530127e-05,-8.813732165435795e-06,-1.470741699449718e-05,6.113328709034249e-05
-3.91129324270878e-05,2.8073347493773326e-05,-5.114430223329691e-06,-1.5121357137104496e-05,5.8886125771095976e-05
-2.861527718778234e-05,2.3003009118838236e-05,-2.9419504699035315e-07,-1.8128470401279628e-05,5.463471825351007e-05
-2.3860668079578318e-05,2.0416737243067473e-05,7.669341357541271e-07,-1.938442073878832e-05,5.2989642426837236e-05
-2.9502840334316716e-05,1.2579764188558329e-05,-2.1160076357773505e-06,-2.0180434148642235e-05,5.211895040702075e-05
-3.5890141589334235e-05,4.495958819461521e-06,-5.0484973144193646e-06,-2.3411035726894625e-05,4.879436528426595e-05
-3.5465309338178486e-05,1.3888992498323205e-06,-5.898434665141394e-06,-2.6853425879380666e-05,4.547450225800276e-05
-3.057086360058747e-05,-3.608653003084328e-07,-2.3742284156469395e-06,-2.8576914701261558e-05,4.5267621317179874e-05
-2.6725469069788232e-05,-8.357683327631094e-07,6.0559555095096584e-06,-2.7244705051998608e-05,4.585773422149941e-05
-2.961202153528575e-05,8.985659405880142e-06,1.3253339602670167e-05,-2.837375723174773e-05,4.685081876232289e-05
-4.176130096311681e-05,2.4356475478271022e-05,1.1078259376517963e-05,-3.531464608386159e-05,5.10385689267423e-05
-5.4801534133730456e-05,3.138409374514595e-05,3.960669801017502e-06,-4.310066651669331e-05,5.7586439652368426e-05
-5.887621227884665e-05,3.5219421988585964e-05,8.596402949478943e-07,-4.1004073864314705e-05,5.8793510106625035e-05
-5.5195596360135823e-05,5.148956915945746e-05,5.190988758840831e-06,-2.9371592972893268e-05,5.3728763305116445e-05
-4.7673038352513686e-05,8.48454365041107e-05,1.1599151548580267e-05,-9.11367533262819e-06,4.732205343316309e-05
-4.9243284593103454e-05,0.00012494201655499637,1.3882886378269177e-05,1.2125299690524116e-05,4.611278200172819e-05
-5.085469092591666e-05,0.0001436367310816422,1.2007001714664511e-05,1.5003085536591243e-05,5.136605250299908e-05
-4.505195465753786e-05,0.000112791036372073,9.12370887817815e-06,5.424527898867382e-06,5.4519994591828436e-05
-4.0345235902350396e-05,5.611341475741938e-05,9.369086910737678e-06,-2.508533043510397e-06,5.41796580364462e-05
-3.3208922104677185e-05,3.4977008908754215e-05,1.32194991238066e-05,-1.597566188138444e-05,5.329639679985121e-05
-1.9068242181674577e-05,5.579121352639049e-05,1.344573320238851e-05,-3.742286571650766e-05,5.370916551328264e-05
-4.95426911584218e-06,7.307017949642614e-05,9.17627039598301e-06,-5.7351498981006444e-05,5.132015940034762e-05
-3.3629876270424575e-06,6.738064985256642e-05,3.982667749369284e-06,-6.298378139035776e-05,4.9038848374038935e-05
-5.076430170447566e-06,6.067824506317265e-05,-9.205849096360907e-07,-5.236910146777518e-05,4.992787944502197e-05
3.639120222942438e-06,5.894252535654232e-05,-4.967877885064809e-06,-4.088763671461493e-05,5.210240124142729e-05
1.9444538338575512e-05,5.932868589297868e-05,-6.15363478573272e-06,-3.998508691438474e-05,5.467374649015255e-05
2.8422282412066124e-05,6.42318555037491e-05,-8.330941454914864e-06,-3.69713525287807e-05,5.501867053681053e-05
2.047583802777808e-05,6.148969987407327e-05,-1.2490235349105205e-05,-1.688382326392457e-05,5.176768536330201e-05
2.6232862637698418e-06,3.8233367376960814e-05,-1.6308567865053192e-05,1.0641465451044496e-05,4.679220000980422e-05
-8.870626515999902e-06,6.4281734921678435e-06,-1.8514310795580968e-05,2.8896896765218116e-05,4.67772624688223e-05
-7.363589702436002e-06,-1.1453557817731053e-05,-1.862370118033141e-05,2.9939323212602176e-05,5.2139192121103406e-05
2.0871297579105885e-08,-1.2700441402557772e-05,-1.9485854863887653e-05,2.22728012886364e-05,5.8174540754407644e-05
5.933210559305735e-06,-1.0224136531178374e-05,-2.5371411538799293e-05,1.6426321963081136e-05,6.192677392391488e-05
8.404213076573797e-06,-1.886611971713137e-05,-3.288509469712153e-05,1.1246013855270576e-05,6.346376176225021e-05
8.736302334000356e-06,-3.46727974829264e-05,-3.145477967336774e-05,3.821863174380269e-06,6.280783418333158e-05
1.3131411833455786e-05,-4.031037678942084e-05,-1.9793373212451115e-05,-9.144203261257644e-08,6.470525840995833e-05
2.1006768292863853e-05,-2.6727055228548124e-05,-4.270087629265618e-06,2.749915438471362e-06,6.99395895935595e-05
2.2604162950301543e-05,-2.6181758130405797e-06,9.84180314844707e-06,1.1367627848812845e-05,7.400015601888299e-05
1.6556688933633268e-05,1.8218745026388206e-05,2.8397971618687734e-05,2.273323480039835e-05,7.167598232626915e-05
6.503361873910762e-06,3.0146005883580074e-05,5.1555787649704143e-05,3.272213143645786e-05,6.58802964608185e-05
-4.333349352236837e-06,2.8389778890414163e-05,6.866580224595964e-05,3.461173764662817e-05,6.604081863770261e-05
-1.3099001989758108e-05,1.5559153325739317e-05,7.191029726527631e-05,3.2775649742688984e-05,6.94118207320571e-05
-1.98585657926742e-05,6.897201274114195e-06,6.784789002267644e-05,3.217294215573929e-05,6.845602911198512e-05
-2.740564741543494e-05,2.7257660804025363e-06,5.825918196933344e-05,2.3183232769952156e-05,6.473780376836658e-05
-3.9191545511130244e-05,-4.349263235781109e-06,4.483712837100029e-05,6.940699222468538e-06,6.083109474275261e-05
-5.036298534832895e-05,-2.1794836357003078e-05,3.8804751966381446e-05,-6.436797775677405e-06,6.0877850046381354e-05
-5.5166412494145334e-05,-3.413829836063087e-05,4.281138171791099e-05,-1.0821997420862317e-05,6.451724766520783e-05
-4.9620877689449117e-05,-2.5866544092423283e-05,4.5292650611372665e-05,-9.588015927874949e-06,6.685966218356043e-05
-4.231990533298813e-05,-6.8067361098655965e-06,3.696400744956918e-05,-1.4802758414589334e-05,6.37273260508664e-05
-4.5579479774460196e-05,1.3209064491093159e-05,2.4499620849383064e-05,-3.76097195839975e-05,5.700096153304912e-05
-5.620721640298143e-05,2.8501863198471256e-05,1.3007691450184211e-05,-6.346700683934614e-05,5.551921276492067e-05
-6.688928260700777e-05,3.6921544960932806e-05,7.580591045552865e-06,-6.924181070644408e-05,5.969565245322883e-05
-7.343214383581653e-05,4.476223330129869e-05,4.834630090044811e-06,-5.785624307463877e-05,6.580878107342869e-05
-7.714491221122444e-05,5.3788295190315694e-05,-2.9156535674701445e-06,-3.707451105583459e-05,6.812943320255727e-05
-8.275857544504106e-05,5.353133747121319e-05,-1.2403078471834306e-05,-9.854840754996985e-06,6.604671943932772e-05
-8.867228461895138e-05,3.84701052098535e-05,-1.2734622032439802e-05,1.6941792637226172e-05,6.158054748084396e-05
-8.737218740861863e-05,1.785114909580443e-05,-7.0887786023376975e-06,3.469354487606324e-05,5.656851499225013e-05
-8.043659181566909e-05,5.365298875403823e-06,-6.947801011847332e-06,4.206047742627561e-05,5.3098709031473845e-05
-7.51972766011022e-05,6.2929420892032795e-06,-1.187520865642e-05,4.209829421597533e-05,5.3505940741160884e-05
-7.21242104191333e-05,1.706779221422039e-05,-1.3280783605296165e-05,3.812638169620186e-05,5.516014789463952e-05
-6.575060251634568e-05,2.2898999304743484e-05,-9.714149200590327e-06,2.8304582883720286e-05,5.2531249821186066e-05
-5.505782974069007e-05,1.3690576452063397e-05,-8.291140147775877e-06,1.1786753020714968e-05,4.915442696074024e-05
-4.5989112550159916e-05,-2.045363999059191e-06,-8.713118404557463e-06,-6.9297998379624914e-06,5.0278704293305054e-05
-4.085314503754489e-05,-6.274795396166155e-06,-7.500399078708142e-06,-2.0318917449912988e-05,5.56724589841906e-05
-3.421851579332724e-05,3.4686790968407877e-06,-5.195171070226934e-06,-2.180508636229206e-05,6.322205445030704e-05
-2.1616589947370812e-05,1.8099130102200434e-05,-5.577453521254938e-06,-1.8336362700210884e-05,6.751318869646639e-05
-1.0749618013505824e-05,3.027614366146736e-05,-5.72741691939882e-06,-2.009063791774679e-05,6.570592086063698e-05
-2.928376034105895e-06,3.7021243770141155e-05,-4.446563252713531e-06,-2.3300275643123314e-05,6.401066639227793e-05
6.505751571239671e-06,3.804203515755944e-05,1.7245305627966445e-08,-2.0467678041313775e-05,6.76486743032001e-05
9.460026376473252e-06,2.9547882149927318e-05,4.540053851087578e-06,-3.064376505790278e-05,7.299963908735663e-05
5.7964825828094035e-06,2.015917380049359e-05,5.492875970958266e-06,-6.791684427298605e-05,7.58839669288136e-05
-3.8506877331201395e-07,2.153401328541804e-05,3.5095915791316656e-06,-0.00010475170711288229,7.270868081832305e-05
-9.383346878166776e-06,2.533337647037115e-05,-1.3401372598309536e-06,-0.00011185398034285754,6.659516657236964e-05
-1.9285975213279016e-05,2.7006559321307577e-05,-6.050703404980595e-07,-8.933217031881213e-05,6.30461290711537e-05
-2.570429933257401e-05,2.4494609533576295e-05,5.3373851187643595e-06,-4.7151963372016326e-05,5.946744931861758e-05
-2.4707640477572568e-05,1.1001189704984426e-05,7.562354767287616e-06,-2.7629200758383377e-06,5.832706665387377e-05
-2.0476205463637598e-05,-1.2176126801932696e-05,5.82870188736706e-06,2.5590765289962292e-05,5.929331018705852e-05
-2.146557926607784e-05,-2.6528945454629138e-05,5.811360097141005e-06,3.608970655477606e-05,6.089734233682975e-05
-3.557517266017385e-05,-2.2155332771944813e-05,7.325402293645311e-06,3.685386764118448e-05,6.310813478194177e-05
-5.696816515410319e-05,-7.121805538190529e-06,8.054399586399086e-06,2.9238441129564308e-05,6.513144762720913e-05
-6.738911179127172e-05,7.88613033364527e-06,9.181110726785846e-06,1.4703891793033108e-05,6.712562026223168e-05
-6.207938713487238e-05,1.85242279258091e-05,1.144595353252953e-05,-7.459753419425397e-07,6.782587297493592e-05
-4.6985045628389344e-05,3.0076624170760624e-05,1.2335945029917639e-05,-1.2266964404261671e-05,6.542682967847213e-05
-3.187262700521387e-05,4.467489634407684e-05,1.0235113222734071e-05,-1.4327160897664726e-05,6.173204019432887e-05
-2.4081056835711934e-05,5.489660179591738e-05,8.75005207490176e-06,-6.958949143154314e-06,6.136332376627252e-05
-2.2637867004959844e-05,5.6367363868048415e-05,1.2566181794682052e-05,4.3755239858001005e-06,6.418323027901351e-05
-1.9647985027404502e-05,6.020452929078601e-05,1.818601776903961e-05,1.1309967703709844e-05,6.56666888971813e-05
-1.3963851415610407e-05,6.847705662949011e-05,1.848600550147239e-05,9.541490726405755e-06,6.262359966058284e-05
-7.244992502819514e-06,7.368413207586855e-05,1.3190535355533939e-05,1.8958213559017167e-06,6.012534140609205e-05
5.79298739467049e-06,8.060666732490063e-05,6.877859505038941e-06,-6.821454462624388e-06,6.087827205192298e-05
2.0008745195809752e-05,9.21006576390937e-05,3.1079355267138453e-06,-1.0276891771354713e-05,6.299796950770542e-05
2.915375807788223e-05,9.373128705192357e-05,1.12532848106639e-06,-8.259255082521122e-06,6.563081115018576e-05
3.602831202442758e-05,8.073009666986763e-05,1.0020298759627622e-06,-7.056134109006962e-06,6.71490270178765e-05
3.899224248016253e-05,7.116575579857454e-05,2.0899096853099763e-06,-6.227888206922216e-06,6.559120811289176e-05
3.390082565601915e-05,6.866361218271777e-05,3.5099665183224715e-06,-8.060052095970605e-06,6.22373991063796e-05
2.061252416751813e-05,6.542186747537926e-05,4.708394499175483e-06,-1.097882523026783e-05,5.9687030443456024e-05
1.8394968037682702e-06,6.548004603246227e-05,2.2057377009332413e-06,-1.2263192729733419e-05,6.030361328157596e-05
-1.130549208028242e-05,7.503150118282065e-05,-2.6464849725016393e-06,-1.3574087461165618e-05,6.16228353464976e-05
-1.2568429156090133e-05,8.89815273694694e-05,-6.3984939515648875e-06,-1.5352361515397206e-05,5.9958612837363034e-05
-6.123706043581478e-06,8.827694546198472e-05,-7.683995136176236e-06,-1.5921288650133647e-05,5.92630822211504e-05
-1.1972467746090842e-06,6.556289736181498e-05,-6.71969883114798e-06,-1.4483449376712088e-05,5.927652819082141e-05
-2.577679424575763e-06,3.282506440882571e-05,-4.100094884051941e-06,-1.5647299733245745e-05,6.080336243030615e-05
-1.1553985132195521e-05,2.198288348154165e-05,-1.1475989367681905e-06,-1.8309729057364166e-05,6.323774141492322e-05
-2.3525530195911415e-05,3.847604602924548e-05,-1.142137421084044e-06,-1.9955959942308255e-05,6.375749944709241e-05
-3.0096702175796963e-05,5.277154559735209e-05,-6.335986199701438e-06,-2.320153362234123e-05,6.0523307183757424e-05
-3.157216633553617e-05,4.218485628371127e-05,-1.3021740414842498e-05,-3.144815855193883e-05,5.7189194194506854e-05
-3.086123979301192e-05,1.9889173927367665e-05,-1.5234667444019578e-05,-4.407094820635393e-05,5.834739931742661e-05
-2.9408634873107076e-05,1.2700372280960437e-05,-1.831791814765893e-05,-5.7952354836743325e-05,5.926726953475736e-05
-3.314810601295903e-05,2.1800493414048105e-05,-2.570445394667331e-05,-7.111763261491433e-05,5.5012864322634414e-05
-4.8694299039198086e-05,3.3700314816087484e-05,-3.0897346732672304e-05,-8.09131670393981e-05,4.8078592953970656e-05
-6.602551729883999e-05,3.853187445201911e-05,-2.828399919962976e-05,-8.347979746758938e-05,4.478981645661406e-05
-6.905553891556337e-05,3.247262429795228e-05,-1.9383072867640294e-05,-7.611524779349566e-05,4.4853532017441466e-05
-5.9148576838197187e-05,2.088909241138026e-05,-1.0406180081190541e-05,-5.857394717168063e-05,4.392128539620899e-05
-4.707991683972068e-05,2.3228745703818277e-05,-4.544853254628833e-06,-3.294377529527992e-05,4.363776679383591e-05
-3.8521884562214836e-05,4.980590892955661e-05,-3.0459426625384367e-07,-9.812279131438117e-07,4.7612222260795534e-05
-3.56566633854527e-05,8.249336679000407e-05,7.6199439718038775e-06,3.6482168070506305e-05,5.157077976036817e-05
-3.836349424091168e-05,9.445143223274499e-05,1.9442742996034212e-05,7.007756357779726e-05,5.009627420804463e-05
-4.628129318007268e-05,8.199683361453936e-05,2.6923562472802587e-05,8.660900493850932e-05,4.425999941304326e-05
-5.5386430176440626e-05,5.7645258493721485e-05,2.70199598162435e-05,7.97197935753502e-05,4.031173011753708e-05
-6.112195842433721e-05,4.216116212774068e-05,2.8962522264919244e-05,5.712071288144216e-05,3.956982618547045e-05
-6.431159272324294e-05,4.6322202251758426e-05,3.389122139196843e-05,3.553517672116868e-05,4.243795410729945e-05
-6.863489397801459e-05,5.16175277880393e-05,3.3295797038590536e-05,2.0349894839455374e-05,4.529652142082341e-05
-6.614568701479584e-05,4.221261406200938e-05,2.681649311853107e-05,8.09101402410306e-06,4.3616055336315185e-05
-4.96139437018428e-05,3.136644227197394e-05,1.928920391947031e-05,-4.335456196713494e-06,4.525427721091546e-05
-2.7961981686530635e-05,2.4603734345873818e-05,1.2194162991363555e-05,-4.150688982917927e-05,5.076573870610446e-05
-5.901684289710829e-06,2.9585314678115537e-06,1.4867465552015346e-06,-0.00012925923510920256,5.4544427257496864e-05
1.1139315574837383e-05,-3.577620009309612e-05,-1.35321670313715e-05,-0.00022123276721686125,5.6143777328543365e-05
1.8601065676193684e-05,-4.333338074502535e-05,-2.317915641469881e-05,-0.0002512567734811455,5.6841130572138354e-05
1.605276884220075e-05,-1.2017710105283186e-05,-2.729313200688921e-05,-0.00021121562167536467,5.806799163110554e-05
7.528072273998987e-06,8.66613754624268e-06,-3.0045337553019635e-05,-0.00012408696056809276,5.561120269703679e-05
-1.2679101928370073e-06,2.076197233691346e-06,-2.7028048862121068e-05,-1.4650383491243701e-05,5.3062907682033256e-05
-5.522748779185349e-06,-1.536473246233072e-05,-1.9109629647573456e-05,8.030164462979883e-05,5.200482701184228e-05
-1.734901388772414e-06,-4.153948975726962e-05,-7.704017662035767e-06,0.00013875635340809822,5.03786068293266e-05
5.276721367408754e-06,-7.394416752504185e-05,7.348665349127259e-06,0.00016905397933442146,5.020250682719052e-05
1.2023992894683033e-05,-8.566070755477995e-05,2.3682125174673274e-05,0.00018016074318438768,5.2625706302933395e-05
1.3570047485700343e-05,-5.767005859524943e-05,3.7881625758018345e-05,0.00017675358685664833,5.247226363280788e-05
5.172572400624631e-06,-1.0858289897441864e-05,4.532361708697863e-05,0.0001594924251548946,4.448225809028372e-05
-1.0791280146804638e-05,1.8488695786800236e-05,4.15782596974168e-05,0.00012609788973350078,3.4779830457409844e-05
-2.5064447982003912e-05,2.2979476852924563e-05,2.9464668841683306e-05,8.13020087662153e-05,3.32530471496284e-05
-3.2606763852527365e-05,1.9420551325310953e-05,1.7554644728079438e-05,4.349314622231759e-05,4.0946808439912274e-05
-3.266124622314237e-05,2.4773144104983658e-05,1.0707130968512502e-05,2.251924706797581e-05,5.178193896426819e-05
-2.636166027514264e-05,3.50166556017939e-05,8.196426279027946e-06,1.2810886801162269e-05,5.941128256381489e-05
-2.1319550796761177e-05,3.840035788016394e-05,1.079378944268683e-05,4.7925136641424615e-06,5.989473356748931e-05
-2.509586738597136e-05,3.863839810946956e-05,1.756535675667692e-05,-5.654309461533558e-06,5.851150490343571e-05
-3.43045212503057e-05,4.884927693638019e-05,1.8154534700443037e-05,-1.4477343938779086e-05,5.739044718211517e-05
-3.8908776332391426e-05,5.904040881432593e-05,1.0107761227118317e-05,-1.667797187110409e-05,5.6808341469150037e-05
-3.2986827136483043e-05,4.988508590031415e-05,-3.9239716898009647e-07,-1.5589264876325615e-05,5.7528763136360794e-05
-2.8020791432936676e-05,2.435319038340822e-05,-5.519512797036441e-06,-1.613959830137901e-05,5.969489211565815e-05
-3.302816185168922e-05,3.116435664196615e-06,1.9257595340604894e-06,-1.858128234744072e-05,6.572932761628181e-05
-4.5804968976881355e-05,1.3636317817145027e-06,1.486772089265287e-05,-2.0138049876550213e-05,7.025660306680948e-05
-6.107031367719173e-05,3.178494125677389e-06,1.627348865440581e-05,-2.3182663426268846e-05,6.42763334326446e-05
-6.332364864647388e-05,-2.057769734165049e-06,9.971498002414592e-06,-2.9040456865914166e-05,5.839201548951678e-05
-5.258247256278992e-05,3.849832864943892e-06,6.793279226258164e-06,-3.320513860671781e-05,6.098176527302712e-05
-4.0449438529321924e-05,1.3509052223525941e-05,5.544373834709404e-06,-3.650362850748934e-05,6.545586074935272e-05
-3.4526659874245524e-05,9.315996976511087e-06,4.006712970294757e-06,-3.881515658576973e-05,6.733715417794883e-05
-2.932206916739233e-05,-3.5806156120088417e-06,-4.002925834356574e-06,-4.0193954191636294e-05,6.852664228063077e-05
-1.998129846469965e-05,-9.094996130443178e-06,-1.3386514183366671e-05,-4.0681905375095084e-05,7.058875780785456e-05
-1.2177802091173362e-05,-7.62810168453143e-06,-1.7825779650593176e-05,-4.218637332087383e-05,7.336801354540512e-05
-1.1548000657057855e-05,-9.708600146041135e-07,-1.9961094949394464e-05,-5.5711003369651735e-05,7.848186214687303e-05
-2.432000655971933e-05,9.648943887441419e-06,-2.1611713236779906e-05,-8.056900696828961e-05,8.295221050502732e-05
-4.6986580855445936e-05,1.7327398381894454e-05,-2.0068120647920296e-05,-9.894596587400883e-05,8.343791705556214e-05
-6.781175034120679e-05,1.8938146240543574e-05,-1.716578844934702e-05,-0.00010282331641064957,8.05960880825296e-05
-7.760609150864184e-05,1.8583024939289317e-05,-1.7886222849483602e-05,-9.431983926333487e-05,7.712955994065851e-05
-7.482850924134254e-05,1.4090001968725119e-05,-2.372955350438133e-05,-7.402231130981818e-05,7.210228068288416e-05
-6.847452459624037e-05,2.27071996050654e-06,-2.7969252187176608e-05,-4.025605448987335e-05,6.785905861761421e-05
-6.65502593619749e-05,4.392464234115323e-06,-2.421886892989278e-05,4.184118552075233e-06,6.673695315839723e-05
-6.533035775646567e-05,2.8726261007250287e-05,-1.6070514902821742e-05,4.4282936869421974e-05,6.493265391327441e-05
-6.0011923778802156e-05,5.6924178352346644e-05,-8.395852091780398e-06,5.818161298520863e-05,6.050448428140953e-05
-5.1765047828666866e-05,7.100807852111757e-05,-2.7431381113274256e-06,4.3778836698038504e-05,5.492670607054606e-05
-4.157849616603926e-05,7.338997238548473e-05,1.2126172350690467e-06,2.1642890715156682e-05,5.1299190090503544e-05
-2.9004235329921357e-05,7.389905658783391e-05,1.809852051337657e-06,4.313111730880337e-06,5.387773489928804e-05
-1.4865913726680446e-05,7.736269617453218e-05,-5.53339646103268e-07,-1.082182461686898e-05,6.0339698393363506e-05
-7.788974016875727e-07,7.48818856664002e-05,-2.87122111330973e-06,-2.331826908630319e-05,6.237909838091582e-05
1.160975716629764e-05,6.213810411281884e-05,-5.03924120209831e-08,-2.6845316824619658e-05,6.08762311458122e-05
2.1290135919116437e-05,4.460032869246788e-05,3.6698204439744586e-06,-2.19194025703473e-05,6.113773997640237e-05
3.0385854188352823e-05,2.6904821424977854e-05,4.652561074180994e-06,-1.6119149222504348e-05,5.919220711803064e-05
3.365098382346332e-05,1.9454064386081882e-05,5.023269295634236e-06,-1.261805937247118e-05,5.377373599912971e-05
2.2932672436581925e-05,2.1196960005909204e-05,6.155200935609173e-06,-6.167308129079174e-06,5.525006781681441e-05
8.641582098789513e-06,1.3631526599056087e-05,1.2630144738068338e-05,5.2208060878911056e-06,6.382635183399543e-05
-2.415041819858743e-07,-9.117861168306263e-07,1.9118360796710476e-05,7.719654604443349e-06,6.582302012247965e-05
-5.6444609981554095e-06,6.411671193973234e-08,1.8297638234798796e-05,-6.97100767865777e-06,6.095771459513344e-05
-5.709584002033807e-06,2.51389283221215e-05,1.531495036033448e-05,-2.8143944291514345e-05,5.840224912390113e-05
1.4768146456844988e-06,5.242463885224424e-05,1.1630220797087532e-05,-4.761722811963409e-05,5.9222868003416806e-05
1.2401318599586375e-05,6.103694613557309e-05,6.848682460258715e-06,-6.460132863139734e-05,6.089900489314459e-05
2.121598481608089e-05,5.21330839546863e-05,4.278539563529193e-06,-7.339091825997457e-05,6.064566696295515e-05
2.0252795366104692e-05,4.54840155725833e-05,3.147331881336868e-06,-7.03247933415696e-05,6.116285658208653e-05
6.526265224238159e-06,5.901136319153011e-05,2.780393288048799e-06,-5.994155799271539e-05,6.422270234907046e-05
-1.144298403232824e-05,8.102253923425451e-05,6.357141501212027e-06,-4.126960993744433e-05,6.42462691757828e-05
-1.9847822841256857e-05,8.910297037800774e-05,1.2413180229486898e-05,-1.2269372746231966e-05,6.306806608336046e-05
-2.06645254365867e-05,8.748062828090042e-05,2.134211899829097e-05,1.7044405467459e-05,6.510919047286734e-05
-2.930252958321944e-05,0.00010064196249004453,3.3319814974674955e-05,3.753149212570861e-05,6.474732072092593e-05
-4.526040720520541e-05,0.00013180631503928453,4.3683292460627854e-05,5.151984441909008e-05,5.900863470742479e-05
-5.343065640772693e-05,0.00015480976435355842,4.704521779785864e-05,5.89385672356002e-05,5.384490577853285e-05
-4.9032867536880076e-05,0.00014373056183103472,4.3512056436156854e-05,5.751418575528078e-05,5.313935616868548e-05
-4.3481046304805204e-05,0.0001099697983590886,3.8130441680550575e-05,4.8891277401708066e-05,5.596569098997861e-05
-4.655708107748069e-05,8.30196586321108e-05,3.500340972095728e-05,3.638007183326408e-05,5.7238426961703226e-05
-5.7396027841605246e-05,7.416760490741581e-05,3.517044024192728e-05,2.4958007998066023e-05,5.358875932870433e-05
-6.161325291031972e-05,7.944156095618382e-05,3.241123340558261e-05,1.8661643480299972e-05,4.8505000449949875e-05
-5.270795008982532e-05,8.922757842810825e-05,2.658778066688683e-05,1.2427323781594168e-05,4.740928125102073e-05
-4.02026780648157e-05,8.082451677182689e-05,2.1813610146637075e-05,2.762008762147161e-06,5.341208088793792e-05
-3.5530996683519334e-05,4.022069333586842e-05,1.8872315195039846e-05,-9.621251592761837e-06,5.870039603905752e-05
-3.9975719118956476e-05,1.9865642570948694e-06,1.3255938938527834e-05,-1.9319642888149247e-05,5.8444409660296515e-05
-3.805549204116687e-05,-5.778417289548088e-06,4.8558936214249115e-06,-2.0852286979788914e-05,5.806915942230262e-05
-2.912079253292177e-05,-1.2806274753529578e-05,1.9988144117633055e-07,-1.560706914460752e-05,5.521229104488157e-05
-2.499434594938066e-05,-3.5949295124737546e-05,3.988571279478492e-06,-4.113311206310755e-06,5.40227847523056e-05
-2.4047416445682757e-05,-5.551901995204389e-05,1.2903631613880862e-05,2.079056230286369e-06,5.788827911601402e-05
-2.9346341761993244e-05,-5.2848092309432104e-05,1.7527296222397126e-05,-6.216201200004434e-06,6.0861748352181166e-05
-3.6391138564795256e-05,-4.086897024535574e-05,1.5488589269807562e-05,-2.553115518821869e-05,5.864428749191575e-05
-3.338289025123231e-05,-4.3804302549688146e-05,8.016274477995466e-06,-4.166518556303345e-05,5.414516999735497e-05
-2.4901493816287257e-05,-7.074805034790188e-05,1.7633115021453705e-06,-4.559257286018692e-05,5.300579505274072e-05
-1.1867954526678659e-05,-0.00010775156988529488,3.207945837857551e-07,-4.23723686253652e-05,5.3034676966490224e-05
1.6629223864583764e-06,-0.00011848284339066595,-8.758803460295894e-07,-3.5981007385998964e-05,5.368169513531029e-05
7.669024853385054e-06,-8.663355401949957e-05,-9.029393368109595e-06,-2.1591638869722374e-05,5.422703179647215e-05
-3.271314028552297e-07,-3.984729482908733e-05,-2.1135796487214975e-05,4.265089955879375e-06,5.6234286603285e-05
-1.8794780771713704e-05,-3.200416813342599e-06,-2.30812220252119e-05,3.2025858672568575e-05,5.7084231229964644e-05
-3.157307946821675e-05,2.2490006813313812e-05,-1.1964758414251264e-05,4.814674684894271e-05,5.653393964166753e-05
-3.193572410964407e-05,4.005511073046364e-05,3.568103466022876e-06,4.532810999080539e-05,5.7037395890802145e-05
-2.7151094400323927e-05,4.968439316144213e-05,1.6052739738370292e-05,2.8260774342925288e-05,5.616175985778682e-05
-2.612570096971467e-05,5.0666709284996614e-05,2.3703660190221854e-05,7.723534508841112e-06,5.327386315912008e-05
-2.823644899763167e-05,4.6977977035567164e-05,2.5818550057010725e-05,-4.542380793282064e-06,5.2697232604259625e-05
-2.9888393328292295e-05,4.238380279275589e-05,2.5661149265943095e-05,-9.444561328564305e-06,5.668591984431259e-05
-2.9484806873369962e-05,4.1449158743489534e-05,2.5571098376531154e-05,-1.4785126950300764e-05,6.17050172877498e-05
-2.836144994944334e-05,4.264937524567358e-05,2.5923394787241705e-05,-1.889375016617123e-05,6.408982153516263e-05
-2.8417192879715003e-05,3.913644468411803e-05,2.3374366719508544e-05,-1.9886856534867547e-05,6.337893864838406e-05
-3.2656836992828175e-05,3.403868686291389e-05,1.8420061678625643e-05,-2.011420474445913e-05,6.175151793286204e-05
-3.958070738008246e-05,3.4563596273073927e-05,1.6588570360909216e-05,-2.256654443044681e-05,5.892515764571726e-05
-4.5792785385856405e-05,3.4559521736809984e-05,1.5867306501604617e-05,-2.6215055186185054e-05,5.57887542527169e-05
-5.1488401368260384e-05,3.099789682892151e-05,1.2851835890614893e-05,-2.3199128918349743e-05,5.44029644515831e-05
-5.635513662127778e-05,1.991637509490829e-05,8.79443632584298e-06,-1.7383388694725e-05,5.827806671732105e-05
-5.5810276535339653e-05,8.171142326318659e-06,8.679893653606996e-06,-1.0036257663159631e-05,6.320363900158554e-05
-4.9002796004060656e-05,9.061308446689509e-06,9.955633686331566e-06,3.796248222442955e-07,6.279321678448468e-05
-3.975998697569594e-05,1.638580215512775e-05,1.2048335520375986e-05,2.6467712359590223e-06,6.1865481256973e-05
