-4.566893767332658e-05,0.0001994199410546571,-2.6906678613158874e-05,-0.0001323789037996903,5.360076465876773e-05
-2.6629495550878346e-05,0.0001314792170887813,-2.2109948986326344e-05,-0.00017514055070932955,5.9349073126213625e-05
-2.2360363800544292e-05,7.430139521602541e-05,-2.2522926883539185e-05,-0.00016748544294387102,6.110493995947763e-05
-3.080762689933181e-05,4.109322253498249e-05,-1.4020279195392504e-05,-0.00011283046478638425,6.094885247875936e-05
-4.334186451160349e-05,1.883506956801284e-05,7.846852895454504e-06,-3.498548176139593e-05,5.816136035718955e-05
-5.678362140315585e-05,3.833005030173808e-05,1.8536824427428655e-05,4.1145314753521234e-05,5.170898657524958e-05
-7.601580728078261e-05,0.00010298436973243952,3.6307706068328116e-06,0.00010774269321700558,4.174093919573352e-05
-0.00010065719106933102,0.00015290419105440378,-2.2710171833750792e-05,0.0001656499080127105,3.662971721496433e-05
-0.00011168485798407346,0.0001365623320452869,-4.708883352577686e-05,0.0002093441435135901,4.6968256356194615e-05
-9.391159255756065e-05,6.60438381601125e-05,-6.033751560607925e-05,0.0002281138877151534,6.883846072014421e-05
-5.496626181411557e-05,2.319241684745066e-05,-4.540889858617447e-05,0.00021613697754219174,8.892007463146001e-05
-2.0407813281053677e-05,2.831371602951549e-05,-4.4110192902735434e-06,0.00018191544222645462,9.359694377053529e-05
-6.151537490950432e-06,7.015868050075369e-06,3.694561019074172e-05,0.00013468672113958746,7.95741070760414e-05
-8.040242960305477e-07,-3.1954292353475466e-05,6.112212577136233e-05,8.407144923694432e-05,5.92714968661312e-05
5.986640189803438e-06,-2.012384902627673e-05,6.083799235057086e-05,2.9639413696713746e-05,4.4009913835907355e-05
1.0137641766050365e-06,3.361576091265306e-05,4.322271342971362e-05,-2.716219205467496e-05,3.373927393113263e-05
-2.698172102100216e-05,0.00010794209083542228,2.332123403903097e-05,-7.321644079638645e-05,3.3485637686681e-05
-6.205980753293261e-05,0.0001900562347145751,7.0759256232122425e-06,-9.525430505163968e-05,4.944218380842358e-05
-6.870514334877953e-05,0.0001998698280658573,7.865130555728683e-07,-0.00010165835556108505,6.672894960502163e-05
-4.952290328219533e-05,0.00011952291242778301,6.21968979430676e-07,-9.773874626262113e-05,6.840219430159777e-05
-3.0005339795025066e-05,8.561889262637123e-05,1.7524081386000034e-06,-8.756390889175236e-05,6.53741299174726e-05
-2.821615998982452e-05,3.564071448636241e-05,4.90558613819303e-06,-8.237638394348323e-05,6.880753062432632e-05
-3.8099144148873165e-05,-4.054611054016277e-05,-1.4843969609046326e-07,-9.39181845751591e-05,7.794403791194782e-05
-4.1348183003719896e-05,-6.491133535746485e-05,-1.2516039532783907e-05,-0.00013039560872130096,8.489700121572241e-05
-5.458759187604301e-05,-9.970179962692782e-05,-3.050435407203622e-05,-0.00016602789401076734,7.676713721593842e-05
-8.498917304677889e-05,-0.00018767028814181685,-4.530550359049812e-05,-0.000161136980750598,5.9015859733335674e-05
-8.667863585287705e-05,-0.0003284864651504904,-3.8513044273713604e-05,-0.00011639803415164351,4.625102519639768e-05
-4.924962195218541e-05,-0.00041938500362448394,-1.7121090422733687e-05,-6.144336657598615e-05,4.875507875112817e-05
-4.5992169361852575e-06,-0.000395102018956095,-2.340914079468348e-06,-3.379696136107668e-05,6.0049638705095276e-05
2.794709143927321e-05,-0.00030890709604136646,-2.2283036287262803e-06,-3.0518032872350886e-05,6.665306136710569e-05
4.5205826609162614e-05,-0.00021699111675843596,-9.332853551313747e-06,-1.999969572352711e-05,6.389975169440731e-05
4.9428454076405615e-05,-8.925131987780333e-05,-1.0266870958730578e-05,9.410950042365585e-06,5.216046702116728e-05
4.055904719280079e-05,6.287562428042293e-05,-2.2882168195792474e-06,4.511608858592808e-05,3.935735730919987e-05
1.7206717529916205e-05,0.00015442981384694576,8.293886821775232e-06,6.883631431264803e-05,3.420277062105015e-05
-1.2500441698648501e-05,0.00015794654609635472,1.609599894436542e-05,8.238051668740809e-05,3.45516818924807e-05
-3.105083669652231e-05,0.0001310336374444887,2.471940933901351e-05,0.00010447353997733444,3.249012297601439e-05
-3.611003194237128e-05,0.0001264432503376156,3.305379505036399e-05,0.0001328060607193038,2.8843844120274298e-05
-4.59322654933203e-05,0.00015836705279070884,3.134989310638048e-05,0.00013817734725307673,3.212297451682389e-05
-7.257874676724896e-05,0.0002281324559589848,1.2039696230203845e-05,0.00011531732161529362,4.529893340077251e-05
-9.830536873778328e-05,0.0002945444139186293,-1.3979926734464243e-05,8.533352956874296e-05,6.321356340777129e-05
-0.00010515619214856997,0.0002743102377280593,-2.1874331650906242e-05,5.134177263244055e-05,7.67970341257751e-05
-9.19272715691477e-05,0.00013714349188376218,-1.2486439118220005e-05,-9.169895747618284e-06,7.54279681132175e-05
-7.692752842558548e-05,3.639635906438343e-05,-7.422574526572134e-06,-9.001470607472584e-05,6.978437886573374e-05
-6.786919402657077e-05,0.00012084045010851696,-6.88008003635332e-06,-0.0001522923557786271,6.762460543541238e-05
-5.988702105241828e-05,0.00022897502640262246,-5.031244754150066e-08,-0.00015932154201436788,5.985060124658048e-05
-4.965033076587133e-05,0.00016998429782688618,9.689340458862716e-07,-0.00012091476673958823,5.436518040369265e-05
-3.292455949122086e-05,4.7031615395098925e-05,-7.94574043538887e-06,-7.288716005859897e-05,6.445185863412917e-05
-2.147123268514406e-05,1.1102662028861232e-05,-5.5313266784651205e-06,-2.5899005777318962e-05,8.497131057083607e-05
-1.672034341027029e-05,5.533999569706793e-07,8.507490747433621e-06,2.9679020371986553e-05,9.53912822296843e-05
1.2930211141792824e-06,-7.14185880497098e-05,2.142748962796759e-05,7.82379720476456e-05,9.00182276382111e-05
3.721545363077894e-05,-0.0001865839003585279,2.521882561268285e-05,8.066338341450319e-05,7.936217298265547e-05
7.09746964275837e-05,-0.00029648590134456754,1.2636558494705241e-05,3.455526166362688e-05,6.918186409166083e-05
9.428413613932207e-05,-0.0002600539301056415,-4.546037416730542e-06,-2.1445914171636105e-05,6.005500108585693e-05
0.0001262083533219993,-8.009711746126413e-05,-1.4074309547140729e-05,-5.799161590402946e-05,5.523295112652704e-05
0.0001554811606183648,5.429694283520803e-05,-1.5444602468051016e-05,-8.455232455162331e-05,5.080692790215835e-05
0.00015527260256931186,3.301761898910627e-05,-1.823534330469556e-05,-0.00010720315913204104,4.1323630284750834e-05
0.00011137348337797448,-2.9122924388502724e-05,-1.422543209628202e-05,-0.00011689864913932979,3.284885679022409e-05
2.7834305001306348e-05,-9.063415745913517e-06,9.094481356441975e-06,-0.00010600753739709035,2.6588795662974007e-05
-5.688941746484488e-05,4.6277898945845664e-05,4.3820877181133255e-05,-8.836491906549782e-05,2.1385130821727216e-05
-9.201431385008618e-05,6.198451592354104e-05,6.524450145661831e-05,-8.264149073511362e-05,2.5997218472184613e-05
-8.158692071447149e-05,4.8549045459367335e-05,6.062867396394722e-05,-6.931572715984657e-05,4.193643690086901e-05
-6.562556518474594e-05,5.8722998801385984e-05,4.13358211517334e-05,-2.5040817490662448e-05,5.4299649491440505e-05
-5.494559445651248e-05,0.0001049269485520199,2.058794598269742e-05,3.853072485071607e-05,5.417152715381235e-05
-4.1095852793660015e-05,0.00017966209270525724,6.94906105991322e-08,9.465315088164061e-05,4.554312545224093e-05
-3.0036108000786044e-05,0.00026772895944304764,-1.507608794781845e-05,0.00012657596380449831,4.170854663243517e-05
-3.5310546081746e-05,0.00035271799424663186,-1.0866709089896176e-05,0.0001331256062258035,5.102614522911608e-05
-4.596528742695227e-05,0.0004092813760507852,7.094235570548335e-06,0.00012497426359914243,6.275021587498486e-05
-4.4115451601101086e-05,0.00043303173151798546,1.8742193788057193e-05,9.638360643293709e-05,5.849018998560496e-05
-3.54881449311506e-05,0.0004401411861181259,1.6952670193859376e-05,4.82379000459332e-05,4.534671097644605e-05
-3.5265453334432095e-05,0.0004481064388528466,1.119383432524046e-05,6.6781376517610624e-06,4.626264490070753e-05
-3.8343408959917724e-05,0.0004078315105289221,8.21562389319297e-06,-5.3534386097453535e-06,6.16679826634936e-05
-5.2193361625541e-05,0.0002459990209899843,7.940079740365036e-06,1.019708452076884e-05,7.077039481373504e-05
-7.932871085358784e-05,-1.3969294741400518e-05,8.157519914675504e-06,2.89826602966059e-05,6.059287625248544e-05
-8.665642963023856e-05,-0.00023920476087369025,1.3184868294047192e-05,2.892220982175786e-05,4.889804404228926e-05
-5.7270412071375176e-05,-0.0002658633457031101,2.1722547899116762e-05,1.341473307547858e-05,5.428730582934804e-05
-3.0348915970535018e-05,-0.00017375036259181798,3.7787871406180784e-05,4.735044058179483e-06,6.626162939937785e-05
-2.8076317903469317e-05,-0.00015782596892677248,5.532841896638274e-05,1.4769681911275256e-05,7.334505062317476e-05
-3.9375652704620734e-05,-0.00022872243425808847,5.559005876420997e-05,2.7196450901101343e-05,7.087158155627549e-05
-4.3652093154378235e-05,-0.00032989183091558516,4.069830174557865e-05,2.736369970079977e-05,6.217510963324457e-05
-3.515145363053307e-05,-0.0003696952189784497,2.6484414775040932e-05,7.537713827332482e-06,5.7297020248370245e-05
-2.4907136321417056e-05,-0.000377876014681533,2.0484438209678046e-05,-3.4323311410844326e-05,5.4209747759159654e-05
4.796394023287576e-06,-0.0004382700426504016,1.9674031136673875e-05,-6.712926551699638e-05,5.334942397894338e-05
5.812585004605353e-05,-0.0004941821680404246,2.1735790141974576e-05,-6.860533176222816e-05,5.685395444743335e-05
0.0001026664103846997,-0.00037634657928720117,2.362176383030601e-05,-4.6949495299486443e-05,6.066850255592726e-05
0.00010516733163967729,-0.00011049746535718441,2.5815466869971715e-05,-1.7236932762898505e-05,5.8291763707529753e-05
7.844958599889651e-05,7.8429831773974e-05,3.163250585203059e-05,1.491509101470001e-05,5.376535773393698e-05
5.259321187622845e-05,9.950916864909232e-05,3.4941833291668445e-05,4.5261804189067334e-05,5.428859367384575e-05
3.578000178094953e-05,5.3521915106102824e-05,2.9998087484273128e-05,6.294357444858178e-05,5.659295493387617e-05
1.8628956240718253e-05,4.486218676902354e-05,1.886577229015529e-05,6.0403221141314134e-05,5.2059836889384314e-05
-8.46104376250878e-06,7.136892236303538e-05,9.224754649039824e-06,4.170964166405611e-05,4.317546699894592e-05
-3.5690445656655356e-05,0.0001065560572897084,6.3374968704010826e-06,1.4485542124020867e-05,4.081350562046282e-05
-4.376369543024339e-05,0.00012105506175430492,3.726058139363886e-06,-1.552514368086122e-05,5.105793752591126e-05
-2.8121490686316974e-05,0.00011011167953256518,-2.940189233413548e-06,-3.5928380384575576e-05,6.782101263524964e-05
-8.325504495587666e-06,8.297414024127647e-05,-4.885235398432997e-07,-3.920263407053426e-05,7.093019667081535e-05
-3.542598506101058e-06,7.925227691885084e-05,1.8857212126022205e-05,-3.2934851333266124e-05,5.704762588720769e-05
-2.347049849049654e-05,0.0001072363811545074,3.788786489167251e-05,-2.332532858417835e-05,4.672147042583674e-05
-5.432376929093152e-05,0.00012195748422527686,3.8230249629123136e-05,-1.2963671906618401e-05,4.920348510495387e-05
-6.889516225783154e-05,0.00010247046157019213,2.2682968847220764e-05,-8.419654477620497e-06,5.202939792070538e-05
-5.9129928558832034e-05,0.00010964472312480211,4.031982825836167e-06,-1.3584437510871794e-05,5.106764001538977e-05
-4.2520226998021826e-05,0.00015168078243732452,-3.454394118307391e-06,-1.8900953364209272e-05,5.5038795835571364e-05
-3.712575926329009e-05,0.0001746883208397776,8.825561053527053e-06,-1.7858497812994756e-05,5.976157626719214e-05
-4.0422804886475205e-05,0.00015064075705595315,1.0647711860656273e-05,-2.325798232050147e-05,5.587549094343558e-05
-4.206667290418409e-05,9.819186379900202e-05,-1.1364482816134114e-05,-3.4628246794454753e-05,4.7620826080674306e-05
-4.639857797883451e-05,7.062619988573715e-05,-3.0555649573216215e-05,-4.06005019613076e-05,4.407858068589121e-05
-6.0923481214558706e-05,8.915006037568673e-05,-3.555455987225287e-05,-3.8390440749935806e-05,4.46379890490789e-05
-8.479611278744414e-05,0.00011831944721052423,-3.532267510308884e-05,-3.151466808049008e-05,4.502763840719126e-05
-0.00011015638301614672,0.00012518900621216744,-3.624034798122011e-05,-2.616052734083496e-05,4.811964390682988e-05
-0.0001186997105833143,8.673012052895501e-05,-3.251806992921047e-05,-2.6033174435724504e-05,5.1631879614433274e-05
-0.0001009353727567941,2.750440762611106e-05,-2.3665674234507605e-05,-3.0066432373132557e-05,5.4970383644104004e-05
-7.141695823520422e-05,-1.734351462800987e-05,-1.5353833077824675e-05,-3.655343607533723e-05,6.456513801822439e-05
-5.993936429149471e-05,-2.564667011029087e-05,-1.1855000593641307e-05,-4.377646473585628e-05,8.188566425815225e-05
-6.709984154440463e-05,2.692714406293817e-05,-9.008118468045723e-06,-4.64754193671979e-05,9.728893201099709e-05
-6.88364016241394e-05,0.00010854646825464442,-4.77105959362234e-06,-4.697192707681097e-05,0.00010162864782614633
-5.5521868489449844e-05,0.00016063293151091784,-4.4598360204872733e-07,-6.047411807230674e-05,9.422359289601445e-05
-4.234343214193359e-05,0.00017282285261899233,3.6806210346185253e-07,-9.585271618561819e-05,8.094077202258632e-05
-4.6929992095101625e-05,0.00018268561689183116,-2.097106744258781e-06,-0.00013170798774808645,7.06883511156775e-05
-6.544216012116522e-05,0.0001918241468956694,1.3702508567803307e-06,-0.00013683710130862892,6.952253170311451e-05
-7.673285290366039e-05,0.00017958642274606973,6.213296728674322e-06,-0.00010478884360054508,7.802671461831778e-05
-6.822993600508198e-05,0.00014883078983984888,8.791323011791974e-07,-5.672474799212068e-05,9.299634984927252e-05
-4.7691053623566404e-05,0.00012157562741776928,-3.0234307359933155e-06,-1.2587378478201572e-05,0.00010427915549371392
-2.7089621653431095e-05,9.059224976226687e-05,8.235741915996186e-06,1.908999001898337e-05,0.0001056956170941703
-8.95675111678429e-06,1.8329941667616367e-05,2.0407986085047014e-05,3.288071457063779e-05,9.95507143670693e-05
-8.134842914842011e-07,-0.00011372620792826638,1.2850881830672733e-05,3.0028731998754665e-05,8.509897452313453e-05
-1.599322604306508e-05,-0.0002075486845569685,-8.62378510646522e-06,1.7725382349453866e-05,6.870354263810441e-05
-4.203264688840136e-05,-0.00014981447020545602,-1.6735848475946113e-05,1.525536958979501e-06,5.8745587011799216e-05
-4.811527469428256e-05,-3.807225948548876e-05,-6.0736492741853e-06,-1.1681813703035004e-05,5.486378722707741e-05
-2.358894380449783e-05,-7.46302175684832e-05,4.26363021688303e-06,-1.5234928468998987e-05,5.05365060234908e-05
4.812260613107355e-06,-0.0001901015784824267,-1.2792215784429573e-06,-1.6149351722560823e-05,3.953224586439319e-05
1.185746441478841e-05,-0.00013361952733248472,-1.709477510303259e-05,-1.3104293429933023e-05,3.498393562040292e-05
6.873654001537943e-06,6.333983037620783e-05,-2.874884376069531e-05,1.903908810163557e-06,4.735031689051539e-05
4.01740544475615e-06,0.00021485619072336704,-3.2102514524012804e-05,2.1672405637218617e-05,6.237665365915745e-05
-6.39558129478246e-06,0.000298159517114982,-3.411009311093949e-05,3.283145997556858e-05,6.232554733287543e-05
-2.9372606149991043e-05,0.0003821367572527379,-3.0012362913112156e-05,3.299662785138935e-05,4.431142588146031e-05
-5.652821346302517e-05,0.00046539580216631293,-1.7882704923977144e-05,3.651154474937357e-05,3.5525365092325956e-05
-7.856963202357292e-05,0.00042882547131739557,-4.454418558452744e-06,4.1396619053557515e-05,4.852148413192481e-05
-9.354997018817812e-05,0.0002592555829323828,1.3308664165379014e-05,3.342039417475462e-05,6.208779086591676e-05
-0.00010281470895279199,9.431923535885289e-05,3.277260475442745e-05,1.7446393030695617e-05,6.365362060023472e-05
-9.764112473931164e-05,6.600997494388139e-06,4.8440015234518796e-05,8.393692951358389e-06,6.293960905168205e-05
-7.393443229375407e-05,-7.878360338509083e-05,5.825571861350909e-05,6.805925295338966e-06,6.249719444895163e-05
-4.597743827616796e-05,-0.0002395730698481202,5.679924652213231e-05,1.1802540029748343e-06,5.351884465198964e-05
-2.9470440495060757e-05,-0.0004357101861387491,4.004472430096939e-05,-1.1768644071707968e-05,3.712128091137856e-05
-2.3710668756393716e-05,-0.0005442508845590055,1.3959304851596244e-05,-2.5925068257492967e-05,3.361882772878744e-05
-7.326974355237326e-06,-0.0004912588628940284,-6.833014595031273e-06,-3.468195427558385e-05,5.790270370198414e-05
3.201307845301926e-05,-0.00030310824513435364,-9.504828994977288e-06,-3.768265378312208e-05,9.097299334825948e-05
6.84433980495669e-05,-0.00010951753210974857,1.9885953861376038e-06,-3.5707747883861884e-05,0.00010779899457702413
7.453752914443612e-05,-5.006680294172838e-05,1.1521078704390675e-05,-2.9836721296305768e-05,0.00010909733100561425
5.8053978136740625e-05,-0.00010947992996079847,9.62320791586535e-06,-2.180143928853795e-05,0.00010441499762237072
3.143754292977974e-05,-0.0001689998753136024,-2.3427317046298413e-06,-1.5702662494732067e-05,9.063241304829717e-05
2.9561172141256975e-06,-0.00013043981743976474,-1.9773628082475625e-05,-1.1898635420948267e-05,7.043735968181863e-05
3.5249504435341805e-06,-2.6661224183044396e-05,-3.5016200854443014e-05,-8.834985237626825e-06,5.781242361990735e-05
3.4550899727037176e-05,3.738980012713e-05,-3.7977169995428994e-05,-8.034183338168077e-06,6.041633241693489e-05
6.842450238764286e-05,9.419790330866817e-06,-2.5568087949068286e-05,-7.121708222257439e-06,6.839264824520797e-05
8.585262548876926e-05,-0.00011737366730812937,-9.009352652356029e-06,-1.1778221050917637e-05,6.634236342506483e-05
7.198500679805875e-05,-0.00020302690973039716,-3.8485535469590104e-07,-3.230511356377974e-05,4.973593968315981e-05
2.572615267126821e-05,-7.026151433819905e-05,-2.855517493571824e-07,-6.695048796245828e-05,2.9589264158857986e-05
-2.6761683329823427e-05,0.0001029287523124367,-9.394939866069763e-07,-9.279218647861853e-05,1.6785394109319896e-05
-5.480738400365226e-05,0.00012239535863045603,2.977935196213366e-07,-9.530153329251334e-05,1.218354645970976e-05
-6.316645885817707e-05,8.211107342503965e-05,7.747060408291873e-06,-7.707215991104022e-05,1.5508590877288952e-05
-6.130266410764307e-05,8.210379746742547e-05,1.7034881238942035e-05,-4.306959453970194e-05,2.880304782593157e-05
-4.9113728891825303e-05,0.00010835245484486222,1.7789689081837423e-05,-1.3398015425991616e-06,4.6072585973888636e-05
-3.0197439627954736e-05,0.00011467756849015132,7.488411483791424e-06,4.8420453822473064e-05,5.7974284572992474e-05
-1.6070245692390017e-05,0.00010594258492346853,-5.320279342413414e-06,8.95928023965098e-05,5.729558688472025e-05
-1.58311322593363e-05,9.8718075605575e-05,-1.377786338707665e-05,0.00010230588668491691,4.5931636122986674e-05
-2.332768235646654e-05,9.860344289336354e-05,-1.7447700884076767e-05,8.383068052353337e-05,3.231947630411014e-05
-2.9715669370489195e-05,0.00010045537783298641,-1.03763031802373e-05,4.826859731110744e-05,2.192416286561638e-05
-2.9297782020876184e-05,0.00010991021554218605,7.509887382184388e-06,1.6718875485821627e-05,2.155084439436905e-05
-2.9726066713919863e-05,0.0001286096521653235,3.083789488300681e-05,5.130985300638713e-06,3.605219171731733e-05
-4.643926877179183e-05,0.00014934735372662544,4.3375006498536095e-05,7.858143362682313e-06,6.122631748439744e-05
-7.836575241526589e-05,0.0001627717720111832,3.831419235211797e-05,8.641352906124666e-06,8.469454769510776e-05
-0.00010250652121612802,0.00014714022108819336,3.0831961339572445e-05,6.8101967372058425e-06,0.00010016398300649598
-0.00010365268826717511,0.00010410169488750398,3.5764500353252515e-05,7.79630590841407e-06,0.00010227740131085739
-8.728600369067863e-05,7.185723370639607e-05,4.621298285201192e-05,8.755263479542919e-06,8.90513401827775e-05
-6.431060319300741e-05,7.376165740424767e-05,4.585105489240959e-05,2.8089928036933998e-06,7.306696352316067e-05
-4.776745117851533e-05,8.454491762677208e-05,3.352795465616509e-05,-9.032675734488294e-06,6.288245640462264e-05
-4.3518433813005686e-05,8.064042776823044e-05,2.0279458112781867e-05,-2.1795925931655802e-05,5.5483251344412565e-05
-4.054215969517827e-05,6.652424053754658e-05,1.1403638382034842e-05,-3.190723145962693e-05,5.2574043365893885e-05
-3.769728209590539e-05,6.735000351909548e-05,5.5752011576259974e-06,-3.865487815346569e-05,5.6540589866926894e-05
-4.843382703256793e-05,9.128468809649348e-05,-6.7076889536110684e-06,-4.001071283710189e-05,6.843492155894637e-05
-6.255113112274557e-05,0.00013279932318255305,-2.315894926141482e-05,-3.514153286232613e-05,8.069811156019568e-05
-5.458687519421801e-05,0.0001805583742680028,-2.5011482648551464e-05,-2.5500823539914563e-05,8.387086563743651e-05
-3.674545951071195e-05,0.00020745205983985215,-1.5025944776425604e-05,-1.4907136574038304e-05,8.20997593109496e-05
-3.349059625179507e-05,0.0001943293318618089,-4.985512987332186e-06,3.2758614452177426e-06,7.772914250381291e-05
-3.1767973268870264e-05,0.00015126712969504297,1.6977065797618707e-06,2.4792734620859846e-05,6.985865911701694e-05
-1.7755513908923604e-05,8.303123468067497e-05,1.0099524843099061e-05,3.292456312919967e-05,6.451956869568676e-05
1.8127632301911945e-06,-8.840750524541363e-06,1.5777604858158156e-05,2.1245721654850058e-05,6.207923433976248e-05
8.425237865594681e-06,-7.729599019512534e-05,1.2986999536224175e-05,4.373355295683723e-06,5.629185397992842e-05
-1.7125378235505195e-06,-9.266824054066092e-05,3.016462642335682e-06,-9.481698725721799e-06,4.898661791230552e-05
-9.483406756771728e-06,-8.936867379816249e-05,-5.914508619753178e-06,-1.699177664704621e-05,4.472189175430685e-05
-1.4064718016015831e-05,-4.163750054431148e-05,-8.656045793031808e-06,-1.6481220882269554e-05,4.5707187382504344e-05
-2.6135188818443567e-05,8.359068306162953e-05,-1.1241631909797434e-05,-1.4179974641592707e-05,4.759311559610069e-05
-4.20637043134775e-05,0.00022447248920798302,-1.486170367570594e-05,-1.4480799109151121e-05,4.642545900424011e-05
-4.900341446045786e-05,0.0003171881253365427,-1.4311748600448482e-05,-1.671946120040957e-05,4.382624683785252e-05
-3.973022830905393e-05,0.0003147777169942856,-2.2007509414834203e-06,-1.3219855645729695e-05,4.498819544096477e-05
-1.9849223463097587e-05,0.0001979671069420874,1.1079819159931503e-05,-7.856549927964807e-06,4.997541327611543e-05
-3.6673447993962327e-06,8.449048618786037e-05,2.135171598638408e-05,-1.0568214747763705e-05,5.145949398865923e-05
-1.8386750753052183e-06,0.00012089194933651015,3.1832445529289544e-05,-2.8100350391468965e-05,4.787066427525133e-05
-1.401799909217516e-05,0.0002444538695272058,4.250768688507378e-05,-5.371942825149745e-05,4.595406062435359e-05
-2.7053185476688668e-05,0.00031629620934836566,4.857024396187626e-05,-7.348345388891175e-05,4.952849849360064e-05
-3.258286960772239e-05,0.0002818747016135603,4.9305563152302057e-05,-8.184144826373085e-05,5.3274197853170335e-05
-3.2468640711158514e-05,0.0001453093864256516,4.393838025862351e-05,-9.611924178898335e-05,5.736487582908012e-05
-2.4737855710554868e-05,-4.1960975067922845e-05,3.1653453334001824e-05,-0.00013927850523032248,6.770945037715137e-05
-1.5714169421698898e-05,-0.0002103964943671599,1.86615034181159e-05,-0.0001927766716107726,7.90003250585869e-05
-2.669083551154472e-05,-0.00037537922617048025,5.231450813880656e-06,-0.00020252735703252256,7.395607826765627e-05
-5.285087536321953e-05,-0.0005650831153616309,-9.881474397843704e-06,-0.00015651938156224787,5.337096081348136e-05
-5.348641570890322e-05,-0.0007096758927218616,-2.6804656954482198e-05,-8.807244012132287e-05,3.781659324886277e-05
-1.823323873395566e-05,-0.0007122798124328256,-5.567968764808029e-05,-2.779784881568048e-05,3.408340489841066e-05
2.677899283298757e-05,-0.0005184700712561607,-9.105329809244722e-05,2.8546759494929574e-05,4.095363328815438e-05
5.622864773613401e-05,-0.0002179085131501779,-8.901813271222636e-05,9.245175897376612e-05,5.124133167555556e-05
6.932803080417216e-05,-1.7298167222179472e-05,-3.543245475157164e-05,0.00015293028263840824,5.4678108426742256e-05
6.145862425910309e-05,5.912045526201837e-05,2.6902907848125324e-05,0.00018809385073836893,5.4747357353335246e-05
4.093276947969571e-05,0.00011111872299807146,6.043155008228496e-05,0.00019258385873399675,5.629623410641216e-05
3.399705019546673e-05,0.0001255348470294848,5.959424015600234e-05,0.0001866918319137767,5.796930781798437e-05
2.390991176071111e-05,0.00010251442290609702,4.030431591672823e-05,0.0001635926018934697,5.166747359908186e-05
3.51083781424677e-06,9.476301056565717e-05,2.4996556021505967e-05,0.0001140637177741155,4.0702030673855916e-05
-1.494679327151971e-05,0.0001242750877281651,1.3469169971358497e-05,5.418876389740035e-05,3.6792065657209605e-05
-2.8088998078601435e-05,0.0001391538098687306,1.4370482404046925e-06,6.51330219625379e-06,3.8838403270347044e-05
-3.470549199846573e-05,0.00011111776257166639,-1.0124678738065995e-05,-1.824980427045375e-05,4.5688509999308735e-05
-3.1326489988714457e-05,5.82975844736211e-05,-1.2284849617572036e-05,-2.2903052013134584e-05,5.8677876950241625e-05
-1.832200177886989e-05,-2.6322520625399193e-06,-5.677402441506274e-06,-1.4101454326009843e-05,7.116694905562326e-05
-1.0003527251001287e-07,-1.0328505595680326e-05,6.388937890733359e-06,1.7057723198377062e-06,8.049757161643356e-05
1.7977161405724473e-05,5.73094112041872e-05,1.9994728063466027e-05,1.2685001820500474e-05,8.758379408391193e-05
2.1989406377542764e-05,0.00012785491708200425,2.789767677313648e-05,1.1968124454142526e-05,8.517682726960629e-05
1.1823839486169163e-05,0.00011249836097704247,2.776149813144002e-05,1.8855498638004065e-06,7.0306115958374e-05
-5.296201379678678e-07,2.108029912051279e-05,2.04080297407927e-05,-1.119202897825744e-05,5.566642357734963e-05
-1.3391102584137116e-05,-5.1902734412578866e-05,1.1962927601416595e-05,-1.775282908056397e-05,5.29464305145666e-05
-3.088644734816626e-05,-4.139901648159139e-05,8.72357668413315e-06,-1.35544305521762e-05,5.7417306379647925e-05
-5.001459794584662e-05,9.913233043334913e-06,1.2328766388236545e-05,-6.859043878648663e-06,6.226619734661654e-05
-8.001642709132284e-05,2.7125463020638563e-05,1.6432948541478254e-05,-8.109393093036488e-06,6.169016705825925e-05
-0.00012418365804478526,1.1903940503543708e-05,2.0134433725615963e-05,-9.964856872102246e-06,5.3917050536256284e-05
-0.00014865135017316788,1.7976817616727203e-05,2.3572129066451453e-05,-7.122363967937417e-06,4.3200067011639476e-05
-0.00012766505824401975,6.64997860440053e-05,2.2246604203246534e-05,-9.511009011475835e-06,3.483574982965365e-05
-8.026786235859618e-05,0.00012914471153635532,9.410430720890872e-06,-2.10114085348323e-05,3.7333116779336706e-05
-3.65600899385754e-05,0.00017562323773745447,-6.288993972702883e-06,-3.044036202481948e-05,5.5423683079425246e-05
-2.0425228285603225e-05,0.0001744959590723738,-1.602979864401277e-05,-3.375838787178509e-05,7.385516801150516e-05
-2.4575785573688336e-05,0.00013502190995495766,-1.055971188179683e-05,-3.215979813830927e-05,8.35274113342166e-05
-2.9663466193596832e-05,0.0001154132405645214,2.8208605726831593e-06,-2.764302735158708e-05,8.573913510190323e-05
-2.8465661671361886e-05,0.00012872222578153014,-4.466442533157533e-06,-2.929770744231064e-05,7.326440390897915e-05
-2.6836882170755416e-05,0.00014727989037055522,-2.4476430553477257e-05,-3.5391643905313686e-05,5.633890032186173e-05
-3.626629040809348e-05,0.0001536607014713809,-3.0033701477805153e-05,-3.238690987927839e-05,4.6217217459343374e-05
-4.7606565203750506e-05,0.00013808044604957104,-1.7712844055495225e-05,-2.3399987185257487e-05,4.777131834998727e-05
-3.919670780305751e-05,0.00012660677020903677,-1.5488903954974376e-06,-1.5347821317845955e-05,5.9353063988965005e-05
-6.225272500159917e-06,0.00013795662380289286,7.835915312170982e-06,-8.96311212272849e-06,6.589324766537175e-05
1.5252154298650566e-05,0.00014548304898198694,1.6856542060850188e-05,-5.355520443117712e-06,6.54145042062737e-05
1.1838322279800195e-05,9.652817971073091e-05,2.6328461899538524e-05,-7.361238203884568e-06,6.740275421179831e-05
8.005345080164261e-06,-4.849979450227693e-05,2.8454232960939407e-05,-1.5745561540825292e-05,7.337590795941651e-05
1.591930413269438e-05,-0.0002568473282735795,1.9274319129181094e-05,-2.9018563509453088e-05,6.976220174692571e-05
9.911411325447261e-06,-0.0003646823752205819,1.44088801334874e-06,-4.342746615293436e-05,5.0166661822004244e-05
-2.6026922569144517e-05,-0.00026621733559295535,-1.6459389371448196e-05,-5.341319047147408e-05,2.9036742489552125e-05
-6.89310472807847e-05,-7.542662933701649e-05,-3.243992250645533e-05,-5.451663673738949e-05,2.148849489458371e-05
-8.146751497406512e-05,2.942764331237413e-05,-4.351415918790735e-05,-4.7140380047494546e-05,2.7972273528575897e-05
-6.368164758896455e-05,9.080741619982291e-06,-4.347341018728912e-05,-3.697237480082549e-05,3.820194979198277e-05
-5.801398947369307e-05,-4.881206405116245e-05,-3.49702822859399e-05,-2.982333353429567e-05,4.3406205804785714e-05
-7.942076626932248e-05,-7.019892655080184e-05,-1.7715670765028335e-05,-2.6614683520165272e-05,4.2349056457169354e-05
-9.319992386735976e-05,-5.46709488844499e-05,7.4536073952913284e-06,-2.165334444725886e-05,4.28548373747617e-05
-7.374153938144445e-05,-3.2843548979144543e-05,2.3851669538998976e-05,-1.4388676390808541e-05,4.784313932759687e-05
-4.57129608548712e-05,-1.885542405943852e-05,2.403455255262088e-05,-2.959949597425293e-06,5.159417196409777e-05
-3.377050961717032e-05,-1.2415286619216204e-05,1.7054688214557245e-05,9.789101568458136e-06,5.342850272427313e-05
-2.4962841052911244e-05,3.4338765999564203e-06,4.668690507969586e-06,1.3955377653473988e-05,5.636889909510501e-05
-6.4531027419434395e-06,3.7459660234162584e-05,-1.1375704161764588e-05,7.655888111912645e-06,5.597334529738873e-05
7.374672350124456e-06,8.95250923349522e-05,-1.6920139387366362e-05,-5.853352377016563e-06,5.0908358389278874e-05
2.8274428132135654e-06,0.00013981919619254768,4.03512922275695e-06,-1.898555456136819e-05,4.931311195832677e-05
-1.11470189949614e-05,0.00017506004951428622,3.520524114719592e-05,-2.1444648155011237e-05,5.0935526815010235e-05
-1.859292751760222e-05,0.0002115157403750345,4.5003504055785015e-05,-2.032481825153809e-05,5.31144360138569e-05
-3.1747746106702834e-05,0.000249598640948534,4.1028979467228055e-05,-2.0051360479556024e-05,5.719137698179111e-05
-4.850011828239076e-05,0.0002727544051595032,3.962013215641491e-05,-1.9626901121228002e-05,6.283285620156676e-05
-5.7434619520790875e-05,0.00029053312027826905,3.712800389621407e-05,-2.1484274839167483e-05,6.848276825621724e-05
-6.093983756727539e-05,0.0002815068291965872,2.634748670971021e-05,-2.091092028422281e-05,6.873848178656772e-05
-6.097926234360784e-05,0.00025257986271753907,9.751497600518633e-06,-1.7027790818247013e-05,6.269594450714067e-05
-5.110669007990509e-05,0.00016291646170429885,-6.801779818488285e-06,-9.108056474360637e-06,5.779599450761452e-05
-2.226533615612425e-05,-0.00010036210005637258,-1.5224206435959786e-05,6.536684850289021e-06,5.586832412518561e-05
1.81434861588059e-05,-0.00033482129219919443,-1.4262795048125554e-05,2.463870623614639e-05,5.735112790716812e-05
5.1194561820011586e-05,-0.000276069127721712,-1.040264487528475e-05,3.913482214557007e-05,6.430200301110744e-05
7.47249141568318e-05,-9.111953113460913e-05,-5.173184945306275e-06,4.6686527639394626e-05,7.191607437562197e-05
9.879960998659953e-05,-3.0790168239036575e-05,1.0753547030617483e-06,4.023998189950362e-05,7.574149640277028e-05
0.00010122178355231881,-7.78253743192181e-05,-1.917788949867827e-06,1.8260343495057896e-05,7.4145951657556e-05
5.956633322057314e-05,-8.707477536518127e-05,-1.9785959011642262e-05,-1.3893009963794611e-05,6.508243677671999e-05
-7.875945584601141e-07,-2.6143545255763456e-05,-3.469369767117314e-05,-4.217711102683097e-05,5.2609055273933336e-05
-3.073186599067412e-05,3.397966065676883e-05,-3.491343159112148e-05,-5.417961074272171e-05,4.77340909128543e-05
-1.5772582628414966e-05,4.476710091694258e-05,-2.5865692805382423e-05,-5.177018465474248e-05,5.321032222127542e-05
1.0649996511347126e-05,3.6765410186490044e-05,-1.8486191038391553e-05,-4.122238897252828e-05,5.988764314679429e-05
1.2363417226879392e-05,4.495697794482112e-05,-1.4303471289167646e-05,-2.5282712158514187e-05,6.343823042698205e-05
-4.365826043795096e-06,5.219696686253883e-05,-5.584113750956021e-06,-8.2017886597896e-06,7.054598245304078e-05
-9.40614609135082e-06,5.621735181193799e-05,7.884783371991944e-06,4.019334483018611e-06,8.362861262867227e-05
-4.2904903807539085e-07,8.359768253285438e-05,1.4608479432354216e-05,1.1681186151690781e-05,8.918614184949547e-05
-4.837348569708411e-06,0.00012476275151129812,7.298459877347341e-06,1.842007623054087e-05,8.026621799217537e-05
-2.440267962811049e-05,0.00012779439566656947,-6.3796128415560815e-06,1.99319747480331e-05,6.97807627147995e-05
-3.655880209407769e-05,8.678545418661088e-05,-1.0333705176890362e-05,8.448314474662766e-06,6.381854473147541e-05
-4.529049328994006e-05,6.0303838836262e-05,3.61564360673583e-08,-1.9890690964530222e-05,5.825467815157026e-05
-6.998679600656033e-05,8.236291614593938e-05,1.5244838323269505e-05,-4.810309474123642e-05,5.792671800008975e-05
-0.0001097323838621378,0.00012100153981009498,2.724299338296987e-05,-5.0995007768506184e-05,6.714617484249175e-05
-0.00013454807049129158,0.0001510516449343413,3.474688492133282e-05,-3.093548002652824e-05,7.674256630707532e-05
-0.00012428811169229448,0.00011894524504896253,3.734384154086001e-05,-1.0655413461790886e-05,8.134016388794407e-05
-8.362183143617585e-05,8.011424142750911e-06,2.8903161364723928e-05,-3.5473449315759353e-06,8.284017530968413e-05
-2.701003904803656e-05,-9.448316995985806e-05,1.8835195078281686e-05,-1.5127996277897182e-07,8.238345617428422e-05
1.2056623745593242e-05,-0.00013360008597373962,1.844530379457865e-05,1.0013933206209913e-05,7.77821842348203e-05
1.1945202459173743e-05,-0.00014780463243369013,1.7343259969493374e-05,2.2116160835139453e-05,6.670912262052298e-05
-1.1807511327788234e-05,-0.00013121891242917627,9.143451279669534e-06,2.7404747015680186e-05,5.61543129151687e-05
-2.7811482141260058e-05,-0.00011249008093727753,3.4472918741812464e-06,2.1739810108556412e-05,5.310630876920186e-05
-2.4248180125141516e-05,-0.00014634052058681846,2.0218487861711765e-06,3.5657567423186265e-06,5.177941420697607e-05
-2.0619103452190757e-05,-0.00016376280109398067,3.418474989302922e-06,-1.6168702131835744e-05,4.5270833652466536e-05
-3.1671253964304924e-05,-0.00010799897427204996,4.829831595998257e-06,-2.975203278765548e-05,3.987933087046258e-05
-4.296275074011646e-05,-2.5388599169673398e-05,-3.4112824778276263e-06,-3.7811299989698455e-05,3.877392009599134e-05
-4.649730180972256e-05,1.0127128916792572e-05,-9.779688298294786e-06,-4.185511716059409e-05,3.952556653530337e-05
-4.790534148924053e-05,-1.1758153959817719e-05,9.282289283873979e-06,-4.239816917106509e-05,4.2639752791728824e-05
-5.089284968562424e-05,-4.155385249760002e-05,4.8209913074970245e-05,-4.242835348122753e-05,4.9208771088160574e-05
-5.946392775513232e-05,-5.730020711780526e-05,7.891096902312711e-05,-4.461337084649131e-05,5.294597212923691e-05
-7.370517414528877e-05,-6.866067269584164e-05,8.614065154688433e-05,-4.885136513621546e-05,4.6685428969794884e-05
-7.136605563573539e-05,-5.960869020782411e-05,7.355908019235358e-05,-5.43913702131249e-05,4.070647992193699e-05
-3.691273741424084e-05,-9.729138582770247e-06,5.059209797764197e-05,-5.8387657190905884e-05,5.042289194534533e-05
4.232561423123116e-06,7.694805390201509e-05,2.4039891286520287e-05,-6.10787101322785e-05,7.037795148789883e-05
1.9962582882726565e-05,0.0001654340885579586,-4.622846972779371e-06,-5.8070138038601726e-05,7.936181646073237e-05
7.354169611062389e-06,0.0002057023230008781,-3.505278436932713e-05,-4.937349876854569e-05,7.340434967773035e-05
-1.0685208508220967e-05,0.0001909771526698023,-4.5401753595797345e-05,-3.746709626284428e-05,6.625540117966011e-05
-1.831850931921508e-05,0.00016541630611754954,-1.8840715711121447e-05,-1.8525302948546596e-05,6.683316314592957e-05
-2.2644264390692115e-05,0.00014884182019159198,1.4898740118951537e-05,8.617714229330886e-06,7.122364331735298e-05
-3.359114271006547e-05,0.00012460009020287544,2.900171784858685e-05,2.908452916017268e-05,7.455750164808705e-05
-5.3217045206110924e-05,8.56349797686562e-05,2.7663856599247083e-05,2.3671644157730043e-05,7.85583833931014e-05
-8.737306779948995e-05,4.729915235657245e-05,1.7661001038504764e-05,1.084606356016593e-05,7.419907342409715e-05
-0.00011821598309325054,2.2465467282017926e-06,7.5023440331278834e-06,7.783795808791183e-06,7.032493886072189e-05
-0.0001176568039227277,-2.4237529942183755e-05,3.7279872522333335e-09,3.057599826661317e-07,8.186730701709166e-05
-9.590252011548728e-05,3.616996400523931e-05,-1.370279733237112e-05,-9.65783965511946e-06,9.200694330502301e-05
-7.221707346616313e-05,0.00010991074668709189,-2.2777019694331102e-05,-1.957040512934327e-05,8.436726784566417e-05
-3.533386188792065e-05,9.076100832317024e-05,-1.1943991921725683e-05,-3.1001545721665025e-05,6.691863382002339e-05
1.1080929652962368e-05,1.6966345356195234e-05,2.5694309897517087e-06,-4.029280535178259e-05,5.592551315203309e-05
3.754109638975933e-05,-2.7961170872004004e-06,4.7236940190487076e-06,-3.416705658310093e-05,5.4266274673864245e-05
3.63028229912743e-05,6.500997551484033e-05,9.178430673273397e-07,-1.6019665054045618e-05,5.8315054047852755e-05
2.5545192329445854e-05,0.00010030076373368502,-8.945461900111695e-07,-1.793738533706346e-06,6.168694380903617e-05
1.647127282922156e-05,2.8632255634875037e-05,-4.4687064360005024e-07,2.491108261892805e-06,6.080775347072631e-05
8.40839584270725e-06,-4.2894323996733874e-05,3.782174644584302e-06,-5.511667495738948e-07,5.5270524171646684e-05
2.214167579950299e-06,1.647108183533419e-05,1.7669475710135885e-05,-1.6689492667865125e-06,5.3567360737361014e-05
6.08789264333609e-07,0.00014172910596244037,3.762745109270327e-05,1.2765185601892881e-06,5.535121454158798e-05
7.567116426798748e-07,0.00017012357420753688,5.3636773373000324e-05,1.0805051715578884e-06,5.41296431038063e-05
5.709913466489525e-07,8.301412162836641e-05,5.838648212375119e-05,-1.095577135856729e-05,5.3528205171460286e-05
4.3962677409581374e-06,5.964559022686444e-06,4.879935295321047e-05,-2.6279503799742088e-05,5.96500831306912e-05
1.5087889551068656e-05,-2.2845937564852647e-05,2.648104782565497e-05,-3.115951767540537e-05,6.848613702459261e-05
2.4690258214832284e-05,-9.224686800735071e-05,1.857084612311155e-06,-2.2404661649488844e-05,6.799821858294308e-05
1.9230417819926515e-05,-0.00017369957640767097,-9.599871191312559e-06,-7.606588042108342e-06,5.835992124048062e-05
-6.109078185545513e-06,-0.0001351376558886841,-4.70720760858967e-06,8.65063520905096e-06,4.836642256123014e-05
-4.169482417637482e-05,-5.988960765535012e-06,2.68498274635931e-06,2.0847066480200738e-05,4.050319694215432e-05
-7.260299753397703e-05,9.416970715392381e-05,8.552512440473947e-07,1.6113555830088444e-05,3.3065254683606327e-05
-8.337760664289817e-05,0.0001373899431200698,-9.317844160250388e-06,-7.764497240714263e-06,2.921720442827791e-05
-6.332737393677235e-05,0.00013771688099950552,-2.0786952518392354e-05,-2.7348045477992855e-05,2.801951632136479e-05
-3.548544191289693e-05,0.00012697032070718706,-1.70888306456618e-05,-2.2995025574346073e-05,2.9606662792502902e-05
-2.508931174816098e-05,0.00010232205386273563,6.006546300341142e-06,1.6136390286192182e-06,3.871553417411633e-05
-4.101149897905998e-05,3.541659316397272e-05,3.088311495957896e-05,2.848469011951238e-05,5.261059777694754e-05
-5.5178818001877517e-05,5.368931851990055e-06,4.0704631828702986e-05,5.221684477874078e-05,6.166421371744946e-05
-3.7421330489451066e-05,7.578113581985235e-05,4.119665391044691e-05,7.256065146066248e-05,7.226593152154237e-05
-2.5068246031878516e-05,0.00014617822307627648,4.185915895504877e-05,8.114147931337357e-05,7.5728734373115e-05
-4.884749432676472e-05,0.00014200872101355344,3.8676760595990345e-05,6.867654155939817e-05,5.9160676755709574e-05
-7.48016027500853e-05,7.208032184280455e-05,2.4644095901749097e-05,4.1254803363699466e-05,3.945485514122993e-05
-6.239625508897007e-05,-1.013845485431375e-05,1.2596991837199312e-05,1.6100178982014768e-05,3.5409495467320085e-05
-2.3135775336413644e-05,-8.109938789857551e-05,2.2109031760919606e-06,-5.10922791363555e-06,4.389161404105835e-05
-3.88740716061875e-07,-0.00012182674981886521,-2.253168167953845e-05,-2.0754187062266283e-05,5.174701800569892e-05
-1.3446355296764523e-05,-0.00010293273953720927,-5.134232560521923e-05,-2.5288974939030595e-05,6.104307976784185e-05
-4.166091457591392e-05,-4.439998883754015e-05,-6.499515438918024e-05,-1.4417763850360643e-05,7.341137825278565e-05
-7.006055966485292e-05,2.4331475287908688e-05,-5.206469722907059e-05,2.981166744575603e-06,8.142285514622927e-05
-9.58688760874793e-05,8.577013795729727e-05,-3.0380124371731654e-05,1.2715333468804602e-05,7.673598156543449e-05
-0.0001109997829189524,0.00013752457743976265,-2.0115796360187232e-05,9.24009600566933e-06,6.350749026751146e-05
-0.00010643899440765381,0.00015139464812818915,-2.1306741473381408e-05,2.3522225944816455e-07,5.6278473493875936e-05
-8.077010716078803e-05,8.848453580867499e-05,-2.155873335141223e-05,-6.835167368990369e-06,6.320042302832007e-05
-4.436624294612557e-05,-5.67352217331063e-05,-1.7315747754764743e-05,-1.058960424416e-05,7.563101826235652e-05
-1.2298411093070172e-05,-0.0002233295381302014,-1.4168430425343104e-05,-1.633755164220929e-05,8.095132216112688e-05
4.621020707418211e-06,-0.00030156763386912644,-1.803900522645563e-05,-2.6986925149685703e-05,7.476828614016995e-05
8.419015102845151e-06,-0.00022563381935469806,-2.5885865397867747e-05,-3.308475425001234e-05,6.314666097750887e-05
6.245240001589991e-06,-7.988094148458913e-05,-2.8717648092424497e-05,-2.8721642593154684e-05,5.521514322026633e-05
5.873022473679157e-06,2.2388501747627743e-05,-2.628204492793884e-05,-2.187927566410508e-05,5.328151019057259e-05
6.310511253104778e-06,7.063867087708786e-05,-2.5170407752739266e-05,-2.4645371013320982e-05,5.657364090438932e-05
7.88202669355087e-06,8.927364979172125e-05,-2.2258269382291473e-05,-3.404885501367971e-05,5.802209489047527e-05
1.797186996554956e-05,0.00010354464029660448,-3.985825060226489e-06,-3.86191786674317e-05,5.609453728538938e-05
3.198532431269996e-05,0.00013757080887444317,2.5874136554193683e-05,-3.016260416188743e-05,5.478274397319183e-05
3.511126487865113e-05,0.00018472914234735072,5.290891931508668e-05,-1.4284521057561506e-05,5.351852087187581e-05
2.528011282265652e-05,0.0002306487294845283,6.0619062423938885e-05,-1.8379081438979483e-06,5.104102456243709e-05
1.5021785657154396e-05,0.0002898374805226922,5.60538173886016e-05,4.110638656129595e-06,4.783444092026912e-05
8.841621820465662e-06,0.00033840423566289246,5.264141145744361e-05,9.15201599127613e-06,4.255906605976634e-05
3.76719185624097e-06,0.00032598042162135243,5.017727016820572e-05,1.743770917528309e-05,4.137235737289302e-05
2.2729748252459103e-06,0.0002413937181700021,3.767534508369863e-05,2.3381087885354646e-05,4.914269447908737e-05
-1.137019535235595e-05,9.644477540859953e-05,1.1502543202368543e-05,2.0509492969722487e-05,5.163582682143897e-05
-3.583356010494754e-05,-5.0211081543238834e-05,-1.3741519069299102e-05,8.28413885756163e-06,4.7252950025722384e-05
-3.450824806350283e-05,-0.00010379472223576158,-2.8223605113453232e-05,-7.579601515317336e-06,5.012549081584439e-05
-1.7810620192904025e-05,-8.127152977976948e-05,-4.6078454033704475e-05,-2.096088974212762e-05,6.348506576614454e-05
-1.605926991032902e-05,-6.315606879070401e-05,-7.185460708569735e-05,-2.6002995582530275e-05,7.569851004518569e-05
-2.942373976111412e-05,-2.7439715267973952e-05,-6.870034121675417e-05,-2.1803565687150694e-05,7.641412958037108e-05
-4.4855172745883465e-05,2.668900015123654e-05,-3.2565771107329056e-05,-1.4783294318476692e-05,7.273459050338715e-05
-5.274581417324953e-05,6.716970528941602e-05,3.7282393350324128e-06,-8.661504580231849e-06,7.328450737986714e-05
-5.5340475228149444e-05,0.00013016635784879327,2.5424025807296857e-05,-4.660909326048568e-06,7.329759682761505e-05
-4.8200243327300996e-05,0.0002348794077988714,3.974347418989055e-05,-7.157777872635052e-07,6.669863068964332e-05
-1.8279355572303757e-05,0.0002722062636166811,4.8020527174230665e-05,2.976196356030414e-06,6.19556667516008e-05
2.8803809982491657e-05,9.649720595916733e-05,4.0943155909189954e-05,-1.8341313534619985e-06,6.53648457955569e-05
6.390816997736692e-05,-0.0002340717619517818,2.0413168385857716e-05,-1.7360353012918495e-05,6.82691388647072e-05
7.22934928489849e-05,-0.00039312298758886755,-3.8782408751103503e-07,-2.8619921067729592e-05,6.473193934652954e-05
6.491775275208056e-05,-0.00020230685186106712,-1.0168580047320575e-05,-2.4646173187647946e-05,6.218669295776635e-05
5.4819196520838886e-05,8.7788823293522e-05,-6.8266467678768095e-06,-1.2496046110754833e-05,6.619100895477459e-05
3.9145095797721297e-05,0.00020045682322233915,2.639232661749702e-06,-3.996082796220435e-06,7.346797065110877e-05
1.600377436261624e-05,0.0001249313645530492,6.658208803855814e-06,-4.031253411085345e-06,7.628039020346478e-05
5.402363967732526e-06,-3.68240725947544e-05,2.524944648030214e-06,-9.261920240533073e-06,7.23720877431333e-05
1.3303289051691536e-05,-0.00021739110525231808,6.708008299938228e-07,-2.0351193597889505e-05,6.266593845793977e-05
1.2599290130310692e-05,-0.00031741790007799864,2.2234964944800595e-06,-3.554814247763716e-05,5.0087313866242766e-05
-2.0030332962051034e-05,-0.0002693637215998024,-4.759492185257841e-06,-5.069593316875398e-05,4.182139309705235e-05
-7.164431735873222e-05,-0.0001624123251531273,-1.757850986905396e-05,-5.620212687063031e-05,4.195050132693723e-05
-0.00010852897685253993,-8.16721367300488e-05,-2.3413816961692646e-05,-4.643029751605354e-05,4.607963273883797e-05
-0.00010718632984207943,-4.058990816702135e-05,-1.1776338396884967e-05,-3.3211035770364106e-05,4.985081250197254e-05
-7.867115346016362e-05,-2.7722055165213533e-05,7.0081073317851406e-06,-1.8608985556056723e-05,5.784932727692649e-05
-5.287623207550496e-05,-1.0908344847848639e-05,1.587727638252545e-05,-4.560506113193696e-06,6.314607890089974e-05
-3.926926729036495e-05,1.3382566976360977e-05,1.1936251212318894e-05,2.0818547454837244e-06,5.74268342461437e-05
-3.5670058423420414e-05,4.124701808905229e-05,3.628091462815064e-06,-1.130253713199636e-05,4.6188721171347424e-05
-3.4849290386773646e-05,7.0436522946693e-05,4.582329438562738e-06,-4.790034654433839e-05,4.030971467727795e-05
-4.409793109516613e-05,0.00012104867346351966,1.8462102161720395e-05,-7.994606858119369e-05,3.94604830944445e-05
-6.64436593069695e-05,0.00018936736159957945,2.8726080927299336e-05,-8.422574319411069e-05,4.416508090798743e-05
-7.560305675724521e-05,0.00023388443514704704,2.349809255974833e-05,-6.602312350878492e-05,5.3438041504705325e-05
-6.057451173546724e-05,0.000232088947086595,1.687960138951894e-05,-4.2241503251716495e-05,6.194281013449654e-05
-3.6922010622220114e-05,0.00019182282267138362,1.4093038771534339e-05,-2.1131148969288915e-05,6.92260218784213e-05
-2.3143522412283346e-05,0.0001181610714411363,6.7556120484368876e-06,-2.6773029730975395e-06,7.457880565198138e-05
-2.8864502382930368e-05,2.255561776109971e-05,-2.3824259187676944e-06,1.152587265096372e-05,7.47962185414508e-05
-4.5613654947374016e-05,-6.0749454860342667e-05,-2.8477038540586364e-06,2.067112291115336e-05,7.190624455688521e-05
-5.3707011829828843e-05,-8.974406227935106e-05,1.9980691376986215e-06,2.6346400773036294e-05,6.985006621107459e-05
-4.7467339754803106e-05,-5.545751264435239e-05,3.5924347230320564e-06,2.3289954697247595e-05,6.723645492456853e-05
-4.1911276639439166e-05,-1.0687821259125485e-06,4.792582330992445e-06,6.76459058013279e-06,6.243937968974933e-05
-4.617933154804632e-05,1.5208386685117148e-05,1.5991288819350302e-05,-1.363652427244233e-05,5.684989446308464e-05
-5.154543032404035e-05,-3.491614916129038e-05,3.619206472649239e-05,-2.5748489861143753e-05,5.264502760837786e-05
-4.569012889987789e-05,-0.00010476727766217664,5.2495437557809055e-05,-3.2418491173302755e-05,5.305351078277454e-05
-2.4542408937122673e-05,-0.00014760057092644274,6.014110840624198e-05,-3.802104765782133e-05,6.31084039923735e-05
-5.739841981267091e-06,-0.0001195361910504289,5.9438149037305266e-05,-3.710513192345388e-05,7.597554940730333e-05
-4.37792459706543e-06,-5.84064400754869e-06,4.430336048244499e-05,-2.7033560400013812e-05,8.530904597137123e-05
-1.3083248632028699e-05,9.172475984087214e-05,1.936847183969803e-05,-1.359951693302719e-05,8.772641740506515e-05
-2.859318328773952e-06,0.0001279434800380841,-1.2597728527907748e-05,4.369719135866035e-06,8.206888742279261e-05
5.393713308876613e-06,0.00013055432646069676,-3.2854979508556426e-05,2.239996501884889e-05,7.362437463598326e-05
-2.7307072741677985e-05,0.00014710189134348184,-1.432471617590636e-05,3.963025665143505e-05,6.956348079256713e-05
-8.166275802068412e-05,0.00022629290469922125,1.592850821907632e-05,5.607728962786496e-05,6.397815741365775e-05
-0.00010756216943264008,0.0002999907301273197,3.464383553364314e-05,6.657922494923696e-05,6.0648308135569096e-05
-6.610183481825516e-05,0.0002831752353813499,4.6558798203477636e-05,6.946802022866905e-05,6.788776227040216e-05
-1.8001682065005298e-06,0.0001667617034399882,4.7661644202889875e-05,5.8336881920695305e-05,7.025161903584376e-05
1.7644748368184082e-05,5.810783477500081e-05,3.438605199335143e-05,3.8604408473474905e-05,5.6308883358724415e-05
-7.646267476957291e-06,-7.1864005803945474e-06,1.7501071852166206e-05,2.35872357734479e-05,3.548815948306583e-05
-2.388942812103778e-05,-2.336520810786169e-05,-2.9341205731725495e-07,1.789377893146593e-05,2.987054904224351e-05
-3.973219008912565e-06,-9.639755262469407e-06,-1.880650597740896e-05,1.1857328900077846e-05,4.748617357108742e-05
3.247774293413386e-05,-5.954656808171421e-05,-2.27791733777849e-05,-9.815506018640008e-06,7.110857404768467e-05
4.426634404808283e-05,-0.0001285887701669708,-1.2816522939829156e-05,-5.459048770717345e-05,7.907437975518405e-05
8.940457519202027e-06,-9.38240482355468e-05,-4.873902071267366e-06,-0.00011066484148614109,6.870578363304958e-05
-4.996115967514925e-05,3.606556128943339e-05,-2.6652528504200745e-06,-0.00015084219921845943,5.416088970378041e-05
-9.083561599254608e-05,0.00011641449964372441,-1.5746153394502471e-06,-0.00015309291484300047,4.3874690163647756e-05
-9.491114906268194e-05,9.609111293684691e-05,-3.088412995566614e-06,-0.00012229825370013714,3.8869526179041713e-05
-8.097803220152855e-05,4.8297602916136384e-05,-7.160219865909312e-06,-7.825136708561331e-05,3.6439760151552036e-05
-6.95122653269209e-05,3.5535875213099644e-05,-1.0371555617894046e-05,-3.1381005101138726e-05,3.294347334303893e-05
-5.5787208111723885e-05,3.4888995287474245e-05,-1.2130381946917623e-05,2.096942625939846e-05,2.94834917440312e-05
-3.805939923040569e-05,2.6980062102666125e-05,-9.201492503052577e-06,7.748784264549613e-05,3.1252377084456384e-05
-4.173781780991703e-05,2.80150579783367e-05,4.224680196784902e-06,0.00011379535862943158,3.452676537563093e-05
-7.545216067228466e-05,7.027921674307436e-05,3.495151031529531e-05,0.00012125410285079852,4.050730058224872e-05
-0.00010217076487606391,0.000131870576296933,7.281368016265333e-05,0.0001195036675198935,5.375506225391291e-05
-7.973679748829454e-05,0.00012933184916619211,8.789709681877866e-05,0.00010766764171421528,6.517358269775286e-05
-2.2811304006609134e-05,3.85238672606647e-05,7.763793837511912e-05,8.541048737242818e-05,7.478628685930744e-05
2.2053047359804623e-05,-5.705926741939038e-05,6.812194624217227e-05,6.206501711858436e-05,8.365784015040845e-05
1.9341474398970604e-05,-6.488723010988906e-05,5.092746505397372e-05,4.073059756137809e-07,8.161398727679625e-05
-1.0553675565461162e-05,-7.531001756433398e-05,-6.438737727876287e-06,-9.479403524892405e-05,6.807256431784481e-05
-1.5899784557404928e-05,-0.00014526338782161474,-7.440079934895039e-05,-0.000162375028594397,4.939682548865676e-05
-9.055693226400763e-07,-0.00013756495900452137,-9.656626934884116e-05,-0.0001770550588844344,3.6958146665710956e-05
1.590274933960245e-07,-6.122009654063731e-05,-7.979456131579354e-05,-0.0001455527381040156,4.150977110839449e-05
-1.167776372312801e-05,3.112604463240132e-05,-6.759363895980641e-05,-0.00010170131281483918,4.914328019367531e-05
-1.5298004655051045e-05,0.00016345952462870628,-6.260156806092709e-05,-4.735284164780751e-05,5.699395478586666e-05
-6.503112217615126e-06,0.00025468450621701777,-4.668796100304462e-05,1.5248746422003023e-05,6.975892029004171e-05
-6.28611451247707e-06,0.0002280544285895303,-1.913224878080655e-05,6.0753973230021074e-05,8.316605817526579e-05
-1.7217977074324153e-05,0.00012659112690016627,5.986278210912133e-06,7.98665132606402e-05,8.607637573732063e-05
-2.5039849788299762e-05,2.610741648823023e-05,1.6840462194522843e-05,7.98196269897744e-05,7.48903548810631e-05
-4.176860966254026e-05,-5.9528116253204644e-05,1.3079045857011806e-05,6.97828145348467e-05,5.681846960214898e-05
-8.120882557705045e-05,-0.00011762864596676081,2.2240881207835628e-06,5.320865602698177e-05,3.783757347264327e-05
-0.00011799252388300374,-0.00014195230323821306,-4.668109795602504e-06,4.042871660203673e-05,2.6265011911164038e-05
-0.00011715369328157976,-0.0001379739260300994,-8.80290008353768e-06,3.43692117894534e-05,2.6129464458790608e-05
-8.077058737399057e-05,-0.0001304429752053693,-1.1958250070165377e-05,3.061347524635494e-05,3.866878250846639e-05
-3.33513344230596e-05,-0.00013839460734743625,-8.663304470246658e-06,2.5159630240523256e-05,5.654396954923868e-05
4.55022245660075e-06,-9.393016807734966e-05,9.019334356707986e-06,2.3448423235095106e-05,6.353323988150805e-05
2.246362237201538e-05,8.922372217057273e-05,2.7929570933338255e-05,2.640107777551748e-05,5.337336551747285e-05
1.5399613403133117e-05,0.0003278971998952329,2.5521445422782563e-05,3.062158066313714e-05,4.168018858763389e-05
-5.220912044023862e-06,0.0004049800045322627,3.157439323331346e-06,2.9060523957014084e-05,4.0240924136014655e-05
-2.0003360987175256e-05,0.00023640233848709613,-2.1790445316582918e-05,1.5263634850271046e-05,4.473103763302788e-05
-1.2007167242700234e-05,5.272124690236524e-05,-4.38461393059697e-05,-4.066154360771179e-06,5.475480793393217e-05
5.530698217626195e-06,8.701923070475459e-05,-4.958133285981603e-05,-1.9457796952337958e-05,6.504363409476355e-05
-8.749131666263565e-06,0.00018987736257258803,-2.8485379516496323e-05,-4.278103369870223e-05,4.8639987653587013e-05
-4.6889726945664734e-05,0.00023832790611777455,-9.162210972135654e-07,-6.653141463175416e-05,2.6229603463434614e-05
-4.52072054031305e-05,0.0002863466215785593,1.5137697118916549e-05,-6.859166023787111e-05,4.423670907272026e-05
9.309959750680719e-06,0.0003259213990531862,2.091327951347921e-05,-4.848999378737062e-05,8.647807408124208e-05
4.430564877111465e-05,0.00029083367553539574,1.9972110749222338e-05,-3.2252082746708766e-05,9.729644079925492e-05
3.782390558626503e-05,9.475510159973055e-05,1.4584071323042735e-05,-3.395233579794876e-05,8.398590580327436e-05
5.043072087573819e-05,-0.00017979592666961253,1.1446019925642759e-05,-3.4837255952879786e-05,8.292365964734927e-05
6.63435785099864e-05,-0.0003021854208782315,5.9225822042208165e-06,-3.4156466426793486e-05,8.073542994679883e-05
3.0867788154864684e-05,-0.00032816827297210693,-7.299668595805997e-06,-3.572479909053072e-05,6.556760490639135e-05
-3.676054984680377e-05,-0.00046067163930274546,-1.698469895927701e-05,-4.217868990963325e-05,3.644132812041789e-05
-8.08991608209908e-05,-0.0005597727140411735,-1.4668931726191659e-05,-4.519168578553945e-05,1.6896665329113603e-05
-7.278872362803668e-05,-0.0004999057273380458,-7.105065378709696e-06,-3.986274896305986e-05,2.4652092179167084e-05
-4.019920015707612e-05,-0.00037852569948881865,-4.383497014259774e-07,-4.045100649818778e-05,3.4395663533359766e-05
-2.7930818760069087e-05,-0.0002743146615102887,7.156756510084961e-06,-4.902650834992528e-05,2.4225524612120353e-05
-4.3445408664410934e-05,-0.00016018838505260646,1.701448672974948e-05,-4.9294030759483576e-05,2.341332583455369e-05
-5.64873953408096e-05,3.111040086878347e-06,2.919376129284501e-05,-3.658320929389447e-05,5.955626329523511e-05
-3.909318911610171e-05,0.00018084619659930468,4.515705950325355e-05,-2.3360542400041595e-05,0.00010558271605987102
-5.381041319196811e-06,0.00027328357100486755,6.534189742524177e-05,-1.943536517501343e-05,0.00011710241960827261
2.9365594400587725e-06,0.00020408947602845728,8.536801033187658e-05,-2.3205733668874018e-05,8.91754898475483e-05
-2.7806781872641295e-05,6.516041321447119e-05,8.993978553917259e-05,-2.7046253308071755e-05,5.5111995607148856e-05
-6.990387191763148e-05,2.7813881388283335e-05,7.34511049813591e-05,-2.6474368496565148e-05,4.1674305975902826e-05
-8.83132524904795e-05,0.00011994315718766302,4.6257082431111485e-05,-2.2784248358220793e-05,5.675986540154554e-05
-7.439852197421715e-05,0.00022651083418168128,1.4339655535877682e-05,-1.7357982869725674e-05,8.493862696923316e-05
-5.6998491345439106e-05,0.0002896045334637165,-1.3248956747702323e-05,-1.1270934919593856e-05,9.90825064945966e-05
-5.538240657187998e-05,0.0002979982236865908,-2.5004947019624524e-05,-4.643246484192787e-06,9.1673900897149e-05
-5.6760585721349344e-05,0.00021267650299705565,-2.4509890863555484e-05,1.5311560446207295e-06,7.450921839335933e-05
-6.160949124023318e-05,9.709727601148188e-05,-1.720771615509875e-05,-1.377903004140535e-06,5.5796001106500626e-05
-7.57182133384049e-05,8.350177085958421e-05,-6.483583547378657e-06,-8.28709380584769e-06,4.4210020860191435e-05
-8.870776946423575e-05,0.00015158354653976858,-4.688921819706593e-07,-9.96330436464632e-06,3.9310092688538134e-05
-7.388774974970147e-05,0.00022230476315598935,-8.638694453111384e-06,-3.921062670997344e-06,4.829485988011584e-05
-1.2535820133052766e-05,0.00021733254834543914,-2.7371965188649483e-05,2.6210611849819543e-06,7.273188384715468e-05
5.0969640142284334e-05,0.00015376466035377234,-3.3736276236595586e-05,-2.2286305920715677e-06,8.524339500581846e-05
6.080381353967823e-05,8.494943904224783e-05,-1.9099312339676544e-05,-5.958299425401492e-06,8.518227696185932e-05
4.037337566842325e-05,-6.342331471387297e-05,-3.342795480421046e-06,-5.5784412325010635e-06,8.336789323948324e-05
3.067425132030621e-05,-0.00030574199627153575,-7.786398782627657e-06,-1.8133414414478466e-05,6.749792373739183e-05
2.872033837775234e-05,-0.00048110444913618267,-2.5847450160654262e-05,-4.496334440773353e-05,4.5936962123960257e-05
1.322989737673197e-05,-0.00043000697041861713,-3.816895332420245e-05,-7.665746670681983e-05,3.405230745556764e-05
-9.597591088095214e-06,-0.0002177307615056634,-2.322271939192433e-05,-9.165443771053106e-05,3.486648711259477e-05
-2.3511067411163822e-05,-1.7601023500901647e-05,1.9558208805392496e-05,-8.221867756219581e-05,4.130754678044468e-05
-1.8940079826279543e-05,0.00010450380796100944,5.6964519899338484e-05,-5.82489519729279e-05,5.2092560508754104e-05
1.963979229913093e-06,0.0001303194439969957,7.157890649978071e-05,-3.2709638617234305e-05,6.374304939527065e-05
7.028587333479663e-06,5.058473107055761e-05,6.11412397120148e-05,-2.2797335986979306e-05,6.103880878072232e-05
-1.706917282717768e-05,-4.1464631067356095e-05,3.288967127446085e-05,-2.4157005100278184e-05,5.019916716264561e-05
-4.267398253432475e-05,-5.104747469886206e-05,-3.073286961807753e-06,-2.4114366169669665e-05,4.799105226993561e-05
-4.407615779200569e-05,-3.026191507160547e-06,-4.423020436661318e-05,-2.2996271582087502e-05,5.1204380724811926e-05
-2.762710937531665e-05,3.596159513108432e-05,-8.02883951109834e-05,-2.109027082042303e-05,5.3338644647737965e-05
-1.5071548659761902e-05,5.114675150252879e-05,-8.425702981185168e-05,-1.2108334885851946e-05,5.9946080000372604e-05
-2.1006781025789678e-05,6.975170981604606e-05,-4.433374488144182e-05,4.914573310088599e-06,6.625932292081416e-05
-3.646507684607059e-05,0.00010117188503500074,1.0591585123620462e-05,2.234276689705439e-05,6.509920785902068e-05
-4.3093990825582296e-05,0.00012703206448350102,4.6301574911922216e-05,3.245942934881896e-05,5.541150676435791e-05
-3.4392749512335286e-05,0.00014142597501631826,5.690805846825242e-05,3.338123133289628e-05,4.553723556455225e-05
-1.738966784614604e-05,0.0001501552906120196,5.4680986067978665e-05,2.845506969606504e-05,4.313363024266437e-05
-3.5122534427500796e-06,0.00014757945609744638,4.5708751713391393e-05,2.0362229406600818e-05,4.3346124584786594e-05
-4.011894816358108e-07,0.00011957385868299752,3.1611834856448695e-05,1.3390997992246412e-05,4.414674185682088e-05
-1.1442823051766027e-05,8.417648496106267e-05,7.242766514536925e-06,1.4315443877421785e-05,5.488369788508862e-05
-3.2743726478656754e-05,5.52522178622894e-05,-2.8867592845926993e-05,1.246103329322068e-05,6.607473187614232e-05
-4.675368109019473e-05,3.744820423889905e-05,-5.818451609229669e-05,1.7897069710670621e-06,6.46264452370815e-05
-4.519736103247851e-05,8.072079799603671e-05,-4.267348049324937e-05,-3.1121062420425005e-06,6.598061736440286e-05
-4.031124262837693e-05,0.0001541669189464301,6.591423698409926e-06,-1.5579332739434903e-06,7.745477341813967e-05
-3.6352575989440084e-05,0.00015600962797179818,3.218938218196854e-05,-2.820615691234707e-06,8.259189053205773e-05
-3.934056076104753e-05,0.00010221030242973939,2.2015052309143357e-05,-1.0039558219432365e-05,7.234890654217452e-05
-5.3219482651911676e-05,0.00011108916078228503,1.0065608876175247e-05,-1.7661248421063647e-05,5.6278448028024286e-05
-6.138358730822802e-05,0.0001989175216294825,1.3921635400038213e-05,-2.30406949413009e-05,4.5115371904103085e-05
-6.138821481727064e-05,0.00026305479696020484,2.2325615645968355e-05,-2.9230621294118464e-05,4.238206020090729e-05
-6.221488729352131e-05,0.00022864701168145984,2.6785319278133102e-05,-3.653049498097971e-05,4.5180029701441526e-05
-6.443071470130235e-05,0.00011522858403623104,2.1378236851887777e-05,-3.8928217691136524e-05,4.878126492258161e-05
-6.47846536594443e-05,4.903489752905443e-05,1.022446758724982e-05,-2.9396507670753635e-05,5.757933831773698e-05
-5.766718095401302e-05,8.119103586068377e-05,4.5065298763802275e-06,-8.047008122957777e-06,7.356666901614517e-05
-3.60336089215707e-05,0.00011597453703870997,1.0257167559757363e-05,1.5318637451855466e-05,8.686853834660724e-05
-2.950371481347247e-06,4.3838379497174174e-05,2.4314769689226523e-05,3.2312138500856236e-05,8.647279173601419e-05
1.656698623264674e-05,-8.587053162045777e-05,3.474782715784386e-05,4.141589306527749e-05,7.203158020274714e-05
5.849329681950621e-06,-0.00012378665269352496,3.074086635024287e-05,3.592174107325263e-05,5.0283120799576864e-05
-8.981429346022196e-06,-2.8400254450389184e-05,2.033209784713108e-05,1.7896309145726264e-05,3.5656459658639506e-05
8.097639693005476e-06,7.642810669494793e-05,1.4877330613671802e-05,-4.581086159305414e-06,3.802870924118906e-05
3.9089871279429644e-05,8.429902663920075e-05,1.0273690350004472e-05,-2.48367250605952e-05,4.4543110561789945e-05
4.277371408534236e-05,5.644246994052082e-05,2.2077545054344228e-06,-3.49676120094955e-05,4.607654773280956e-05
1.9619665181380697e-05,7.169815216911957e-05,-4.451001586858183e-06,-2.7093095923191868e-05,5.3178766393102705e-05
-2.601892219900037e-06,7.223463035188615e-05,-6.081964329496259e-06,-1.2397917089401744e-05,6.754040077794343e-05
-9.567946108290926e-06,-7.205391739262268e-06,-8.983954558061669e-07,-2.6726777377916733e-06,7.765764894429594e-05
-1.51662970893085e-06,-0.00012558094749692827,1.294445428356994e-05,7.310993169085123e-06,8.03460570750758e-05
-1.4292133698745602e-07,-0.00023588155454490334,2.460413088556379e-05,1.676209103607107e-05,7.958170317579061e-05
-2.148361090803519e-05,-0.00028394436230883,2.4297261916217394e-05,2.4688304620212875e-05,7.529136928496882e-05
-3.891643791575916e-05,-0.0002614922705106437,1.7803326045395806e-05,3.160408232361078e-05,6.448159547289833e-05
-3.054229819099419e-05,-0.00025092725991271436,2.0282406694605015e-05,3.4015840356005356e-05,5.6008717365330085e-05
-6.198958089953521e-06,-0.00025730853667482734,3.106966687482782e-05,2.2894644644111395e-05,5.2901516028214246e-05
6.940352250239812e-06,-0.0001955943735083565,2.8723905415972695e-05,3.21433731187426e-07,5.308922118274495e-05
-1.0533438398852013e-05,-0.00010027785174315795,6.39293966742116e-06,-1.9454537323326804e-05,5.625305857392959e-05
-4.4079824874643236e-05,-3.60150370397605e-05,-9.470058103033807e-06,-1.711470576992724e-05,6.0468097217381e-05
-6.261200906010345e-05,6.183881851029582e-06,-4.8524971134611405e-06,4.090199581696652e-06,6.564561772393063e-05
-5.7792876759776846e-05,1.3701414900424425e-05,-6.746396365997498e-07,1.3128754289937206e-05,6.746729195583612e-05
-4.334337791078724e-05,-1.8222361177322455e-05,-3.938082500098972e-06,9.402869181940332e-06,6.28923371550627e-05
-2.4702709197299555e-05,-2.6672472813515924e-05,1.3705775927519426e-06,2.111129333570716e-06,5.554353992920369e-05
-7.488728442694992e-06,2.2972053557168692e-05,6.76806848787237e-06,-6.874276550661307e-06,5.754843004979193e-05
6.5452968556201085e-06,0.00011512751370901242,-2.105650082739885e-06,-1.2979898201592732e-05,7.365596684394404e-05
1.0035122613771819e-05,0.00017399627540726215,-1.512645303591853e-05,-2.0496076103881933e-05,8.384051761822775e-05
-3.3883541163959308e-06,0.00014022635878063738,-2.227698132628575e-05,-3.242765524191782e-05,7.141441892599687e-05
-2.1180401745368727e-05,7.09615123923868e-05,-2.4917297196225263e-05,-4.4845652155345306e-05,4.8918973334366456e-05
-2.7641115593723953e-05,6.457447307184339e-05,-2.5327341063530184e-05,-5.103026342112571e-05,4.223425639793277e-05
-2.260415203636512e-05,0.00013799636508338153,-2.2634512788499705e-05,-5.153429083293304e-05,5.690386751666665e-05
-2.898395359807182e-05,0.000206746204639785,-1.6971625882433727e-05,-5.0790371460607275e-05,7.236863166326657e-05
-4.55094595963601e-05,0.0002134126116288826,-7.758026185911149e-06,-4.893675213679671e-05,7.502220978494734e-05
-4.724328391603194e-05,0.000149158455315046,-1.0931665883617825e-06,-3.954955536755733e-05,6.954753189347684e-05
-3.109136741841212e-05,3.531207039486617e-05,-1.0034921160695376e-06,-2.151363696611952e-05,6.386991299223155e-05
-1.839687320170924e-05,-4.3315925722708926e-05,-3.357531852543616e-07,-1.80718086539855e-06,5.492519630934112e-05
-1.350155707768863e-05,-1.501579572504852e-05,1.06320794657222e-05,1.1547598660399672e-05,4.230222475598566e-05
-9.067319297173526e-06,5.8431087381904945e-05,3.3525364415254444e-05,1.8560574972070754e-05,3.501918399706483e-05
-1.3677858987648506e-05,7.707645272603258e-05,5.461170803755522e-05,2.518308610888198e-05,3.993736390839331e-05
-2.6885752959060483e-05,1.0165820640395395e-05,5.5860211432445794e-05,3.196225225110538e-05,5.262422564555891e-05
-3.136571103823371e-05,-4.3990738049615175e-05,3.5670844226842746e-05,2.64757800323423e-05,5.768451956100762e-05
-3.323594864923507e-05,2.6326206352678128e-06,7.877462849137373e-06,8.282375347334892e-06,4.785530472872779e-05
-4.4784359488403425e-05,8.288264507427812e-05,-1.6123529348988086e-05,-1.1476287909317762e-05,4.377558798296377e-05
-4.7005458327475935e-05,0.00011438352521508932,-4.6196837502066046e-05,-2.5089349946938455e-05,6.662801752099767e-05
-1.4733022908330895e-05,0.0001216207310790196,-7.082908996380866e-05,-2.1733101675636135e-05,8.409132715314627e-05
2.6307388907298446e-05,0.000126982806250453,-6.584589573321864e-05,-1.534129296487663e-05,8.12146972748451e-05
2.9882939998060465e-05,9.49871537159197e-05,-3.915960405720398e-05,-1.5296702258638106e-05,7.908418047009036e-05
1.8943035684060305e-05,1.1884918421856128e-05,-1.2164989129814785e-05,-1.446306941943476e-05,7.617630035383627e-05
1.8410848497296683e-05,-6.513008702313527e-05,4.037584403704386e-06,-1.8010712665272877e-05,6.418336852220818e-05
6.056667643861147e-06,-6.508159276563674e-05,1.738292303343769e-05,-2.671434049261734e-05,5.1435097702778876e-05
-2.426072023808956e-05,-2.0904157281620428e-05,2.232768565590959e-05,-3.238458521082066e-05,5.368876372813247e-05
-5.8640864153858274e-05,1.249548586201854e-05,1.721850458125118e-05,-2.724308978940826e-05,5.891458204132505e-05
-7.924524106783792e-05,-4.546248874248704e-06,1.2214729395054746e-05,-1.5519492080784403e-05,5.867682921234518e-05
-7.564606494270265e-05,-3.463060056674294e-05,1.326441179116955e-05,-6.464558737206971e-06,5.5904143664520234e-05
-6.076163117541e-05,-6.92317644279683e-06,1.5374425856862217e-05,-4.015334070572862e-06,5.161213630344719e-05
-4.648547837859951e-05,7.982348324730992e-05,1.1681154319376219e-05,-4.077875018992927e-06,4.3869411456398666e-05
-2.8645048587350175e-05,0.00020280021999496967,4.358423666417366e-06,2.598642822704278e-06,4.228096076985821e-05
-4.036487098346697e-06,0.0003273741458542645,-3.6159092360321665e-06,1.7469721569796093e-05,5.557577242143452e-05
1.9519786292221397e-05,0.00038481090450659394,-8.814749890007079e-06,2.9363713110797107e-05,6.899097206769511e-05
2.826697709679138e-05,0.0003531466063577682,1.92454149328114e-06,3.0958002753322944e-05,6.597302126465365e-05
1.5712905224063434e-05,0.0002911766932811588,3.7658002838725224e-05,2.663763916643802e-05,4.672626164392568e-05
-1.1786944924097043e-05,0.00020595258683897555,7.403106428682804e-05,1.994198828469962e-05,2.4608756575617008e-05
-4.126389467273839e-05,6.575169390998781e-05,7.637755334144458e-05,8.978125151770655e-06,1.1531629752425943e-05
-5.973607039777562e-05,-7.260171696543694e-05,4.0648294088896364e-05,-1.1217995051993057e-05,1.4595610082324129e-05
-7.143015682231635e-05,-0.00012246712867636234,-4.259252364136046e-06,-3.6248973628971726e-05,2.693237729545217e-05
-9.183181828120723e-05,-0.00012813013745471835,-3.317361915833317e-05,-5.753263030783273e-05,3.8007827242836356e-05
-9.30566675378941e-05,-0.0001386289222864434,-3.698246291605756e-05,-6.95669004926458e-05,5.0246679165866226e-05
-6.1959566664882e-05,-0.0001254260423593223,-1.6428159142378718e-05,-6.894544640090317e-05,6.094872151152231e-05
-3.90517852792982e-05,-5.972326471237466e-05,6.183134246384725e-06,-6.511299579869956e-05,5.7889461459126323e-05
-3.9802282117307186e-05,-1.3068166481389198e-05,1.1229258234379813e-05,-6.888162170071155e-05,4.7622277634218335e-05
-5.7706776715349406e-05,-6.908777777425712e-06,6.924519766471349e-06,-7.115277549019083e-05,3.5230892535764724e-05
-6.227679114090279e-05,5.0522867240943015e-05,6.4738101173134055e-06,-6.14415985182859e-05,3.366563396411948e-05
-3.290731547167525e-05,0.00016448128735646605,1.813695052987896e-05,-4.277350308257155e-05,5.182571476325393e-05
-4.850641744269524e-06,0.00020048404985573143,2.6082258045789786e-05,-1.7992473658523522e-05,7.066324906190857e-05
-7.266214652190683e-06,9.71530462265946e-05,2.0841123841819353e-05,4.137352334510069e-06,7.346581696765497e-05
-2.044459142780397e-05,-1.6888865502551198e-05,1.2459243407647591e-05,1.685423376329709e-05,6.539255264215171e-05
-1.6955629689618945e-05,-0.00010617543739499524,8.142883416439872e-06,2.4675586246303283e-05,5.5714230256853625e-05
-1.263454214495141e-05,-0.00012324057752266526,1.0009004654421005e-05,2.9376573365880176e-05,5.27889424120076e-05
-1.4714854842168279e-05,-8.701322076376528e-05,1.233299099112628e-05,3.467030546744354e-05,6.502069300040603e-05
3.5152468171872897e-06,-0.00011102153803221881,1.2379218787827995e-05,3.975159415858798e-05,8.457736112177372e-05
3.712466059369035e-05,-0.00015873086522333324,1.2021553629892878e-05,4.002867717645131e-05,9.216240141540766e-05
5.938882895861752e-05,-0.00021354584896471351,1.2851051906181965e-05,2.9669550713151693e-05,8.066701411735266e-05
4.891620119451545e-05,-0.0002810455916915089,8.561614777136128e-06,8.532242645742372e-06,6.139236211311072e-05
3.1477586617256748e-06,-0.00026967914891429245,-2.395557658019243e-06,-1.45162357512163e-05,4.31975131505169e-05
-6.260415830183774e-05,-0.0001675366220297292,-1.1799958883784711e-05,-3.252659735153429e-05,2.8377811759128235e-05
-0.00010932460281765088,-8.96179917617701e-05,-1.3280567145557143e-05,-4.3415384425316006e-05,2.100324309139978e-05
-0.00010473362635821104,-9.017493721330538e-05,-1.1494214959384408e-05,-4.627997623174451e-05,2.6347546736360528e-05
-5.9523259551497176e-05,-0.00011320217163302004,-1.124052687373478e-05,-4.005603477708064e-05,3.808015026152134e-05
-1.6723884982638992e-05,-9.088360093301162e-05,-7.510941031796392e-06,-2.525454510760028e-05,4.830240868614055e-05
-7.430161986121675e-06,-1.547525607747957e-05,4.088453351869248e-06,-8.271820661320817e-06,5.323981895344332e-05
-1.872157008619979e-05,9.311364556197077e-05,1.479826732975198e-05,1.3078243910058518e-06,5.3044521337142214e-05
-2.408456384728197e-05,0.00019707482715602964,1.9684453945956193e-05,8.781347787589766e-06,5.167317431187257e-05
-1.957445783773437e-05,0.0002504725125618279,2.1712246962124482e-05,1.79373164428398e-05,5.445347778731957e-05
-3.982421912951395e-05,0.00025132682640105486,1.9599103325163014e-05,2.3370499548036605e-05,6.667544948868454e-05
-9.146591764874756e-05,0.0002523109142202884,7.4420076998649165e-06,2.5756040486157872e-05,8.728375541977584e-05
-0.00013790778757538646,0.0002473254862707108,-1.4087260751693975e-05,2.3471158783650026e-05,9.967502410290763e-05
-0.00015827984316274524,0.00020413583843037486,-2.4712076992727816e-05,1.6346899428754114e-05,9.286215936299413e-05
-0.00012937265273649246,0.00015656779578421265,-1.744258224789519e-05,7.255667242134223e-06,8.199958392651752e-05
-4.9524522182764485e-05,0.0001641931157791987,-5.650345883623231e-06,-2.9399523100437364e-06,8.397169585805386e-05
2.1893631128477864e-05,0.00017964906874112785,-4.2460442273295484e-06,-1.0420782928122208e-05,8.934763172874227e-05
5.608541323454119e-05,9.862449951469898e-05,-1.0755962648545392e-05,-1.5542465916951187e-05,9.080605377675965e-05
5.899214738747105e-05,-2.0510455215116963e-05,-1.822029662434943e-05,-2.644850974320434e-05,8.787884871708229e-05
3.128731623291969e-05,-0.0001011840213323012,-2.531037898734212e-05,-4.578164589474909e-05,7.39645111025311e-05
-6.247434612305369e-06,-0.00016923030489124358,-2.801471964630764e-05,-6.131090049166232e-05,6.184520316310227e-05
-4.0037491999100894e-05,-0.00019724410958588123,-2.906117333623115e-05,-6.745151040377095e-05,6.350530020426959e-05
-6.372088682837784e-05,-0.0001317235582973808,-2.286665767314844e-05,-6.99122974765487e-05,7.462146459147334e-05
-6.429858331102878e-05,-7.785330126353074e-06,-1.1158581401105039e-05,-7.053422450553626e-05,8.057631930569187e-05
-5.212920223129913e-05,7.987488061189651e-05,-2.285790742462268e-06,-6.862667214591056e-05,7.169308082666248e-05
-4.6448243665508926e-05,9.469408541917801e-05,-3.897619535564445e-06,-6.662848318228498e-05,5.196022175368853e-05
-6.211437721503899e-05,6.437804404413328e-05,-1.394687296851771e-05,-6.162923818919808e-05,3.6984827602282166e-05
-8.576904656365514e-05,3.380007547093555e-05,-2.377582131884992e-05,-4.8857265937840566e-05,3.747986920643598e-05
-8.819821232464164e-05,1.332781721430365e-05,-3.161415588692762e-05,-2.7126439817948267e-05,4.63791802758351e-05
-5.769899507868104e-05,-4.672537215810735e-06,-3.33356911141891e-05,4.974651801603613e-07,5.5059219448594376e-05
-1.7164627934107557e-05,-1.9401008103159256e-05,-1.8740482119028457e-05,2.5317902327515185e-05,6.248516001505777e-05
2.440864591335412e-06,-2.3192018488771282e-05,1.1906447980436496e-05,4.109224755666219e-05,6.928123184479773e-05
-5.1607867135317065e-06,6.588624614778382e-07,3.658860077848658e-05,4.854724829783663e-05,7.362099859165028e-05
-3.1150138966040686e-05,6.384024163708091e-05,4.033454752061516e-05,5.039597817813046e-05,7.250101771205664e-05
-5.855576091562398e-05,0.00014108627510722727,2.9578612156910822e-05,4.924521272187121e-05,6.421248690458015e-05
-6.873720849398524e-05,0.00017929475870914757,1.4274090972321574e-05,4.8753081500763074e-05,5.516764213098213e-05
-5.7760738854995e-05,0.00016492347640451044,4.308245422635082e-07,4.8491692723473534e-05,5.3984647820470855e-05
-4.137087307753973e-05,0.00013018559548072517,1.4225782251742203e-05,4.533705941867083e-05,6.550474790856242e-05
-2.2687125238007866e-05,0.00012311356840655208,7.700156857026741e-05,3.698567525134422e-05,7.800290768500417e-05
-1.4902335351507645e-05,0.00013152304745744914,0.00015424129378516227,1.958237771759741e-05,6.894703983562067e-05
-2.7733958631870337e-05,0.00010951694275718182,0.00018950225785374641,-2.670365688572929e-07,4.157621515332721e-05
-4.4836357119493186e-05,6.860530993435532e-05,0.00014990784984547645,-1.0019296496466268e-05,2.7267173209111206e-05
-4.750702282763086e-05,6.132182170404121e-05,7.356610876740888e-05,-1.3495774510374758e-05,4.018297477159649e-05
-2.653666160767898e-05,3.7747078749816865e-05,3.242034608774702e-06,-1.4937911146262195e-05,5.905098078073934e-05
-2.0972768197680125e-06,1.3363812286115717e-05,-7.633357017766684e-05,-1.4123475921223871e-05,7.585954881506041e-05
1.2518628864199854e-05,6.033801400917582e-05,-0.00013253306678961962,-1.2390699339448474e-05,8.950263145379722e-05
2.7709354981197976e-05,0.00011989934864686802,-0.00012651633005589247,-1.1362462828401476e-05,8.585097384639084e-05
2.085919913952239e-05,0.00012313002662267536,-7.284474122570828e-05,-7.456889761670027e-06,7.432008715113625e-05
-6.714392839057837e-06,4.338661892688833e-05,-1.5191410057013854e-05,-5.3999765441403724e-06,6.721496174577624e-05
-6.682759249088122e-06,-8.624426845926791e-05,2.119647615472786e-05,-1.2840104318456724e-05,6.454006506828591e-05
3.084195850533433e-05,-0.00017857716011349112,3.2369869586545974e-05,-2.3899803636595607e-05,6.109820969868451e-05
7.477053441107273e-05,-0.00014577744877897203,2.734049667196814e-05,-3.032205131603405e-05,5.67187016713433e-05
8.831426384858787e-05,-8.301377420139033e-06,2.073455834761262e-05,-2.927795867435634e-05,5.583833990385756e-05
5.3256022511050105e-05,0.00010455529991304502,1.0694434422475751e-05,-2.910374132625293e-05,4.9598063924349844e-05
-3.5934745028498583e-06,9.442443115403876e-05,-2.707150542846648e-06,-3.5401175409788266e-05,3.699625449371524e-05
-2.894470344472211e-05,1.9867129594786093e-05,-9.062562639883254e-06,-4.124928454984911e-05,3.573647336452268e-05
-1.052099196385825e-05,-3.42818475473905e-06,-2.874924575735349e-06,-3.989782999269664e-05,5.442498149932362e-05
6.071533789508976e-06,1.872344728326425e-05,1.5867743741182494e-07,-3.4194781619589776e-05,7.565887062810361e-05
-1.1017143151548225e-05,3.035420559172053e-05,-7.65244840295054e-06,-2.7527146812644787e-05,8.041722321650013e-05
-3.968165401602164e-05,5.478610182763077e-05,-1.969899494724814e-05,-1.6516867617610842e-05,6.889072392368689e-05
-4.207173697068356e-05,0.00013440943439491093,-2.161443990189582e-05,-1.2815877425964572e-06,5.318496187101118e-05
-1.4044036106497515e-05,0.0002438794035697356,-5.114191026223125e-06,1.0287156328558922e-05,4.300401997170411e-05
1.6677900930517353e-05,0.00033647645614109933,3.089454912696965e-05,1.2616228559636511e-05,4.069578426424414e-05
3.421544170123525e-05,0.00036212202394381166,6.980756734265015e-05,8.820522452879231e-06,4.143779005971737e-05
4.475289097172208e-05,0.0003110142715740949,8.523496217094362e-05,2.511432057872298e-06,4.38712741015479e-05
5.491996125783771e-05,0.00020739987667184323,6.59283105051145e-05,-5.961856459180126e-06,5.654469350702129e-05
7.622923294547945e-05,5.8098787121707574e-05,3.171757998643443e-05,-1.863522811618168e-05,8.039192471187562e-05
0.00010737484262790531,-0.00013345734623726457,1.3336053598322906e-05,-3.078133886447176e-05,9.693470929050818e-05
0.00010434420983074233,-0.00037808873457834125,1.6319321730406955e-05,-3.6198449379298836e-05,8.737421012483537e-05
4.296829501981847e-05,-0.0005521807470358908,1.7809028577175923e-05,-3.6084744351683185e-05,5.2791550842812285e-05
-5.855009294464253e-05,-0.0005375634646043181,5.634112767438637e-06,-3.9464051951654255e-05,1.4197187738318462e-05
-0.000161686897627078,-0.0003480833547655493,-5.985007646813756e-06,-4.971800444764085e-05,-1.0896517778746784e-05
-0.00019518504268489778,-0.00011965235898969695,2.782783667498734e-06,-4.869880649494007e-05,-1.4738383470103145e-05
-0.0001556442875880748,-5.598630377789959e-05,1.2707871974271256e-05,-3.083784395130351e-05,-2.0917709662171546e-06
-0.00010334510443499312,-9.70217733993195e-05,-6.436598141590366e-06,-4.59156444776454e-06,1.8012398868449964e-05
-7.061922224238515e-05,-0.00010419538739370182,-3.029238541785162e-05,2.281899105582852e-05,4.7198711399687454e-05
-5.513193900696933e-05,-5.578752825385891e-05,-2.918601421697531e-05,4.3278061639284715e-05,7.453348371200264e-05
-4.822269329451956e-05,-1.7576110622030683e-05,-9.528513146506157e-06,4.294351674616337e-05,8.50156502565369e-05
-4.9389462219551206e-05,-5.303014404489659e-06,4.698163138527889e-06,2.138494346581865e-05,7.821069448255002e-05
-5.3110907174414024e-05,2.255980871268548e-05,5.058440365246497e-06,-9.461116860620677e-06,6.14380041952245e-05
-6.404242594726384e-05,8.203447941923514e-05,-8.778017104305036e-07,-3.512738476274535e-05,4.692859874921851e-05
-7.96108361100778e-05,0.00013798504369333386,1.084674522644491e-06,-4.5507855247706175e-05,4.801607792614959e-05
-8.329300908371806e-05,0.00014043673581909388,1.2846002391597722e-05,-4.029539195471443e-05,6.129127723397687e-05
-6.340323307085782e-05,8.41841974761337e-05,2.6082139811478555e-05,-2.6132971470360644e-05,7.201280095614493e-05
-3.6921206628903747e-05,1.2733462426695041e-05,2.9151804483262822e-05,-1.4191014088282827e-05,7.38250746508129e-05
-3.2423657103208825e-05,1.4842136806691997e-05,1.6495501768076792e-05,-9.894275535771158e-06,6.799296534154564e-05
-5.0922604714287445e-05,7.9122677561827e-05,-6.7977080107084475e-06,-1.4525445294566453e-05,5.685267024091445e-05
-6.001751171424985e-05,0.00011473333142930642,-2.2633630578638986e-05,-2.3375094315269962e-05,5.173610043129884e-05
-4.786563658853993e-05,0.00013113224122207612,-1.4849790204607416e-05,-2.910328475991264e-05,6.277448119362816e-05
-3.646784170996398e-05,0.00019817310385406017,4.597604856826365e-06,-2.570096512499731e-05,7.638111856067553e-05
-3.3575797715457156e-05,0.0002597421989776194,1.3930217392044142e-05,-1.814835559343919e-05,7.823901978554204e-05
-2.0900168237858452e-05,0.000266677321633324,1.228504697792232e-05,-1.1108963008155115e-05,7.002391794230789e-05
3.0100407002464635e-06,0.0002465197758283466,8.789970706857275e-06,-1.1174891369591933e-05,6.149349064799026e-05
2.7688418413163163e-05,0.00025238763191737235,8.324007467308547e-06,-8.420438462053426e-06,6.461116572609171e-05
3.860392826027237e-05,0.0002331303112441674,1.2507599421951454e-05,8.463991434837226e-06,7.773480319883674e-05
1.756623896653764e-05,8.649079245515168e-05,2.0145960661466233e-05,2.609087823657319e-05,8.331301069119945e-05
-1.9410565073485486e-05,-0.0001066245895344764,2.6699519366957247e-05,2.950491943920497e-05,7.04255435266532e-05
-5.9934718592558056e-05,-0.00017391332949046046,2.8116817702539265e-05,2.269798278575763e-05,5.185987174627371e-05
-8.547733159502968e-05,-0.0001412990823155269,3.181752981618047e-05,2.311109346919693e-05,4.34928442700766e-05
-8.044995774980634e-05,-0.00012443267041817307,3.5942590329796076e-05,2.4725659386604093e-05,5.1445695135043934e-05
-7.221277337521315e-05,-0.0001138875522883609,3.24291322613135e-05,1.9302256987430155e-05,6.648127600783482e-05
-7.971375453053042e-05,-0.00010856064909603447,1.328033522440819e-05,5.577006504609017e-06,6.643079541390762e-05
-8.413810428464785e-05,-0.0001087163036572747,-1.5109525520529132e-05,-1.6408848750870675e-05,5.179178333492018e-05
-6.736874638590962e-05,-5.1158862333977595e-05,-3.861853838316165e-05,-3.679162546177395e-05,3.994509097537957e-05
-3.5401550121605396e-05,4.7766679927008227e-05,-5.1410392188699916e-05,-4.587717558024451e-05,4.190618346910924e-05
9.028869385474536e-07,0.00012231091386638582,-4.374188574729487e-05,-3.541877958923578e-05,6.022933666827157e-05
2.804749419738073e-05,0.00012204482482047752,-5.115773092256859e-06,-1.1072587767557707e-05,8.54882164276205e-05
2.73201112577226e-05,5.96742975176312e-05,4.512557643465698e-05,1.1617823474807665e-05,9.772722842171788e-05
1.5291260524463723e-06,3.9874135836726055e-05,7.571830792585388e-05,1.9285318558104336e-05,8.917073864722624e-05
-2.3953891286510043e-05,0.00010902212670771405,7.396639557555318e-05,1.3221030712884385e-05,6.805024895584211e-05
-3.262523387093097e-05,0.00017197012493852526,4.646791421691887e-05,2.8367696813802468e-06,4.7118679503910244e-05
-2.0568906620610505e-05,0.00012254634930286556,9.252506060875021e-06,-8.277704182546586e-06,3.893647590302862e-05
6.602093890251126e-06,1.0386372196080629e-05,-2.936884993687272e-05,-1.6375874110963196e-05,4.931195508106612e-05
2.3299235181184486e-05,-5.221825995249674e-05,-6.569563993252814e-05,-1.795235584722832e-05,6.94452683092095e-05
-3.2007886829887866e-07,-5.3784966439707205e-05,-8.070061448961496e-05,-1.9862563931383193e-05,7.530614675488323e-05
-5.667877849191427e-05,-2.796937587845605e-05,-5.501621126313694e-05,-2.830559060384985e-05,5.995103492750786e-05
-9.663775563240051e-05,5.2805160521529615e-05,-6.088015197747154e-06,-3.550916881067678e-05,4.3225812987657264e-05
-8.173182868631557e-05,0.00019521941430866718,3.048934740945697e-05,-3.1149240385275334e-05,4.052384610986337e-05
-3.0192746635293588e-05,0.000352818111423403,4.29875472036656e-05,-1.6341415175702423e-05,4.900404383079149e-05
1.2498228898039088e-05,0.0003702241228893399,4.6841603762004524e-05,2.862875021492073e-07,5.6512144510634243e-05
3.054154876735993e-05,0.0001725887123029679,4.164826896158047e-05,9.020909601531457e-06,5.681936818291433e-05
4.428385364008136e-05,-2.3639559003640898e-05,2.4457038307446055e-05,7.85905467637349e-06,5.104578667669557e-05
6.638725608354434e-05,-5.9289166529197246e-05,-3.255133833590662e-06,-6.185040547279641e-06,3.6270728742238134e-05
5.195376797928475e-05,-9.978162415791303e-05,-3.0250737836468033e-05,-3.2375097362091765e-05,1.4891817045281641e-05
-1.4254098914534552e-06,-0.00019181061361450702,-2.931116978288628e-05,-3.9910188206704333e-05,1.1396238733141217e-05
-3.019697032868862e-05,-0.0001971019373741001,-1.0471977475390304e-05,-2.261217923660297e-05,4.3487576476763934e-05
-2.6813131626113318e-05,-0.00013321300502866507,-7.352950319727825e-07,-7.949204700707924e-06,8.445812272839248e-05
-2.1973997718305327e-05,-6.505069904960692e-05,7.285381116162171e-07,-9.408915502717718e-06,9.954745473805815e-05
-3.60100093530491e-05,-3.906652273144573e-05,6.879050033603562e-06,-1.8217860997538082e-05,8.442134276265278e-05
-5.0484228268032894e-05,-3.051176099688746e-05,2.0269781089155003e-05,-2.1830499463248998e-05,5.829222936881706e-05
-4.275505489204079e-05,-1.0487807230674662e-05,3.091936741839163e-05,-1.5994486602721736e-05,4.560098022921011e-05
-1.7026008208631538e-05,3.289267624495551e-05,3.15143697662279e-05,-7.165202077885624e-06,5.1069622713839635e-05
5.134196271683322e-06,9.665663674240932e-05,2.187602331105154e-05,3.2265065783576574e-06,6.280313391471282e-05
-1.6021784858821775e-06,0.00013798908912576735,7.006259238551138e-06,1.1204960173927248e-05,6.994343129917979e-05
-2.7105392291559838e-05,0.00011153439845656976,-1.22050614663749e-05,1.194009655591799e-05,6.827836477896199e-05
-4.7340774472104385e-05,2.1202684365562163e-05,-2.570185279182624e-05,9.327076440968085e-06,5.571413930738345e-05
-5.590041837422177e-05,-5.5576507293153554e-05,-1.9673439965117723e-05,1.1702927622536663e-06,3.627029582276009e-05
-6.205961835803464e-05,-8.320564666064456e-05,5.089794740342768e-06,-6.663279236818198e-06,2.752649197645951e-05
-7.708429620834067e-05,-6.274532643146813e-05,2.9891731173847802e-05,-4.8200504352280404e-06,3.900087904185057e-05
-9.867639892036095e-05,2.439302988932468e-05,3.550689507392235e-05,3.276434654253535e-06,5.995165338390507e-05
-0.00010217943781754002,0.0001619774557184428,2.6240370061714202e-05,3.888537776219891e-06,7.719853601884097e-05
-7.447357347700745e-05,0.0002480879775248468,2.2468078896054067e-05,-1.6358316088371794e-06,8.274570427602157e-05
-1.4012037354405038e-05,0.00017727409431245178,3.237667624489404e-05,-2.658991434145719e-06,7.834999996703118e-05
7.224323053378612e-05,-3.0025634259800427e-05,3.477734207990579e-05,-2.964041641462245e-06,7.152746547944844e-05
0.0001436288730474189,-0.0002082802529912442,8.550337042834144e-06,-1.7105539882322773e-05,6.791545456508175e-05
0.00016408556257374585,-0.00021793422638438642,-2.906585723394528e-05,-4.273542435839772e-05,7.523177191615105e-05
0.00013623609265778214,-4.6609548007836565e-05,-4.7704648750368506e-05,-7.02355828252621e-05,8.464677375741303e-05
8.223600161727518e-05,0.00010525590914767236,-4.870840712101199e-05,-9.764686546986923e-05,8.534576772945002e-05
4.421386620379053e-05,3.4092321584466845e-05,-4.146982610109262e-05,-0.0001123699257732369,8.707549568498507e-05
3.361791459610686e-05,-0.00012233134475536644,-2.410847446299158e-05,-0.00010163739352719858,9.324232814833522e-05
3.8180996853043325e-06,-0.00010443705104989931,-6.3940483414626215e-06,-7.814363925717771e-05,8.710739348316565e-05
-4.9741542170522735e-05,2.5172907044179738e-05,6.396663138730219e-06,-6.410163041437045e-05,6.141662015579641e-05
-8.06656462373212e-05,0.00010078928607981652,1.6833379049785435e-05,-4.981716119800694e-05,3.979435496148653e-05
-5.6211076298495755e-05,7.159340020734817e-05,2.725484227994457e-05,-8.651632015244104e-06,4.8164605686906725e-05
-2.9096516300342046e-05,-3.427903357078321e-05,4.226024611853063e-05,4.2329880670877174e-05,6.967817171243951e-05
-5.83655564696528e-05,-0.00012019397399853915,4.6118493628455326e-05,7.198797538876534e-05,7.43015407351777e-05
-0.00012293359031900764,-0.00014412500604521483,3.149151598336175e-05,8.553831867175177e-05,6.314976053545251e-05
-0.00017023539112415165,-8.413194882450625e-05,1.5298886864911765e-05,8.716438605915755e-05,4.5697928726440296e-05
-0.0001620808761799708,2.160962685593404e-05,9.302646503783762e-06,8.010269812075421e-05,2.7681104256771505e-05
-0.00012905393668916076,0.00012243275705259293,-3.5066320833720965e-06,7.018126780167222e-05,2.0039988157805055e-05
-0.00010231169289909303,0.00017100739933084697,-2.2461241314886138e-05,5.637518916046247e-05,3.7899186281720176e-05
-8.423884719377384e-05,0.0001658409892115742,-2.2546088075614534e-05,4.323001121520065e-05,6.949429371161386e-05
-6.60592268104665e-05,0.0001290356885874644,7.423361694236519e-07,3.307210863567889e-05,8.504964353051037e-05
-4.8422793042846024e-05,0.00010814572306117043,1.895307286758907e-05,2.295269769092556e-05,7.848110544728115e-05
-4.4066655391361564e-05,0.00012560983304865658,1.8245375031256117e-05,1.1834694305434823e-05,6.75911214784719e-05
-6.010831566527486e-05,0.00013593732728622854,1.6428444723715074e-05,1.908999365696218e-06,6.296516949078068e-05
-8.839248039294034e-05,8.49158750497736e-05,2.0657695131376386e-05,-8.936013728089165e-06,5.671733379131183e-05
-0.0001000233824015595,-1.3900018529966474e-05,2.5632734832470305e-05,-2.270200457132887e-05,4.5022716221865267e-05
-7.356087735388428e-05,-6.868265336379409e-05,3.377755274414085e-05,-3.1748972105560824e-05,3.659611684270203e-05
-2.5491452106507495e-05,-3.573695357772522e-05,4.6665987611049786e-05,-2.8861901228083298e-05,3.700472370837815e-05
7.29546854927321e-06,4.9783786380430683e-05,5.255053474684246e-05,-2.0366082026157528e-05,4.161389733781107e-05
1.223433264385676e-05,0.0001196836237795651,4.801519389729947e-05,-1.637541026866529e-05,4.40456933574751e-05
-5.1566848924267106e-06,0.00014575451496057212,3.940850729122758e-05,-2.270477489219047e-05,4.1493138269288465e-05
-1.4233855836209841e-05,0.00018154567806050181,2.7273255909676664e-05,-3.478741564322263e-05,4.343849650467746e-05
-1.0199656571785454e-05,0.0002677608572412282,-5.767707307313685e-07,-3.702571848407388e-05,5.9408965171314776e-05
-7.135459327400895e-06,0.000331597140757367,-2.6003015591413714e-05,-2.0930820028297603e-05,8.625050395494327e-05
-8.382141459151171e-06,0.00028614202165044844,-2.7307656637276523e-05,-2.6344150683144107e-06,0.00010500013740966097
-1.5706416888860986e-05,0.00013811388635076582,-2.6122059352928773e-05,-6.727163963660132e-06,9.691900777397677e-05
-1.0713920346461236e-05,9.433410014025867e-06,-2.453989873174578e-05,-3.0847295420244336e-05,7.586651190649718e-05
7.971181730681565e-06,-1.7259320884477347e-05,1.204817863253993e-06,-6.0740876506315544e-05,5.9631813201121986e-05
1.8071106751449406e-05,1.0190114153374452e-05,3.3334639738313854e-05,-7.988241850398481e-05,5.996467007207684e-05
-2.7933522233070107e-06,-1.979797707463149e-05,3.216626282664947e-05,-8.517824608134106e-05,6.358677637763321e-05
-3.0535658879671246e-05,-0.00011793094017775729,3.77961896447232e-06,-8.491547487210482e-05,5.930592669756152e-05
-3.697746433317661e-05,-0.00022664696734864265,-1.0275203749188222e-05,-7.450194243574515e-05,5.913308632443659e-05
-5.2195784519426525e-05,-0.00024894392117857933,-5.37168398295762e-06,-5.355623579816893e-05,4.834888022742234e-05
-8.639074803795666e-05,-0.00017960854165721685,1.3507526546163717e-06,-2.5967752662836574e-05,3.054029366467148e-05
-0.00010009415564127266,-0.00010314782412024215,-7.494653004869178e-07,4.309691121306969e-06,2.7523139578988776e-05
-6.395277887349948e-05,-4.042471482534893e-05,-5.284041890263325e-06,2.893088458222337e-05,4.413982242112979e-05
-1.934391366376076e-05,-3.808694089002529e-07,-1.686919063104142e-06,4.1883980884449556e-05,5.80175947106909e-05
-9.064133337233216e-06,-1.0381701031292323e-05,3.4029239941446576e-06,4.495638859225437e-05,5.741769928135909e-05
-1.737394995871e-05,-8.671095565659925e-05,1.6857848095241934e-07,4.403195998747833e-05,5.516548117157072e-05
-1.187588077300461e-05,-0.0001478327321819961,-1.2698052159976214e-05,3.921904135495424e-05,6.128270615590736e-05
6.531018698296975e-06,-9.804897126741707e-05,-2.3483864424633794e-05,2.8506459784694016e-05,6.783835124224424e-05
2.6828549380297773e-05,4.739825817523524e-05,-2.7063237212132663e-05,1.5008925402071327e-05,6.381923594744876e-05
5.034681817051023e-05,0.00014970608754083514,-2.6706367862061597e-05,4.87973647977924e-06,5.249487730907276e-05
6.458137795561925e-05,0.00013242103159427643,-2.3968696041265503e-05,9.948631713996292e-07,4.2912397475447506e-05
4.911713767796755e-05,6.367740570567548e-05,-1.5130995961953886e-05,2.68093253907864e-06,4.538902430795133e-05
7.341964192164596e-06,3.191090581822209e-05,-9.656394013290992e-07,4.8072574827529024e-06,5.6690132623771206e-05
-2.25854673772119e-05,6.339409446809441e-05,1.713123856461607e-05,2.2934816570341354e-06,6.236507761059329e-05
-2.2457363229477778e-05,0.00013444191426970065,3.0428604077314958e-05,-7.82213010097621e-06,5.282698475639336e-05
-1.5055201401992235e-05,0.00018666537653189152,3.0258124752435833e-05,-2.825013143592514e-05,3.536542863002978e-05
-2.3395410607918166e-05,0.0001671976497163996,3.246035339543596e-05,-4.068270209245384e-05,1.9926697859773412e-05
-3.0420947950915433e-05,4.804978016181849e-05,3.762372944038361e-05,-3.963968629250303e-05,1.0973401003866456e-05
-1.5660287317587063e-05,-6.391525676008314e-05,2.0893532564514317e-05,-3.642089359345846e-05,1.796183096303139e-05
-1.4341318092192523e-05,3.4891971154138446e-05,-4.903335138806142e-06,-2.886888978537172e-05,5.5099262681324035e-05
-4.526371048996225e-05,0.000253285194048658,-2.3428416170645505e-05,-3.0218579922802746e-05,0.00010182199912378564
-6.630551797570661e-05,0.0003521895851008594,-3.378414112376049e-05,-4.339759470894933e-05,0.00012024102034047246
-4.367776637081988e-05,0.0002322856307728216,-3.319584357086569e-05,-6.323224806692451e-05,0.00010249397746520117
-4.2318811210861895e-06,-4.560255183605477e-05,-2.1609559553326108e-05,-8.704444189788774e-05,7.20786556485109e-05
1.4567383004759904e-05,-0.00020785567176062614,1.4997903008406865e-07,-0.00010007543460233137,5.268188760965131e-05
2.8153777748229913e-05,-0.00017063110135495663,2.8330554414424114e-05,-0.00010090447176480666,4.8172223614528775e-05
3.9413880585925654e-05,-9.040179429575801e-05,4.964535037288442e-05,-9.158810280496255e-05,4.420644836500287e-05
3.455211117397994e-05,-7.475251914002001e-05,3.3633714338066056e-05,-6.91936511429958e-05,4.341177918831818e-05
7.50008530303603e-06,-0.000102200050605461,-1.7093381757149473e-05,-3.110880425083451e-05,6.126585503807291e-05
-3.088816811214201e-05,-0.00010727241897257045,-5.597353811026551e-05,1.2935447557538282e-05,8.746414096094668e-05
-5.888853411306627e-05,-6.670287257293239e-05,-5.3258350817486644e-05,5.0851052947109565e-05,9.818276885198429e-05
-6.906240741955116e-05,-1.0916826795437373e-05,-2.3278023945749737e-05,7.906372047727928e-05,8.644076297059655e-05
-6.514160486403853e-05,4.958989393344382e-06,9.6766352726263e-06,9.465133916819468e-05,6.664905959041789e-05
-5.015059650759213e-05,-4.051641553814989e-06,3.120829205727205e-05,9.31752219912596e-05,5.60188818781171e-05
-3.786029992625117e-05,7.554629632977594e-07,4.336650818004273e-05,7.75339940446429e-05,6.034089528839104e-05
-4.4752036046702415e-05,4.2148298234678805e-05,4.6436325646936893e-05,5.426726056612097e-05,6.816258246544749e-05
-6.237433262867853e-05,0.00011280424951110035,3.408246629987843e-05,1.9694800357683562e-05,6.810481863794848e-05
-7.694624946452677e-05,0.00017955403018277138,9.264931577490643e-06,-2.8452868718886748e-05,5.9447454987093806e-05
-7.982172246556729e-05,0.00020424432295840234,-9.832291652855929e-06,-7.296514377230778e-05,5.049455648986623e-05
-6.713908078381792e-05,0.00019755298853851855,-9.282304745283909e-06,-8.784471719991416e-05,4.82026553072501e-05
-4.355856071924791e-05,0.00016509619308635592,3.204153244951158e-07,-7.658296817680821e-05,5.379577851272188e-05
-2.1511888917302713e-05,0.00010386356734670699,6.2380531744565815e-06,-5.9785812482004985e-05,5.938492176937871e-05
-2.888830067604431e-06,2.799717003654223e-05,5.167871222511167e-06,-3.639873466454446e-05,5.974167288513854e-05
1.0832794941961765e-05,-2.4896558898035437e-05,2.0244758616172476e-06,-1.4539422181769623e-06,5.576933472184464e-05
6.669441177109547e-08,-2.132780173269566e-05,-2.0674438019341324e-06,3.867422856274061e-05,4.571058161673136e-05
-3.197511614416726e-05,2.2456100850831717e-05,-3.2240762948276824e-07,7.175119390012696e-05,3.656338594737463e-05
-5.5035477998899296e-05,8.054984937189147e-05,2.2507030735141598e-05,8.498206443618983e-05,3.405616735108197e-05
-4.753476241603494e-05,0.0001802710467018187,4.912546501145698e-05,8.648379298392683e-05,3.7055317079648376e-05
-1.773248368408531e-05,0.00024877735995687544,5.7273828133475035e-05,8.485739817842841e-05,4.782409087056294e-05
7.59907698011375e-06,0.0001794740674085915,4.5326072722673416e-05,7.42292104405351e-05,6.0430291341617703e-05
2.5461920813540928e-05,4.818843808607198e-05,2.2160309526952915e-05,4.4658580009127036e-05,6.53827446512878e-05
3.360666232765652e-05,-2.9056405765004456e-05,-9.574891919328365e-06,-3.938422651117435e-06,6.141509220469743e-05
3.138820466119796e-05,-8.501080446876585e-05,-5.749092815676704e-05,-5.1509676268324256e-05,5.38116401003208e-05
2.6165736926486716e-05,-0.00016464358486700803,-9.05176202650182e-05,-7.804077176842839e-05,5.143068847246468e-05
8.896027793525718e-06,-0.00018612683925312012,-6.635452882619575e-05,-7.741636363789439e-05,5.147658521309495e-05
-3.6521309084491804e-05,-0.00012523164332378656,-4.692243237514049e-06,-5.7269313401775435e-05,5.30079378222581e-05
-9.30849346332252e-05,-4.402546619530767e-05,2.670569665497169e-05,-3.382039722055197e-05,6.145552470115945e-05
-0.00011852058378281072,-6.116326403571293e-06,1.1616726624197327e-05,-1.207592595164897e-05,7.216310041258112e-05
-0.0001065541582647711,-2.028028575296048e-05,-1.521448211860843e-05,1.0597833352221642e-05,8.30686985864304e-05
-8.148983033606783e-05,-4.872820863965899e-05,-2.5937993996194564e-05,2.9478575015673414e-05,8.856318891048431e-05
-5.69631447433494e-05,-3.6311168514657766e-05,-1.1853939213324338e-05,3.8746999052818865e-05,8.481572876917198e-05
-4.18136223743204e-05,1.5497542335651815e-05,1.4390302567335311e-05,3.713393016369082e-05,7.297790580196306e-05
-4.806783181265928e-05,4.493791493587196e-05,3.014469075424131e-05,2.653965748322662e-05,5.593902096734382e-05
-6.598456093342975e-05,2.031137228186708e-05,2.304099871253129e-05,1.0816609574249014e-05,4.196178269921802e-05
-7.269231718964875e-05,-6.207326805451885e-06,2.654142235769541e-06,-4.976808668288868e-06,4.112833266844973e-05
-5.97894613747485e-05,2.1154306523385458e-05,-1.940782203746494e-05,-1.635330045246519e-05,5.091055572847836e-05
-3.5425295209279284e-05,8.032129699131474e-05,-4.405745130497962e-05,-2.1385742002166808e-05,5.8855566749116406e-05
-1.3672111890628003e-05,0.00011975014786003157,-5.9385623899288476e-05,-1.9654939023894258e-05,6.088943700888194e-05
3.9342927493635216e-07,0.00010315975669072941,-4.822182745556347e-05,-1.9230208636145107e-05,6.158679025247693e-05
9.465847142564598e-06,3.565082079148851e-05,-2.3368016627500765e-05,-3.418885899009183e-05,6.485956691903993e-05
6.599014795938274e-06,-7.396588443953078e-06,-7.192373686848441e-06,-7.768755313009024e-05,6.0563084844034165e-05
-8.464347047265619e-06,3.9423812268069014e-05,-3.488002676022006e-06,-0.00013572983152698725,5.2216149924788624e-05
-1.1970828381890897e-05,0.00010678420949261636,-2.6792527023644652e-06,-0.00016827465151436627,5.530600901693106e-05
-1.0322766684112139e-05,9.990968828788027e-05,9.483804205956403e-06,-0.0001569704618304968,6.390586349880323e-05
-2.2343607270158827e-05,2.6690124286687933e-05,2.9156139135011472e-05,-0.0001254710805369541,6.600702909054235e-05
-2.7917589250137098e-05,-1.6273066648864187e-05,3.11632284137886e-05,-0.00010406542423879728,6.096341530792415e-05
-2.548628799559083e-05,1.9205876014893875e-05,4.344660283095436e-06,-8.537434041500092e-05,5.449019590741955e-05
-2.5310224373242818e-05,9.741461690282449e-05,-3.331919288029894e-05,-4.836099105887115e-05,4.9766094889491796e-05
-2.640591628733091e-05,0.00015663489466533065,-5.916950976825319e-05,1.064726689037343e-06,4.340628584031947e-05
-3.272801041021012e-05,0.00015897904813755304,-6.257460336200893e-05,3.8882546505192295e-05,3.612325599533506e-05
-2.9384265872067772e-05,0.00014171646034810692,-4.072879164596088e-05,6.428899359889328e-05,3.4229469747515395e-05
-6.541280072269728e-06,0.00010418463352834806,-1.4195506992109586e-05,8.2443468272686e-05,4.3681087845470756e-05
2.7068449526268523e-06,3.8089197914814577e-05,6.608167495869566e-06,9.787041926756501e-05,6.0003094404237345e-05
-2.197341382270679e-05,-1.959392466233112e-05,2.002001929213293e-05,0.00011408166028559208,6.923724868101999e-05
-4.681726932176389e-05,-6.187857798067853e-05,3.314756031613797e-05,0.00012935843551531434,6.986091466387734e-05
-4.4480028009274974e-05,-9.57375523285009e-05,4.5046599552733824e-05,0.00012629161938093603,6.957754521863535e-05
-2.8163298338768072e-05,-9.847947512753308e-05,4.4786462240153924e-05,9.404344746144488e-05,7.170715252868831e-05
-2.3456394046661444e-05,-5.821120794280432e-05,3.289944652351551e-05,5.398567736847326e-05,7.287089101737365e-05
-3.77870092052035e-05,-3.678610664792359e-05,1.5724119293736294e-05,3.042508069484029e-05,7.15318092261441e-05
-5.371914085117169e-05,-8.124390296870843e-05,3.3400765460100956e-06,2.047267662419472e-05,7.41348703741096e-05
-5.1725884986808524e-05,-0.0001310470252064988,-1.3773466207567253e-06,9.19757439987734e-06,8.2761725934688e-05
-3.320489850011654e-05,-9.551511175232008e-05,-7.519299742853036e-07,-5.389389116317034e-06,8.729854744160548e-05
-1.2064867405570112e-05,-1.3321361620910466e-05,-3.4870656691055046e-06,-2.518486144253984e-05,8.218816947191954e-05
4.744172656501178e-06,6.318172381725162e-05,-9.36493233893998e-06,-5.206223067943938e-05,7.220559928100556e-05
1.7456832210882567e-05,0.00013615684292744845,-1.3312474948179442e-05,-8.465520659228787e-05,6.207475234987214e-05
1.7323054635198787e-05,0.00016857185983099043,-1.3011956980335526e-05,-0.00011226408241782337,5.872230030945502e-05
1.2211766886593978e-07,0.00014942481357138604,-6.567990567418747e-06,-0.00012851582141593099,5.880273238290101e-05
-1.4050680874788668e-05,0.00011161396105308086,4.114166586077772e-06,-0.00012710251030512154,5.4011830798117444e-05
-1.4764875231776386e-05,0.0001188184178317897,8.32677869766485e-06,-0.00010301004658685997,5.9703226725105196e-05
-1.5016396901046392e-05,0.00011283501225989312,1.877921022241935e-05,-4.8412508476758376e-05,8.471394539810717e-05
-2.8242968255653977e-05,-1.586375401529949e-05,3.9341841329587623e-05,1.3980696166981943e-05,8.996151154860854e-05
-4.0724735299590975e-05,-0.0001120954766520299,4.704500679508783e-05,5.4457814258057624e-05,7.193471537902951e-05
-3.469541479717009e-05,-3.12890115310438e-05,3.814822412095964e-05,6.77124407957308e-05,6.623301305808127e-05
-3.101311085629277e-05,9.427336772205308e-05,3.8666054024361074e-05,5.8557990996632725e-05,7.620623364346102e-05
-4.058392369188368e-05,0.00010958637722069398,5.398611392593011e-05,3.173499499098398e-05,8.416883065365255e-05
-5.094103471492417e-05,4.850990080740303e-05,6.0909173043910414e-05,-1.4841478332527913e-05,7.656648085685447e-05
-7.693017687415704e-05,1.3068428415863309e-05,4.823951894650236e-05,-6.800837581977248e-05,5.405150295700878e-05
-0.00011104745499324054,1.666813113843091e-05,2.2669528334517963e-05,-0.00010747365740826353,2.4688752091606148e-05
-0.00011055238428525627,1.769847767718602e-05,-2.7651547043205937e-06,-0.00011803617235273123,3.978953827754594e-06
-7.510551949962974e-05,-2.3968286768649705e-06,-1.6594905901001766e-05,-0.0001142706023529172,9.160195872937038e-07
-3.5550896427594125e-05,-1.0760697477962822e-05,-1.602894553798251e-05,-0.00012473428796511143,1.5562774933641776e-05
-1.1328783330100123e-05,1.3616101568914019e-05,-8.126539796649013e-06,-0.00015324453124776483,3.4522956411819905e-05
-5.370477538235718e-06,4.776760397362523e-05,7.381139312201412e-06,-0.00016503827646374702,4.650979462894611e-05
-9.672294254414737e-06,2.8987844416406006e-05,2.530017081880942e-05,-0.00013458769535645843,4.400423131301068e-05
-1.7146519894595258e-05,-3.7222136597847566e-05,3.382669456186704e-05,-6.99209122103639e-05,3.178950646542944e-05
-3.03614760923665e-05,-6.520216265926138e-05,2.546720497775823e-05,1.0889784789469559e-05,3.048693179152906e-05
-4.007081224699505e-05,-3.8849961129017174e-05,8.559088200854603e-06,9.330391912953928e-05,4.885278394795023e-05
-2.647462133609224e-05,-2.507487079128623e-05,-6.864748229418183e-06,0.0001570878957863897,6.692484021186829e-05
1.0299662562829326e-06,-1.629696816962678e-05,-4.672447175835259e-06,0.00018644209194462746,6.368112372001633e-05
1.8303282558918e-05,2.888913149945438e-05,3.3684991649352014e-05,0.0001965770497918129,4.888071271125227e-05
2.3956081349751912e-05,6.473593384725973e-05,8.666812937008217e-05,0.00020869677246082574,3.957071021432057e-05
3.597476097638719e-05,6.38487035757862e-05,0.00011448511941125616,0.00020790995040442795,3.955724241677672e-05
4.817304579773918e-05,6.117270095273852e-05,0.00011137440014863387,0.00017081393161788583,3.895139889209531e-05
3.849923814414069e-05,5.376567060011439e-05,8.884628186933696e-05,0.00011474925850052387,2.7579051675274968e-05
2.832739301084075e-05,4.6276119974208996e-05,4.981576421414502e-05,7.629400352016091e-05,2.067944842565339e-05
4.056929537910037e-05,8.879403321770951e-05,-3.751376425498165e-06,5.771114592789672e-05,3.746080255950801e-05
4.1178536775987595e-05,0.00010568441211944446,-4.192785854684189e-05,2.4127996312017785e-06,5.436181527329609e-05
1.7354108194922446e-06,7.295609975699335e-05,-1.980507113330532e-05,-6.749010208295658e-05,6.0562586440937594e-05
-5.846940985065885e-05,3.896371254086262e-06,3.2550884498050436e-05,-8.272224658867344e-05,6.723271508235484e-05
-9.15735072339885e-05,-0.0001260641438420862,4.9881455197464675e-05,-4.6195076720323414e-05,7.048175757518038e-05
-9.014726674649864e-05,-0.00016946974210441113,3.6105309845879674e-05,1.2338453416305128e-05,6.64227845845744e-05
-7.8049190051388e-05,-7.967338024172932e-05,2.0982350179110654e-05,4.8099507694132626e-05,6.336676597129554e-05
-4.190415711491369e-05,3.032113818335347e-05,7.4982945079682395e-06,3.726074646692723e-05,6.86609055264853e-05
-1.6636619193377555e-06,0.00012772712216246873,-6.936090358067304e-06,-3.7706220155087067e-06,7.27611331967637e-05
1.1585865649976768e-05,0.00025506666861474514,-1.5485067706322297e-05,-3.312290573376231e-05,7.386240758933127e-05
1.952908860403113e-06,0.0003870174987241626,-1.533118302177172e-05,-3.7695852370234206e-05,7.159893721109256e-05
-1.4837846720183734e-05,0.00043981653288938105,-2.099888206430478e-06,-3.681413727463223e-05,6.726021820213646e-05
-2.135375325451605e-05,0.0003444830363150686,1.6330304788425565e-05,-4.9847581976791844e-05,6.642656080657616e-05
-5.575712748395745e-06,0.00010555801418377087,2.0172647055005655e-05,-7.315149559872225e-05,6.448102794820443e-05
2.584133471827954e-05,-0.00014893921616021544,1.5067676031321753e-05,-8.304006769321859e-05,5.710205732611939e-05
4.8690435505704954e-05,-0.00027222896460443735,1.7713857232593e-05,-7.625381113030016e-05,4.904767411062494e-05
4.808085213880986e-05,-0.000230325385928154,2.5159804863505997e-05,-6.179783667903394e-05,4.874957085121423e-05
2.1824807845405303e-05,-0.00011952063505304977,1.9781547962338664e-05,-4.9543548811925575e-05,4.764695404446684e-05
-2.2565078324987553e-05,-3.2058407668955624e-05,-2.822343049047049e-06,-4.4333410187391564e-05,3.1489045795751736e-05
-6.0659054724965245e-05,1.3522761037165765e-05,-3.259741424699314e-05,-3.974633364123292e-05,1.1075671864091419e-05
-5.91988064115867e-05,3.753796772798523e-05,-5.05691823491361e-05,-2.7990283342660405e-05,1.3458688044920564e-05
-2.508040051907301e-05,1.6044314179453067e-05,-4.681437349063344e-05,-2.054501965176314e-05,4.0140388591680676e-05
1.0359661928305286e-06,-6.346029840642586e-05,-3.801342245424166e-05,-2.806560769386124e-05,7.676379755139351e-05
-5.352361768018454e-06,-0.00011772177094826475,-4.148724474362098e-05,-4.889420233666897e-05,0.00011642021854640916
-2.637391480675433e-05,-7.969653233885765e-05,-4.5473105274140835e-05,-7.142152026062831e-05,0.00014291491243056953
-4.07511142839212e-05,-1.5436302419402637e-05,-3.9022448618197814e-05,-8.121442078845575e-05,0.000137754061142914
-4.567160431179218e-05,-2.409602893749252e-05,-2.89633208012674e-05,-7.073661981849e-05,0.00011384570098016411
-4.15888789575547e-05,-8.437639917246997e-05,-1.755270204739645e-05,-5.469820098369382e-05,9.50537869357504e-05
-3.840460703941062e-05,-7.559188816230744e-05,-4.321399046602892e-06,-4.573824844555929e-05,8.533868822269142e-05
-4.1814546420937404e-05,1.036682260746602e-05,2.174070232285885e-06,-3.96442374039907e-05,8.237424481194466e-05
-3.0612038244726136e-05,8.173430251190439e-05,-1.3136788766132668e-05,-3.438284693402238e-05,8.48923809826374e-05
-8.048182280617766e-06,9.610060078557581e-05,-3.896559064742178e-05,-2.760613824648317e-05,9.004409366752952e-05
-1.5397972674691118e-06,7.788433867972344e-05,-4.094295218237676e-05,-2.4616711016278714e-05,8.774775051278993e-05
1.8825388679033495e-06,7.040588388917968e-05,-1.4710195500811096e-05,-1.9934326701331884e-05,6.723537080688402e-05
-3.851783105801587e-07,7.602833647979423e-05,1.635764419916086e-05,-1.4348861441249028e-05,3.505601853248663e-05
-2.1543453840422444e-05,7.060721691232175e-05,3.267440843046643e-05,-1.4628973985963967e-05,1.2597085515153594e-05
-4.736592381959781e-05,5.3510269935941324e-05,4.317112689022906e-05,-1.814977622416336e-05,1.8436930986354128e-05
-6.031147495377809e-05,5.836712443851866e-05,6.464006582973525e-05,-1.8209055269835517e-05,4.932591400574893e-05
-4.9138456233777106e-05,8.107571920845658e-05,8.42669905978255e-05,-2.091504393320065e-05,7.451338751707226e-05
-3.41066115652211e-05,8.947724563768134e-05,7.324096077354625e-05,-4.0179180359700695e-05,7.471186108887196e-05
-3.1529001716990024e-05,9.297455835621804e-05,3.1258528906619176e-05,-6.565466901520267e-05,6.38688143226318e-05
-4.080645157955587e-05,0.00010318940621800721,-1.1153307241329458e-05,-7.357143476838246e-05,6.365115405060351e-05
-5.9520571085158736e-05,8.372037700610235e-05,-3.822703365585767e-05,-5.465993672260083e-05,7.53512213123031e-05
-7.909335545264184e-05,7.634315261384472e-05,-5.229564703768119e-05,-2.601140658953227e-05,8.628840441815555e-05
-9.699775546323508e-05,0.00016479764599353075,-5.574493116000667e-05,-6.957998721190961e-06,8.036064537009224e-05
-0.00010916797327809036,0.0003004489408340305,-4.671480201068334e-05,-8.715765034139622e-07,5.750649870606139e-05
-9.579702600603923e-05,0.0003600110940169543,-2.6768608222482726e-05,-1.6459733842566493e-06,4.060290666529909e-05
-5.499526741914451e-05,0.0003250885056331754,-6.240357492970361e-07,-6.154571110528195e-06,4.4386797526385635e-05
-1.4517992894980125e-05,0.000256569153862074,1.601799340278376e-05,-9.448746823181864e-06,6.648278213106096e-05
9.478705578658264e-06,0.00020376582688186318,1.4987681424827315e-05,-5.7665870372147765e-06,9.330467582913116e-05
9.36821015784517e-06,0.00011544884910108522,9.878966920950916e-06,7.012081368884537e-07,9.795947698876262e-05
-1.330320355918957e-05,-0.00011908145097550005,6.125884738139575e-06,5.155981398274889e-06,6.95807539159432e-05
-3.076193752349354e-05,-0.0003986655210610479,-3.259007371525513e-06,1.2461890946724452e-05,3.697016654768959e-05
-4.460528725758195e-05,-0.0004970527370460331,-1.6120829968713224e-05,2.5664685381343588e-05,2.7435873562353663e-05
-7.928923150757328e-05,-0.00037248109583742917,-2.1710031433030963e-05,3.504302731016651e-05,3.104043935309164e-05
-9.08535803318955e-05,-0.00017455911438446492,-1.1255257959419396e-05,3.543203274603002e-05,2.993363159475848e-05
-5.168897769181058e-05,-8.129873458528891e-05,2.900693516494357e-06,3.314961213618517e-05,2.8383945391396992e-05
-1.580022944835946e-05,-4.8393922043032944e-05,2.069652509817388e-05,3.650013240985572e-05,3.852880035992712e-05
-1.5294786862796172e-05,-6.216328529262682e-06,3.746135553228669e-05,4.2003957787528634e-05,4.8996265832101926e-05
-1.8559012460173108e-05,8.820561561151408e-06,3.25990367855411e-05,4.0179769712267444e-05,5.013739792048e-05
7.006735359027516e-06,3.201558502041735e-05,2.1788582671433687e-05,2.752853288257029e-05,5.095104643260129e-05
4.7350371460197493e-05,8.07943579275161e-05,1.825707295211032e-05,-6.801994345551066e-07,4.9634702008916065e-05
6.290255259955302e-05,0.00010662339627742767,-1.9767994672292843e-06,-3.668128192657605e-05,4.445310332812369e-05
4.831624391954392e-05,5.585203689406626e-05,-4.867150346399285e-05,-6.11499126534909e-05,4.3289543100399897e-05
1.7670183297013864e-05,2.1859492335352115e-05,-7.91262136772275e-05,-6.714407209074125e-05,5.150366996531375e-05
-2.411045898043085e-05,7.420354813802987e-05,-6.133963324828073e-05,-6.31105576758273e-05,5.90602976444643e-05
-5.7180299336323515e-05,0.0001594415953150019,-1.325301309407223e-05,-5.6434648286085576e-05,6.077683065086603e-05
-6.504026532638818e-05,0.00016143833636306226,2.1922865926171653e-05,-5.459495878312737e-05,5.6716202379902825e-05
-6.331321492325515e-05,5.231394970905967e-05,3.1467694498132914e-05,-6.0026199207641184e-05,4.8998157581081614e-05
-7.070961873978376e-05,-3.349274265929125e-05,3.419133645365946e-05,-5.8960129535989836e-05,4.350940798758529e-05
-7.939223723951727e-05,9.957900147128385e-06,4.5451088226400316e-05,-3.482288957457058e-05,4.435247683431953e-05
-7.782808825140819e-05,0.00010902307985816151,5.7234014093410224e-05,6.113520612416323e-06,4.798547161044553e-05
-6.93413894623518e-05,0.0001471682044211775,5.182937820791267e-05,3.637168265413493e-05,4.8775131290312856e-05
-5.976002648822032e-05,0.0001276875555049628,2.6671648811316118e-05,4.441012424649671e-05,4.673953299061395e-05
-5.323078585206531e-05,9.529756789561361e-05,5.139564109413186e-06,4.091426671948284e-05,4.440623888513073e-05
-5.0139791710535064e-05,6.857455446152017e-05,7.16637987352442e-06,3.893896428053267e-05,4.7397417802130803e-05
-4.244183946866542e-05,3.669908983283676e-05,1.7172844309243374e-05,4.4520569645101205e-05,5.813572715851478e-05
-1.746157431625761e-05,9.644737701819395e-07,1.913358391902875e-05,4.936907862429507e-05,7.264080340974033e-05
1.9289582269266248e-05,-4.7260393330361694e-05,1.4399408428289462e-05,4.2696428863564506e-05,7.49406244722195e-05
5.744352893088944e-05,-0.00014399460633285344,1.0872458005906083e-05,2.8941818527528085e-05,6.507915531983599e-05
9.17092474992387e-05,-0.000297265563858673,5.409202003647806e-06,1.5481340597034432e-05,6.608424155274406e-05
8.597968553658575e-05,-0.0003845432656817138,-3.6927885957993567e-06,5.732374120270833e-06,7.865368388593197e-05
3.839022610918619e-05,-0.00029502558754757047,-6.40571954590996e-07,3.875843049172545e-06,8.205181075027213e-05
-4.46619969807216e-06,-0.00014740032202098519,2.0315606889198534e-05,1.140236508945236e-05,7.758316496619955e-05
-2.0748964743688703e-05,-0.00011819054634543136,3.4855056583182886e-05,1.3268319889903069e-05,6.98666408425197e-05
-3.149189433315769e-05,-0.00013659997784998268,2.8495440346887335e-05,4.6329696488101035e-06,5.281625999487005e-05
-4.992493995814584e-05,-8.255997090600431e-05,1.623986281629186e-05,-6.410592504835222e-06,3.491888855933212e-05
-5.379631693358533e-05,1.482605603086995e-05,1.1618379176070448e-05,-2.0358149413368665e-05,3.7487527151824906e-05
-2.87633065454429e-05,9.256597695639357e-05,8.653414624859579e-06,-4.438584073795937e-05,6.44262254354544e-05
3.9855258364696056e-06,0.00017139148258138448,1.1169092431373429e-05,-6.761553231626749e-05,8.718892786419019e-05
1.7343507352052256e-05,0.0002556795079726726,2.239723107777536e-05,-6.92338144290261e-05,8.41333603602834e-05
7.328904302994488e-06,0.0002792550949379802,2.6554214855423197e-05,-5.945726661593653e-05,6.34287134744227e-05
-7.822590305295307e-06,0.00020366345415823162,1.773513577063568e-05,-5.6247026805067435e-05,4.361868559499271e-05
-6.700522590108449e-06,0.00010376325371908024,7.805047971487511e-06,-4.765197081724182e-05,3.618461050791666e-05
6.592104455194203e-06,7.685994205530733e-05,7.670882951060776e-06,-1.667632386670448e-05,3.790052869589999e-05
1.1750385056075174e-05,9.612946450943127e-05,1.0663132343324833e-05,1.7087033484131098e-05,3.616826143115759e-05
-4.1476814658381045e-06,0.00010741016012616456,1.193317166325869e-05,2.5508630642434582e-05,2.365334876230918e-05
-3.1274841603590176e-05,0.00011692562839016318,1.2533114386314992e-05,9.300430065195542e-06,8.197897841455415e-06
-4.544060357147828e-05,0.00016024155775085092,1.1119858754682355e-05,3.2359585020458326e-06,7.306456609512679e-06
-4.0256873035104945e-05,0.00020403547387104481,1.2833218534069601e-05,3.243707033107057e-05,2.741802563832607e-05
-4.048057598993182e-05,0.00018507782078813761,2.0253637558198534e-05,7.424913928844035e-05,5.593383320956491e-05
-5.948714533587918e-05,0.00011572964285733178,2.05870128411334e-05,8.99301958270371e-05,7.547425775555894e-05
-6.42182567389682e-05,7.155585626605898e-05,6.835731710452819e-06,7.66385710448958e-05,8.016311039682478e-05
-2.581341686891392e-05,4.636262747226283e-05,-6.573996870429255e-06,5.417481224867515e-05,7.877591997385025e-05
2.374640644120518e-05,2.5175686459988356e-05,2.830500989148277e-07,3.533504786901176e-05,8.910130418371409e-05
4.1031442378880456e-05,5.25245968674426e-06,1.1849880138470326e-05,1.8954940969706513e-05,0.00011118895781692117
1.2457512639230117e-05,-5.9181176766287535e-05,6.601750556001207e-06,-1.982215962925693e-06,0.00011834731412818655
-4.696341056842357e-05,-7.360814925050363e-05,7.2930220085254405e-06,-2.047335510724224e-05,9.559226600686088e-05
-0.00010660224506864324,6.93952024448663e-05,2.244235474790912e-05,-2.953136026917491e-05,6.332046905299649e-05
-0.00014161122089717537,0.00023363214859273285,3.276469578850083e-05,-2.4424083676422015e-05,5.11985199409537e-05
-0.00014497298980131745,0.0002479859977029264,2.1688429114874452e-05,-1.6848623999976553e-05,5.20587018399965e-05
-0.0001291279768338427,0.00015680147043894976,9.831176157604204e-07,-2.2265267034526914e-05,4.374086711322889e-05
-0.00010587196447886527,3.095831198152155e-05,-1.746874477248639e-05,-3.147016832372174e-05,3.065120108658448e-05
-8.925035217544064e-05,-5.663854972226545e-05,-3.273432230344042e-05,-3.36437915393617e-05,2.498840149200987e-05
-7.661990821361542e-05,-8.727445674594492e-05,-3.8176287489477545e-05,-4.062550578964874e-05,3.395539533812553e-05
-4.843343413085677e-05,-0.00015050308138597757,-3.097303488175385e-05,-6.637180194957182e-05,5.651788160321303e-05
-1.799030178517569e-05,-0.00022067627287469804,-2.1319669031072408e-05,-8.911338954931125e-05,7.041542266961187e-05
-1.956444793904666e-05,-0.0002154520625481382,-2.850749297067523e-05,-9.061422315426171e-05,6.174065492814407e-05
-4.232612263876945e-05,-0.00011204143811482936,-4.245600939611904e-05,-7.272006041603163e-05,4.5113058149581775e-05
