2.1006480892538093e-05,8.245153003372252e-05,-1.0509740604902618e-05,-1.1413999345677439e-05,6.297781510511413e-05
1.6157770005520433e-05,-4.894706580671482e-05,8.779229005995148e-07,7.314567369576253e-07,5.976799002382904e-05
2.2721624191035517e-06,-0.00024728363496251404,1.1663842087727971e-05,4.465205620363122e-06,6.170261622173712e-05
-2.692962198125315e-06,-0.00037921874900348485,1.6579966541030444e-05,5.74150362808723e-07,6.635554746026173e-05
-2.5385047592862975e-06,-0.0003400194109417498,1.7625579857849516e-05,-4.295523922337452e-06,7.027984247542918e-05
9.963970114768017e-06,-0.0002031594340223819,2.0640443835873157e-05,-2.9390228064585244e-06,7.080947398208082e-05
2.4220225895987824e-05,-7.717026892350987e-05,2.520885391277261e-05,-2.2104866275185486e-06,7.085022662067786e-05
2.670075264177285e-05,-4.581736902764533e-06,2.8297534299781546e-05,-7.849871508369688e-06,7.124415424186736e-05
1.7984924852498807e-05,4.311262091505341e-05,3.3731648727552965e-05,-1.1178517524967901e-05,7.19536910764873e-05
7.124980584194418e-06,8.868045551935211e-05,3.531076436047442e-05,-8.081608939392027e-06,7.36988804419525e-05
-6.5491303757880814e-06,0.00011579227430047467,2.8548236514325254e-05,-3.9367250792565756e-06,7.567849388578907e-05
-3.804757579928264e-05,0.00011425153206801042,2.043932727247011e-05,-4.620588242687518e-06,7.173485209932551e-05
-9.104147466132417e-05,9.670024155639112e-05,1.1386873666197062e-05,-1.0508968443900812e-05,6.308400770649314e-05
-0.00014575861860066652,8.145962056005374e-05,3.1119225241127424e-06,-1.6210213289014064e-05,5.770157076767646e-05
-0.00017549467156641185,7.107259443728253e-05,-1.768871356944146e-06,-1.5032002920634113e-05,5.6711709476076066e-05
-0.00018000892305281013,6.111326365498826e-05,-3.077736664636177e-06,-9.741880603542086e-06,5.700725523638539e-05
-0.00016939445049501956,4.482561780605465e-05,-4.0001373236009385e-06,-6.862985628686147e-06,5.549860361497849e-05
-0.00015256361803039908,3.258001015638001e-05,-7.508260296162916e-06,-9.799650797504e-06,5.0553877372294664e-05
-0.0001264229795197025,3.8733338442398235e-05,-9.38117864279775e-06,-1.2753147530020215e-05,4.6333738282555714e-05
-7.867484964663163e-05,6.211610889295116e-05,-5.858774784428533e-06,-1.2502126082836185e-05,4.551645179162733e-05
-7.041701906018716e-07,8.700689795659855e-05,-7.447875418620242e-07,-1.3155264241504483e-05,4.637108213501051e-05
9.163816866930574e-05,0.00010086972179124132,1.6870505987753859e-06,-1.7663898688624613e-05,4.835509753320366e-05
0.00016126857372000813,0.00010313356324331835,4.7197781327668054e-07,-2.0332408894319087e-05,5.061010233475827e-05
0.00017389869026374072,9.553575364407152e-05,-3.8124530874483753e-06,-2.085597770928871e-05,5.2494360716082156e-05
0.00013115265755914152,7.901703065726906e-05,-6.7110572672390845e-06,-1.9605909983511083e-05,5.243519990472123e-05
7.767546776449308e-05,6.51333321002312e-05,-7.6099750003777444e-06,-1.5522520698141307e-05,5.404587500379421e-05
4.623394852387719e-05,6.82579557178542e-05,-6.563106126122875e-06,-1.5999907191144302e-05,5.59153595531825e-05
2.837824467860628e-05,8.946740126702935e-05,-5.652132131217513e-06,-1.7976146409637295e-05,5.3847161325393245e-05
2.0086295990040526e-05,9.24092746572569e-05,-5.47088075109059e-06,-1.515401618235046e-05,5.6632728956174105e-05
1.3466285054164473e-05,6.942123582120985e-05,-2.9121579245838802e-06,-1.3485504496202338e-05,6.29781061434187e-05
-3.922369614883792e-06,4.877559331362136e-05,-2.855405227819574e-06,-1.3228564966993872e-05,6.450708315242082e-05
-2.5183728212141432e-05,3.031176129297819e-05,-3.917677986464696e-06,-1.3497256077243946e-05,6.042356471880339e-05
-4.030257332487963e-05,1.6130336007336155e-05,1.2248112852830673e-06,-1.6001171388779767e-05,5.662839248543605e-05
-4.501153307501227e-05,1.0088363524118904e-05,8.227128091675695e-06,-1.53268629219383e-05,5.792091178591363e-05
-4.504439857555553e-05,7.671837920497637e-06,1.3602854778582696e-05,-1.0162273611058481e-05,5.970802885713056e-05
-4.6996738092275336e-05,3.4084853268723236e-06,1.6186662833206356e-05,-7.0963087637210265e-06,6.027035487932153e-05
-5.04438576172106e-05,5.384846190281678e-06,1.8135793652618304e-05,-5.832332590216538e-06,6.084185588406399e-05
-5.21626316185575e-05,1.1778990483435337e-05,1.8846199964173138e-05,-5.814982614538167e-06,6.091071554692462e-05
-5.384083488024771e-05,1.607386366231367e-05,1.566142418596428e-05,-7.541546892753104e-06,5.871657413081266e-05
-5.526646418729797e-05,1.7185611795866862e-05,1.2289795449760277e-05,-7.472582638001768e-06,5.620182491838932e-05
-5.809565482195467e-05,2.2178166545927525e-05,1.2746987522405107e-05,-5.645531928166747e-06,5.621067248284817e-05
-6.085698623792268e-05,2.824448347382713e-05,1.4840345102129504e-05,-3.3665032788121607e-06,5.600580698228441e-05
-6.211534491740167e-05,2.8580674552358687e-05,1.2752474503940903e-05,-4.090570655534975e-06,5.5747990700183436e-05
-6.163803482195362e-05,2.477636735420674e-05,6.012389803800033e-06,-5.13289705850184e-06,5.699485700461082e-05
-5.909544415771961e-05,1.993265323108062e-05,6.7631270894708e-07,-3.0095563943177694e-06,5.862947364221327e-05
-5.456310827867128e-05,1.746525231283158e-05,2.9172621651696318e-08,5.176706281417864e-07,6.1229475250002e-05
-5.3060506616020575e-05,1.8369608369539492e-05,2.3917516500659985e-06,9.577921673553647e-07,6.423511513276026e-05
-5.6500757636968046e-05,2.1612389900838025e-05,7.214014658529777e-06,-1.1592243254199275e-06,6.49735375191085e-05
-5.4508636821992695e-05,2.410158049315214e-05,1.0397840014775284e-05,-4.241993337927852e-06,6.11621217103675e-05
-4.5064083678880706e-05,2.2865331629873253e-05,9.93982030195184e-06,-5.196408892516047e-06,5.364606113289483e-05
-3.644249591161497e-05,1.6188036170206033e-05,7.190997166617308e-06,-5.3203748393571004e-06,4.884257214143872e-05
-3.2509793527424335e-05,1.6231704648816958e-05,3.852471309073735e-06,-8.54416339279851e-06,4.9224679969483986e-05
-3.4192969906143844e-05,2.990362190757878e-05,3.6787698718399042e-06,-1.2195079762022942e-05,5.2649585995823145e-05
-4.2401607061037794e-05,4.3579551856964827e-05,5.579824119195109e-06,-1.323875221714843e-05,5.649697413900867e-05
-5.0668520998442546e-05,4.115572664886713e-05,3.5141888474754523e-06,-1.3254745681479108e-05,5.8080346207134426e-05
-4.8853300540940836e-05,2.5168679712805897e-05,-1.567161973525799e-07,-1.6891763152671047e-05,5.890458851354197e-05
-4.765461562783457e-05,1.749117291183211e-05,-9.041584121405322e-07,-1.8586224541650154e-05,6.052327444194816e-05
-5.145045724930242e-05,2.5043627829290926e-05,-2.0581319404300302e-06,-1.6755526303313673e-05,5.905717989662662e-05
-4.982975224265829e-05,2.755799869191833e-05,-2.4568812477809843e-06,-1.4941105291654821e-05,5.836569471284747e-05
-4.7172543418128043e-05,2.7342050088918768e-05,-6.152470746201288e-07,-1.5474555766559206e-05,6.276335625443608e-05
-3.746045331354253e-05,3.9530827052658424e-05,-3.62324755087684e-07,-1.6788790162536316e-05,6.741016841260716e-05
-1.8281540178577416e-05,5.1395356422290206e-05,-2.905599785663071e-06,-1.6428133676527068e-05,6.769772880943492e-05
-3.0652672649011947e-06,3.926858335034922e-05,-2.911302090069512e-06,-1.8161535990657285e-05,6.333654891932383e-05
-3.003602387252613e-06,1.567874824104365e-05,2.944149855466094e-06,-2.205039891123306e-05,6.0625279729720205e-05
-1.0993713658535853e-05,7.82351776251744e-07,7.776004167681094e-06,-2.5378501959494315e-05,6.026636401657015e-05
-1.3741558177571278e-05,-2.7213452540308936e-06,6.126501375547377e-06,-2.4436800231342204e-05,6.094208583817817e-05
-8.435395102424081e-06,-1.649166620154574e-06,1.7454495946367388e-06,-2.10559373954311e-05,6.03309235884808e-05
1.2502349591159145e-06,1.308967398472305e-06,5.729374379370711e-07,-1.78030149982078e-05,5.950318154646084e-05
4.663575055019464e-06,6.340466825349722e-06,1.276060146437885e-07,-1.6944924936979078e-05,5.9141624660696834e-05
-6.7135083554603625e-06,9.450910511077382e-06,-6.007541742292233e-06,-2.0525823856587522e-05,5.546220563701354e-05
-2.5055061996681616e-05,9.321783181803767e-06,-1.607089325261768e-05,-2.4240222046501003e-05,5.2423583838390186e-05
-3.352724525029771e-05,6.021817625878612e-06,-2.326985850231722e-05,-2.3998507458600216e-05,5.489397153723985e-05
-2.3238819267135113e-05,6.505697911052266e-06,-2.3677530407439917e-05,-2.2885524231242016e-05,5.85647503612563e-05
-2.9257707865326665e-06,1.6529551430721767e-05,-1.877741851785686e-05,-2.2437390725826845e-05,5.790901559521444e-05
8.947577043727506e-06,3.0347777283168398e-05,-1.1793731573561672e-05,-2.0943080016877502e-05,5.695540676242672e-05
4.44490569861955e-06,3.645351534942165e-05,-4.823637482331833e-06,-1.7373638911521994e-05,6.043214307283051e-05
-5.647375928674592e-06,3.666094926302321e-05,5.24676579516381e-07,-1.241215068148449e-05,6.474665133282542e-05
-1.2432794392225333e-05,3.630637365859002e-05,4.210257884551538e-06,-1.1201353117940016e-05,6.371396011672914e-05
-1.6193203919101506e-05,3.684139301185496e-05,1.078563855116954e-05,-1.2191961104690563e-05,6.117946759331971e-05
-1.386524127156008e-05,3.3026703022187576e-05,2.1530915546463802e-05,-1.1041770449082833e-05,6.13080701441504e-05
-1.0554518667049706e-05,2.3121305275708437e-05,2.8308983019087464e-05,-7.056549748085672e-06,6.091524483053945e-05
-1.344238353340188e-05,1.559134580020327e-05,3.1595460313837975e-05,-6.133162514743162e-06,5.890879037906416e-05
-2.6541127226664685e-05,1.4205642401066143e-05,3.269795706728473e-05,-9.904597391141579e-06,6.0820759244961664e-05
-3.9804133848519996e-05,1.5923113096505404e-05,3.4018328733509406e-05,-1.4406966329261195e-05,6.504295743070543e-05
-4.391335096443072e-05,2.0035620764247142e-05,3.439051943132654e-05,-1.4334686966321897e-05,6.833134830230847e-05
-3.869277497869916e-05,2.5646328140283003e-05,3.063837721128948e-05,-1.0983080755977426e-05,7.359842129517347e-05
-3.03300803352613e-05,2.9896811611251906e-05,2.443502853566315e-05,-8.06748266768409e-06,7.603387348353863e-05
-2.7592044716584496e-05,3.205892426194623e-05,1.62910273502348e-05,-5.9147077990928665e-06,7.140795059967786e-05
-3.183265289408155e-05,3.3505359169794247e-05,1.2303076800890267e-05,-7.308441126951948e-06,6.327074515866116e-05
-3.378366454853676e-05,3.3870572224259377e-05,1.3786034287477378e-05,-7.891972927609459e-06,5.661513569066301e-05
-2.677445809240453e-05,3.606509562814608e-05,1.6414784113294445e-05,-6.520256647490896e-06,5.197408245294355e-05
-2.373536153754685e-05,3.819889752776362e-05,1.5585577784804627e-05,-5.146775038156193e-06,5.338191112969071e-05
-2.8436872526071966e-05,3.825727981165983e-05,1.4293897947936784e-05,-4.174292371317279e-06,5.964183947071433e-05
-3.345041841384955e-05,3.616290268837474e-05,1.2141215847805142e-05,-4.175682988716289e-06,6.208056584000587e-05
-3.329741593915969e-05,3.573984213289805e-05,8.466113285976462e-06,-4.098389581486117e-06,6.013801248627715e-05
-3.198715785401873e-05,4.087840352440253e-05,5.533616331376834e-06,-2.4087137262540637e-06,5.769849303760566e-05
-3.487067442620173e-05,4.6841789298923686e-05,6.3278803281718865e-06,-2.5583520368854806e-07,5.7288500102004036e-05
-4.530667865765281e-05,4.478924529394135e-05,8.873085789673496e-06,1.4301090232038405e-06,5.753467485192232e-05
-5.603180034086108e-05,3.4179498470621184e-05,8.261025868705474e-06,2.558309006417403e-06,5.620560114039108e-05
-5.4605381592409685e-05,2.674582901818212e-05,6.315823611657834e-06,2.6069278646900784e-06,5.481265179696493e-05
-4.243550210958347e-05,2.7337446226738393e-05,3.455067599134054e-06,1.9544866063370137e-06,5.461039108922705e-05
-3.323674536659382e-05,3.0392498956643976e-05,-8.219858926850065e-08,3.105212954324088e-06,5.3057243349030614e-05
-3.2813488360261545e-05,2.9727058063144796e-05,-3.839434157271171e-06,7.343213837884832e-06,5.229637463344261e-05
-3.4837055864045396e-05,2.652957664395217e-05,-1.0757974450825714e-05,1.2166611668362748e-05,5.647740908898413e-05
-3.8706421037204564e-05,2.2590409571421333e-05,-1.6872108972165734e-05,1.2443735613487661e-05,6.07792753726244e-05
-4.155723945586942e-05,2.530202800699044e-05,-1.7591917639947496e-05,5.587367468251614e-06,5.718833926948719e-05
-3.881934389937669e-05,3.322782868053764e-05,-1.6325453543686308e-05,-3.687062189783319e-06,4.961289596394636e-05
-3.4673565096454695e-05,3.886319973389618e-05,-1.1565743989194743e-05,-5.874423095519887e-06,4.631570482160896e-05
-3.1914751161821187e-05,3.789685797528364e-05,-1.1865006399602862e-06,1.079576691154216e-06,4.690675632446073e-05
-2.903584208979737e-05,3.314138302812353e-05,4.322639142628759e-06,4.130530214752071e-06,4.928988346364349e-05
-3.175284655299038e-05,3.469882358331233e-05,3.6423584788281005e-06,2.7879457320523215e-06,5.5498887377325445e-05
-3.5274246329208836e-05,3.402324364287779e-05,8.678799531480763e-06,7.804884262441192e-06,6.49217763566412e-05
-3.6496188840828836e-05,2.886500624299515e-05,1.8336311768507585e-05,1.3431361367111094e-05,6.973571726121008e-05
-3.3112813980551437e-05,2.804118048516102e-05,2.6283658371539786e-05,1.0475821909494698e-05,6.58218705211766e-05
-2.4864310034899972e-05,3.116871084785089e-05,2.676488657016307e-05,1.6356387959604035e-06,5.886672079213895e-05
-2.2393489416572265e-05,3.576431845431216e-05,2.1192548956605606e-05,-8.917439117794856e-06,5.634130138787441e-05
-2.2987051124800928e-05,3.792856659856625e-05,1.286525366595015e-05,-1.5267312846845016e-05,5.8951023675035685e-05
-2.272583697049413e-05,4.017943501821719e-05,9.848098670772742e-06,-1.7162856238428503e-05,6.202821532497182e-05
-2.5052264390978962e-05,4.0475206333212554e-05,8.693842573848087e-06,-1.8034987078863196e-05,6.295688945101574e-05
-2.6421077564009465e-05,3.385426680324599e-05,3.866341103275772e-06,-1.8107251889887266e-05,6.206950638443232e-05
-2.176169800804928e-05,2.693254100449849e-05,-7.627671152476978e-07,-1.7486258002463728e-05,6.206916441442445e-05
-1.5143260498007294e-05,2.425016646157019e-05,-2.2155786609801e-06,-1.7395635950379074e-05,6.3679413869977e-05
-8.72321288625244e-06,2.377870805503335e-05,-1.4483590575764538e-06,-1.8368173186900094e-05,6.255361950024962e-05
-3.951076905650552e-06,2.543306618463248e-05,1.4610481002819142e-06,-2.023524029937107e-05,5.710458572139032e-05
-3.561478251867811e-06,2.873886660381686e-05,5.9789808801724575e-06,-2.118970405717846e-05,5.2403509471332654e-05
-5.205085926718311e-06,3.3811054890975356e-05,9.417875844519585e-06,-1.692940350039862e-05,5.3278537961887196e-05
-7.2859243118728045e-06,4.282897862140089e-05,1.2153437637607567e-05,-9.068303370440844e-06,5.936099842074327e-05
-1.1288523637631442e-05,5.247040462563746e-05,1.1219350199098699e-05,-3.8992757254163735e-06,6.384600419551134e-05
-1.6139651052071713e-05,5.433538535726257e-05,6.563023816852365e-06,-6.407194177882047e-06,6.411441427189857e-05
-1.5689758583903313e-05,4.762763637700118e-05,4.532423929504148e-07,-1.0978120371873956e-05,6.476041016867384e-05
-1.1956048183492385e-05,3.506882057990879e-05,-2.3171860448201187e-06,-1.396486914018169e-05,6.72917885822244e-05
-1.570450513099786e-05,2.4096858396660537e-05,6.261033718146791e-07,-1.7145102901849896e-05,6.858444976387545e-05
-2.463106284267269e-05,1.9240020264987834e-05,6.185243819345487e-06,-2.236871478089597e-05,7.005226507317275e-05
-3.090106838499196e-05,1.6311669241986237e-05,6.800686605856754e-06,-2.729947846091818e-05,7.258694677148014e-05
-3.586075035855174e-05,1.0320540241082199e-05,5.707526725018397e-06,-2.9604007067973725e-05,6.933234544703737e-05
-3.601661592256278e-05,2.020999545493396e-06,8.862146387400571e-06,-3.0387174774659798e-05,6.435535033233464e-05
-3.7708487070631236e-05,1.6519819610039121e-06,1.0685485904105008e-05,-2.7587160730035976e-05,6.226205005077645e-05
-4.7223729779943824e-05,7.901428944023792e-06,1.013796281768009e-05,-2.4829319954733364e-05,6.230510189197958e-05
-5.30073230038397e-05,1.3352206224226393e-05,1.2667956980294548e-05,-2.4182618290069513e-05,6.100250539020635e-05
-5.0812486733775586e-05,1.4922969057806768e-05,1.3166680219001137e-05,-2.4677025066921487e-05,5.697611777577549e-05
-4.5816628698958084e-05,1.7209578800247982e-05,7.4035488069057465e-06,-2.184959885198623e-05,5.1483308197930455e-05
-3.8318215956678614e-05,2.148680141544901e-05,-2.849541260729893e-06,-1.921658986248076e-05,4.642477142624557e-05
-3.153885336359963e-05,2.4197026505135e-05,-6.111269158282084e-06,-1.8512266251491383e-05,4.555430859909393e-05
-3.2589439797447994e-05,2.508048783056438e-05,2.1903812807977374e-07,-1.752824209688697e-05,4.7474459279328585e-05
-4.10348511650227e-05,2.438796582282521e-05,6.925760771991918e-06,-1.8967737560160458e-05,5.225005224929191e-05
-4.9037411372410133e-05,2.3455007976735942e-05,7.126303444238147e-06,-1.7360282072331756e-05,5.535921445698477e-05
-3.962222035625018e-05,2.1794061467517167e-05,3.6970786823076196e-06,-1.391396472172346e-05,5.447510557132773e-05
-1.6598223737673834e-05,2.029478673648555e-05,1.8004467392529477e-06,-1.0758609278127551e-05,5.2437972044572234e-05
-3.220122152924887e-06,1.8514418115955777e-05,-1.1672236723825336e-06,-9.869198038359173e-06,5.0145434215664864e-05
-1.1168315722898114e-05,1.5918112694635056e-05,-4.685683052230161e-06,-1.0942262633761857e-05,4.719363641925156e-05
-3.0050989153096452e-05,1.6630954633001238e-05,-5.675060037901858e-06,-1.1479486602183897e-05,4.4498516217572615e-05
-4.718089985544793e-05,1.9980318029411137e-05,-4.356561021268135e-06,-9.713045983517077e-06,4.365315908216871e-05
-5.3253632358973846e-05,2.2858550437376834e-05,-6.502241376438178e-06,-6.726781066390686e-06,4.3949381506536156e-05
-4.137177893426269e-05,2.8115407985751517e-05,-1.4489852219412569e-05,-5.305199465510668e-06,4.441915370989591e-05
-2.100404708471615e-05,3.6443627323023975e-05,-2.5507366444799118e-05,-3.936267148674233e-06,4.430136323207989e-05
-9.087768376048189e-06,3.8328471418935806e-05,-3.0395909561775625e-05,-3.1637673600926064e-06,4.537916902336292e-05
-6.390043381543364e-06,3.005682629009243e-05,-2.742243123066146e-05,-6.343334462144412e-06,4.7645706217736006e-05
3.0928038086130982e-06,1.9540757421054877e-05,-2.2941343559068628e-05,-1.1071677363361232e-05,4.939674909110181e-05
1.5565443391096778e-05,1.5414734662044793e-05,-1.6781823433120735e-05,-1.3512946679838933e-05,5.056468216935173e-05
1.4493258277070709e-05,2.4243325242423452e-05,-5.513200903806137e-06,-1.3309017049323302e-05,5.1860868552466854e-05
6.926366040715948e-06,3.324356293887831e-05,5.484515440912219e-06,-1.320223236689344e-05,5.200769373914227e-05
2.478613396306173e-06,3.4480563044780865e-05,1.9000388419954106e-05,-1.7366097381454892e-05,4.956354314344935e-05
-7.570011348434491e-06,3.522670886013657e-05,3.264238694100641e-05,-2.2172802346176468e-05,4.973490285919979e-05
-2.049403337878175e-05,3.361418202985078e-05,3.6786161217605695e-05,-1.9999812138848938e-05,5.081485869595781e-05
-2.2469914256362244e-05,3.1917054002406076e-05,3.47794484696351e-05,-1.586754478921648e-05,4.7370482207043096e-05
-1.6677438907208852e-05,3.401282447157428e-05,2.9137143428670242e-05,-9.81534321908839e-06,4.5080432755639777e-05
-1.4206792002369184e-05,3.671365266200155e-05,2.6502208129386418e-05,-2.6868215172726195e-06,4.7285837354138494e-05
-2.1411118723335676e-05,3.452902819844894e-05,2.6499355954001658e-05,-4.368156169221038e-06,5.07462173118256e-05
-3.2627267501084134e-05,2.7738908102037385e-05,2.352449155296199e-05,-9.310942004958633e-06,5.294143920764327e-05
-3.5408418625593185e-05,2.3199536371976137e-05,2.0512694391072728e-05,-1.3682108146895189e-05,5.3802265028934926e-05
-3.259722507209517e-05,2.5165247279801406e-05,2.0377448890940286e-05,-1.3918867807660718e-05,5.630314626614563e-05
-2.7441172278486192e-05,2.9341457775444724e-05,1.938982677529566e-05,-1.2271066225366667e-05,5.959736154181883e-05
-2.696672709134873e-05,3.0105496989563107e-05,1.484458061895566e-05,-9.897678864945192e-06,5.984528979752213e-05
-3.3382111723767594e-05,2.890421455958858e-05,1.3676164599019103e-05,-7.707131771894637e-06,5.786340989288874e-05
-3.911813109880313e-05,2.6683826945372857e-05,1.4409775758394971e-05,-5.0893318075395655e-06,5.5925618653418496e-05
-3.725758506334387e-05,2.6591860660118982e-05,1.0129211659659632e-05,-3.5156867852492724e-06,5.609909203485586e-05
-3.102356640738435e-05,2.934474468929693e-05,3.100527237620554e-06,-4.9298159865429625e-06,5.6833585404092446e-05
-2.4801956897135824e-05,3.114126593573019e-05,1.434936734767689e-06,-7.559153345937375e-06,5.6101198424585164e-05
-1.9771268853219226e-05,2.9673403332708403e-05,2.5311037461506203e-06,-8.46847160573816e-06,5.6726610637269914e-05
-1.779384729161393e-05,2.7049043637816794e-05,4.6790518126726965e-07,-8.720735422684811e-06,5.8144203649135306e-05
-1.9730510757653974e-05,2.3743566998746246e-05,-5.1550791795307305e-06,-1.1572887160582468e-05,5.852258618688211e-05
-2.2210819224710576e-05,1.5931258531054482e-05,-8.953031283454038e-06,-1.2520234122348484e-05,5.965330274193548e-05
-2.056053745036479e-05,1.0920253856738782e-07,-5.962906016065972e-06,-1.1353644367773086e-05,6.304030102910474e-05
-2.0876366761513054e-05,-1.856081871665083e-05,-1.2567249996209284e-06,-1.0755496987258084e-05,6.565947114722803e-05
-2.4626169761177152e-05,-3.12854208459612e-05,-1.1559789072634885e-06,-8.977849574876018e-06,6.394129013642669e-05
-2.7846732336911373e-05,-3.2489206205355003e-05,-2.8210627078806283e-06,-5.519561909750337e-06,6.177626346470788e-05
-3.2183972507482395e-05,-1.8948943761643022e-05,7.112243451956601e-07,-2.21522736865154e-06,6.352610944304615e-05
-3.782033672905527e-05,4.2829492485907394e-06,5.749292995460564e-06,3.4589752431202214e-06,6.402895814971998e-05
-4.2707713873824105e-05,2.6262603569193743e-05,9.42164388106903e-06,5.139551376487361e-06,5.9829242673004046e-05
-4.266564064892009e-05,4.52618369308766e-05,1.3439853319141548e-05,1.2146457493145135e-06,5.53358877368737e-05
-3.94345261156559e-05,6.86525454511866e-05,1.1004781299561728e-05,-2.2768263079342432e-06,5.34327955392655e-05
-3.930722959921695e-05,9.536518336972222e-05,5.157265604793793e-06,-4.965432253811741e-06,5.391988452174701e-05
-3.818335244432092e-05,0.00012044814502587542,1.1308140983601334e-06,-8.888396223483142e-06,5.436297215055674e-05
-3.7176618207013234e-05,0.00013614923227578402,-1.9042887515752227e-06,-9.437816515855957e-06,5.5096123105613515e-05
-3.3787364372983575e-05,0.00013041036436334252,-1.825783044751006e-07,-7.9515011748299e-06,5.736386447097175e-05
-3.0121562303975224e-05,0.0001093966347980313,-9.860318641585764e-07,-8.851231541484594e-06,6.086593202780932e-05
-2.531555583118461e-05,8.457092917524278e-05,-4.809056463273009e-06,-1.5056435586302541e-05,6.311736797215417e-05
-1.7861842934507877e-05,5.6437751482008025e-05,-8.915199941839091e-06,-2.2500180421047844e-05,6.257434870349243e-05
-5.984966719552176e-06,3.755068246391602e-05,-1.2986287401872687e-05,-2.870840035029687e-05,6.0567501350305974e-05
6.6510215219750535e-06,2.7076541300630197e-05,-1.772294308466371e-05,-3.100421599810943e-05,5.662261173711158e-05
1.5650017303414643e-05,2.2007752704666927e-05,-2.1250712961773388e-05,-2.4952672902145423e-05,5.365217293729074e-05
2.5191731765517034e-05,2.667844273673836e-05,-2.1462978111230768e-05,-1.469277140131453e-05,5.513827272807248e-05
3.3067084586946294e-05,3.785661101574078e-05,-1.937478555191774e-05,-9.31267459236551e-06,5.769762356067076e-05
2.9709060981986113e-05,4.603726483765058e-05,-1.4798572919971775e-05,-1.0886893505812623e-05,5.586683619185351e-05
1.5178729881881736e-05,4.435596929397434e-05,-9.171025340037886e-06,-1.2970055649930146e-05,5.2147624955978245e-05
2.170802417822415e-06,3.331528932903893e-05,-4.318709670769749e-06,-1.3554083125200123e-05,5.252113987808116e-05
-5.351755589799723e-06,2.0752811906277202e-05,9.503158935331157e-07,-1.2547991900646593e-05,5.73816905671265e-05
-8.999809324450325e-06,1.6462476196466014e-05,1.0314141945855226e-05,-1.330200393567793e-05,6.210659194039181e-05
-1.1073303539888002e-05,1.7764859876479022e-05,2.1139496311661787e-05,-1.493454328738153e-05,6.247404962778091e-05
-1.0479297998244874e-05,1.9909868569811806e-05,2.8007309083477594e-05,-1.564477861393243e-05,6.169867992866784e-05
-8.34894035506295e-06,1.9646540749818087e-05,2.8403695978340693e-05,-1.4438975995290093e-05,6.414683593902737e-05
-8.254710337496363e-06,1.990368946280796e-05,2.434264933981467e-05,-1.1010334674210753e-05,6.66210544295609e-05
-1.593447450431995e-05,2.1450594431371428e-05,1.9893030184903182e-05,-7.43131386116147e-06,6.575044244527817e-05
-2.7027117539546452e-05,2.3849228455219418e-05,2.1432171706692316e-05,-9.141429472947493e-06,6.222843512659892e-05
-3.286475839558989e-05,2.6365360099589452e-05,2.7242102078162134e-05,-1.600317955308128e-05,6.032828241586685e-05
-3.729521995410323e-05,2.6036417693831027e-05,2.6210129362880252e-05,-1.9324188542668708e-05,6.394100637407973e-05
-4.2494921217439696e-05,1.678171247476712e-05,2.090354792017024e-05,-1.3809039046464022e-05,6.890956137795001e-05
-4.7734145482536405e-05,1.2377647180983331e-05,2.0177038095425814e-05,-8.056653314270079e-06,6.936391582712531e-05
-4.844885552302003e-05,1.4032862054591533e-05,1.8547867512097582e-05,-6.037670118530514e-06,6.658238271484151e-05
-4.352249015937559e-05,1.1127493053209037e-05,1.5361172700067982e-05,-4.553646249405574e-06,6.44413084955886e-05
-4.128734872210771e-05,1.0288937119184993e-05,1.537866955914069e-05,-5.573320322582731e-06,6.479975854745135e-05
-4.509792779572308e-05,9.72636007645633e-06,1.9003024135599844e-05,-7.129661298677092e-06,6.501931056845933e-05
-5.2214123570593074e-05,1.3396856047620531e-05,1.9643452105810866e-05,-6.687074801448034e-06,6.354226934490725e-05
-5.1266426453366876e-05,1.641943890717812e-05,1.658097426116001e-05,-5.273390797810862e-06,6.204944656929001e-05
-4.786108183907345e-05,1.6274223526124842e-05,1.644027724978514e-05,-5.050955678598257e-06,6.296152423601598e-05
-4.685196836362593e-05,1.7119395124609582e-05,1.6816113202366978e-05,-3.910911345883505e-06,6.583580398000777e-05
-4.95125241286587e-05,1.6008327293093316e-05,1.2750878340739291e-05,-1.0933744079011376e-06,6.746724102413282e-05
-5.6444569054292515e-05,1.160780720965704e-05,9.299694283981808e-06,6.273621124819329e-07,6.890259828651324e-05
-6.29649730399251e-05,9.876666808850132e-06,1.2168605280749034e-05,1.3998974282003473e-06,7.120762893464416e-05
-5.987471740809269e-05,1.0884125003940426e-05,1.6294725355692208e-05,1.3022557823205716e-06,7.545217522419989e-05
-3.9703601942164823e-05,1.2325664101808798e-05,1.665460513322614e-05,6.775703695893753e-07,7.84431686042808e-05
-9.933436558640096e-06,1.5199336303339805e-05,1.5064296349009965e-05,-7.050568342492625e-07,7.840344187570736e-05
1.2568932106660213e-05,1.4857940186630003e-05,1.2704291293630376e-05,-2.0396848867676454e-06,7.639874093001708e-05
1.4912123333488125e-05,8.990654350782279e-06,5.6223593674076255e-06,-3.280181090303813e-06,7.321839802898467e-05
4.077209268871229e-06,6.427626431104727e-06,-5.171326847630553e-06,-1.995994807657553e-06,7.072296284604818e-05
-6.988855147938011e-06,1.3704789125768002e-05,-1.169983806903474e-05,2.235996362287551e-06,6.926925561856478e-05
-1.5564719433314167e-05,2.3152935682446696e-05,-1.1032209840777796e-05,3.6302201351645635e-06,6.59494471619837e-05
-2.4227469111792743e-05,2.823794238793198e-05,-9.932116881827824e-06,-1.528348207102681e-06,6.153561844257638e-05
-3.006703445862513e-05,2.9027456548647024e-05,-9.400963790540118e-06,-9.973094165616203e-06,5.964325464447029e-05
-3.3514479582663625e-05,2.7419191610533744e-05,-6.54906307318015e-06,-1.2600841728271917e-05,5.837162461830303e-05
-3.3440937841078267e-05,2.391756970610004e-05,-1.5135669855226297e-06,-9.853630217548925e-06,5.564110688283108e-05
-3.495414784993045e-05,2.3972530470928177e-05,4.3986428863718174e-06,-6.765422313037561e-06,5.47803174413275e-05
-3.893332541338168e-05,2.6840431019081734e-05,9.95120808511274e-06,-7.305071449081879e-06,5.8409495977684855e-05
-4.559630178846419e-05,3.150397969875485e-05,1.8257254851050675e-05,-1.0360650776419789e-05,6.133132410468534e-05
-4.501336661633104e-05,3.582237695809454e-05,2.5964833184843883e-05,-1.1564482520043384e-05,5.986123869661242e-05
-3.414716775296256e-05,3.778525933739729e-05,2.8584032406797633e-05,-1.4237556570151355e-05,5.938364483881742e-05
-3.077423389186151e-05,3.079881571466103e-05,2.6896326744463295e-05,-1.6033709471230395e-05,6.335796206258237e-05
-3.825747626251541e-05,2.4464276066282764e-05,2.5391227609361522e-05,-1.5290228475350887e-05,6.673429743386805e-05
-4.7507583076367155e-05,2.479422437318135e-05,2.570820288383402e-05,-1.3702937394555192e-05,6.620136264245957e-05
-4.517793786362745e-05,2.4651923013152555e-05,2.0443325411179103e-05,-1.0480704986548517e-05,6.565814692294225e-05
-3.054613625863567e-05,2.2488766262540594e-05,1.4593664673157036e-05,-9.090074854611885e-06,6.680109800072387e-05
-1.4748807188880164e-05,1.6760966900619678e-05,1.5948271538945846e-05,-7.706652468186803e-06,6.664756074314937e-05
-1.1845912922581192e-05,1.8902646843343973e-05,1.873219844128471e-05,-4.4650105337495916e-06,6.653840682702139e-05
-2.4246244720416144e-05,2.5376284611411393e-05,1.7776414097170345e-05,-3.3718638405844104e-06,6.349631439661607e-05
-3.4691314795054495e-05,2.792691702779848e-05,1.6117473933263682e-05,-5.425764356914442e-06,6.037263301550411e-05
-3.168303010170348e-05,2.680901343410369e-05,1.3028767170908395e-05,-8.658668775751721e-06,5.8960493333870545e-05
-1.9667182641569525e-05,2.7744665203499608e-05,8.013353181013372e-06,-1.3094413588987663e-05,5.703504211851396e-05
-1.1274564712948631e-05,3.01460713671986e-05,4.11633027397329e-06,-1.667766264290549e-05,5.4347947298083454e-05
-7.713671038800385e-06,2.948397013824433e-05,7.586206720588962e-07,-1.600961149961222e-05,5.2933741244487464e-05
-5.51220227862359e-06,2.4259887140942737e-05,-4.307035396777792e-06,-1.3320894140633754e-05,5.3159354138188064e-05
-8.353853445441928e-06,2.0080346075701527e-05,-7.991999154910445e-06,-1.1484015885798726e-05,5.3234507504384965e-05
-1.3707582183997147e-05,2.113665141223464e-05,-7.208664101199247e-06,-1.0834061868081335e-05,5.470107862493023e-05
-1.538587639515754e-05,2.49203421844868e-05,-6.2601984609500505e-06,-1.1236134014325216e-05,5.722880086977966e-05
-1.8878161426982842e-05,2.6436324333189987e-05,-6.0125298659841064e-06,-1.1861997336382046e-05,6.244831456569955e-05
-2.611677336972207e-05,2.3458273062715307e-05,-5.12564338350785e-06,-1.1892960174009204e-05,6.596773891942576e-05
-3.063911208300851e-05,2.305365887877997e-05,-2.784248408715939e-06,-9.764909009390976e-06,6.394951924448833e-05
-3.488587390165776e-05,2.8558040867210366e-05,-1.9855331174767343e-06,-8.44332043925533e-06,6.129133544163778e-05
-4.281095971236937e-05,3.5416374885244295e-05,-4.903987246507313e-06,-9.356005648442078e-06,6.046837006579153e-05
-4.680110214394517e-05,4.002296191174537e-05,-6.32329101790674e-06,-9.460886758461129e-06,6.244163523660973e-05
-4.40515905211214e-05,4.5502751163439825e-05,-4.549353434413206e-06,-9.656989277573302e-06,6.431000656448305e-05
-4.677956167142838e-05,5.214445627643727e-05,-4.210823590256041e-06,-9.228977432940155e-06,6.280768138822168e-05
-5.140114444657229e-05,5.70554802834522e-05,-7.80700702307513e-06,-4.775818069902016e-06,6.219319038791582e-05
-4.9927537475014105e-05,5.5400290875695646e-05,-8.214040462917183e-06,-1.7186342802233412e-06,6.099261372582987e-05
-4.2905005102511495e-05,4.4641470594797283e-05,-4.799555426870938e-06,-4.365428594610421e-06,5.989507189951837e-05
-2.4174103600671515e-05,2.3483520635636523e-05,-3.1390145522891544e-06,-8.17294858279638e-06,5.8036690461449325e-05
-4.580831955536269e-06,8.09421999292681e-06,-2.3172558485384798e-06,-9.692424100649077e-06,5.674304338754155e-05
1.1792648137998185e-06,1.4378854757524095e-05,-3.1039855912240455e-06,-7.642699529242236e-06,5.550890273298137e-05
-1.0760677469079383e-06,2.933027826657053e-05,-5.69520125281997e-06,-6.801195922889747e-06,5.236651486484334e-05
-4.164774509263225e-06,3.972863851231523e-05,-9.26163647818612e-06,-1.0206828847003635e-05,5.2583989599952474e-05
-4.3529662434593774e-06,4.215979788568802e-05,-8.102821993816178e-06,-1.3918511285737623e-05,5.460447573568672e-05
-7.027238552836934e-06,3.445490074227564e-05,-2.263454689455102e-06,-1.5840803825994954e-05,5.5390995839843526e-05
-1.1267914487689268e-05,2.4585788196418434e-05,2.080092372125364e-06,-1.6469279216835275e-05,5.317732211551629e-05
-1.764724584063515e-05,2.3764887373545207e-05,1.4329265241030953e-07,-1.7073174603865482e-05,4.985139821656048e-05
-2.4808970920275897e-05,2.7533798856893554e-05,-2.3025083919492317e-06,-1.8401691704639234e-05,5.0499325880082324e-05
-2.8462243790272623e-05,2.625142951728776e-05,3.373445224497118e-06,-1.9671311747515574e-05,5.3343184845289215e-05
-2.606828093121294e-05,2.042098822130356e-05,1.2934237929584924e-05,-1.7914879208547063e-05,5.4400170483859256e-05
-2.1430103515740484e-05,1.9065410015173256e-05,1.7863227185443975e-05,-1.0440839105285704e-05,5.495595178217627e-05
-2.090348061756231e-05,2.395127921772655e-05,1.67587713804096e-05,-2.8251056392036844e-06,5.856158531969413e-05
-2.0974328435841016e-05,2.4590650355094112e-05,1.4411286429094616e-05,-2.237614808109356e-06,6.494628178188577e-05
-1.783900188456755e-05,1.886172867671121e-05,1.0889942132052965e-05,-8.81042069522664e-06,6.606794340768829e-05
-1.2005712051177397e-05,1.5885434550000355e-05,5.5712780522299e-06,-1.6324702301062644e-05,5.8406320022186264e-05
-8.18674288893817e-06,1.6945714378380217e-05,1.9463100215943996e-06,-2.0679670342360623e-05,5.193598190089688e-05
-1.0538328751863446e-05,1.992700890696142e-05,1.000466127720756e-07,-2.2528918634634465e-05,5.4052557970862836e-05
-1.6389596567023546e-05,2.5262108465540223e-05,-2.2978545075602597e-06,-2.2723694200976752e-05,5.972637518425472e-05
-1.8856771930586547e-05,2.691384725039825e-05,-2.700511458897381e-06,-2.211528772022575e-05,6.159603071864694e-05
-1.5829615222173743e-05,2.5315672246506438e-05,-2.241177980977227e-06,-2.063880856439937e-05,5.67248607694637e-05
-1.1058275958930608e-05,2.692728412512224e-05,-8.840247005537094e-07,-1.7218684661202133e-05,5.1756069296970963e-05
-1.3961604963697027e-05,3.143881622236222e-05,9.455526424062555e-07,-1.498216897743987e-05,4.9631249567028135e-05
-2.1477313566720113e-05,3.42087478202302e-05,2.165651949326275e-06,-1.935508225869853e-05,4.80078742839396e-05
-2.5977094992413186e-05,3.5516921343514696e-05,2.456750280543929e-06,-2.0362247596494853e-05,4.963827086612582e-05
-2.609826515254099e-05,3.5876757465302944e-05,3.281278395661502e-06,-1.1193103091500234e-05,5.275458170217462e-05
-2.8692931664409116e-05,3.0733652238268405e-05,2.9128209462214727e-06,-4.526174961938523e-06,5.328134648152627e-05
-3.3053984225261956e-05,2.1118468794156797e-05,2.029836139172403e-07,-3.7721758872066857e-06,5.2894160035066307e-05
-3.593789733713493e-05,1.7634023606660776e-05,-9.759723980096169e-07,-4.298763542465167e-06,5.226083521847613e-05
-4.1530667658662423e-05,2.3850134311942384e-05,-7.866751730034593e-07,-6.302131168922642e-06,4.791169340023771e-05
-4.6085620851954445e-05,2.78529023489682e-05,2.810331352520734e-06,-6.680143542325823e-06,4.4403823267202824e-05
-4.4947162677999586e-05,2.8124864911660552e-05,7.5095131251146086e-06,-4.401309524837416e-06,4.426775194588117e-05
-4.1491388401482254e-05,2.859863161575049e-05,9.622051948099397e-06,-4.050412826472893e-06,4.607466689776629e-05
-3.6083478335058317e-05,2.9895109037170187e-05,7.333735084102955e-06,-9.548235539114103e-06,5.0994982302654535e-05
-3.244174149585888e-05,3.009366810147185e-05,2.2681783775624353e-06,-1.6526908439118415e-05,5.7110584748443216e-05
-3.498852674965747e-05,2.771976141957566e-05,6.983801768001285e-07,-1.810664798540529e-05,5.951240018475801e-05
-4.0307859308086336e-05,2.8066031518392265e-05,6.584375569218537e-06,-1.276044531550724e-05,5.6522989325458184e-05
-4.085862383362837e-05,3.3051310310838744e-05,1.3790155207971111e-05,-5.062244326836662e-06,5.436982974060811e-05
-3.9778780774213374e-05,3.455529804341495e-05,1.5795245417393744e-05,-1.5127724850572122e-07,5.6626147852512076e-05
-4.110300505999476e-05,3.0184866773197427e-05,1.6617805158603005e-05,-4.671121445198878e-08,5.866830542800017e-05
-3.939566158805974e-05,2.674914685485419e-05,1.7771664715837687e-05,-5.1523393267416395e-06,5.753922232543118e-05
-3.5440156352706254e-05,2.8395052140695043e-05,1.4538564755639527e-05,-8.771055036049802e-06,5.454878555610776e-05
-3.5351527913007885e-05,3.174050652887672e-05,8.49382377055008e-06,-5.805711680295644e-06,5.087547833682038e-05
-3.8554873754037544e-05,3.0046954634599388e-05,9.143761417362839e-06,-3.2707571335777175e-06,4.8785728722577915e-05
-4.1380233597010374e-05,2.2320502466754988e-05,1.4158862541080453e-05,-7.370159437414259e-06,4.868921314482577e-05
-4.3922900658799335e-05,1.4233200090529863e-05,1.5415884263347834e-05,-1.1576697033888195e-05,4.987269130651839e-05
-4.499880378716625e-05,1.6127631170093082e-05,1.2414784578140825e-05,-1.1290442671452183e-05,5.345284807845019e-05
-4.1577786760171875e-05,3.195858880644664e-05,6.332234988803975e-06,-1.1607392480073031e-05,5.870768291060813e-05
-3.480897794361226e-05,4.180165342404507e-05,2.3621337277290877e-06,-1.2806424820155371e-05,6.190514977788553e-05
-3.4950466215377674e-05,3.1969593692338094e-05,8.082658496277872e-06,-1.644792064325884e-05,6.571410631295294e-05
-3.605644087656401e-05,1.7506043150206096e-05,1.3764903087576386e-05,-1.6305819372064434e-05,6.704590487061068e-05
-2.9929227821412496e-05,4.242484010319458e-06,1.3067417057754938e-05,-8.399910257139709e-06,6.12548174103722e-05
-2.330223833268974e-05,-4.15473277826095e-06,8.047421033552382e-06,-1.487720396653458e-06,5.449264426715672e-05
-2.4663921067258343e-05,-8.929105206334498e-07,1.0684593689802568e-06,-1.7671590057943831e-06,5.3653246141038835e-05
-2.6264020561939105e-05,3.3027693007170456e-06,-1.6245355709543219e-06,-1.0172357178817037e-05,5.9666639572242275e-05
-1.8172659110859968e-05,3.6639744394051377e-06,-9.517934245195647e-07,-1.575027454236988e-05,6.503333133878186e-05
-1.1097748028987553e-05,1.0451950402057264e-05,1.3318696119313245e-06,-1.4247651051846333e-05,6.6959168179892e-05
-1.2935839549754746e-05,1.991127101064194e-05,3.1800875603948953e-06,-1.1700866707542446e-05,6.958260200917721e-05
-1.3863410458725411e-05,2.503297946532257e-05,5.511482413567137e-06,-1.5405554222525097e-05,7.301679579541087e-05
-1.2474619325075764e-05,2.50339180638548e-05,6.867565389256924e-06,-1.8568254745332524e-05,7.4215822678525e-05
-1.3806310562358703e-05,2.948914516309742e-05,7.801850188116077e-06,-1.6713964214432053e-05,7.29495586710982e-05
-1.8199189071310684e-05,4.119240475120023e-05,5.765133664681343e-06,-1.2993282325624023e-05,7.139224180718884e-05
-2.082430546579417e-05,5.431367389974184e-05,1.4532519116983167e-06,-1.1826734407804906e-05,6.825129094067961e-05
-2.0791210772586055e-05,6.428318010875955e-05,-1.8366756648902083e-06,-1.2744038940581959e-05,6.203852535691112e-05
-2.1227273464319296e-05,7.019853364909068e-05,-1.3353626400203211e-06,-1.3785283954348415e-05,5.756215614383109e-05
-2.3159840566222556e-05,7.348008512053639e-05,9.790795729713864e-07,-1.5721785530331545e-05,6.040323933120817e-05
-2.502614734112285e-05,7.376533176284283e-05,4.803987394552678e-07,-1.6361693269573152e-05,6.637339538428932e-05
-2.2036849259166047e-05,7.24383135093376e-05,-6.76881143135688e-07,-1.487690860813018e-05,6.978328747209162e-05
-1.763723776093684e-05,6.948843656573445e-05,-2.3132963633543113e-07,-1.2571411389217246e-05,7.07545259501785e-05
-1.7560065316502005e-05,6.198374467203394e-05,2.357403673158842e-06,-1.5028364941827022e-05,6.998673779889941e-05
-2.264028080389835e-05,5.030873217037879e-05,2.8869594643765595e-06,-1.9840839740936644e-05,6.768065213691443e-05
-2.841784225893207e-05,4.1756189602892846e-05,2.5425752028240822e-06,-2.007934199355077e-05,6.50323272566311e-05
-3.23363346979022e-05,3.646241020760499e-05,4.949103640683461e-06,-1.5634726878488436e-05,6.52413145871833e-05
-3.021595512109343e-05,3.81532299797982e-05,6.308443971647648e-06,-1.1124840057163965e-05,6.492543616332114e-05
-2.243685958092101e-05,3.847578045679256e-05,-1.3726946690439945e-06,-7.489954441552982e-06,6.119672616478056e-05
-1.754171898937784e-05,3.123699934803881e-05,-1.0975690202030819e-05,-7.608145551785128e-06,5.788937778561376e-05
-1.8251021174364723e-05,2.1918178390478715e-05,-1.4954427570046391e-05,-1.2124425666115712e-05,5.4457461374113336e-05
-2.306148780917283e-05,2.326392313989345e-05,-1.6058143955888227e-05,-1.4120305422693491e-05,5.120884088682942e-05
-2.642565050336998e-05,3.446642585913651e-05,-1.2673931450990494e-05,-1.1305199222988449e-05,4.938629354001023e-05
-2.5636209102231078e-05,4.066702604177408e-05,-3.624755436248961e-06,-9.539943675918039e-06,4.986465137335472e-05
-2.3073394913808443e-05,3.8131529436213896e-05,4.48615537607111e-06,-8.405489097640384e-06,5.306466846377589e-05
-1.6492274880874902e-05,2.6212183001916856e-05,1.0209681022388395e-05,-7.997330612852238e-06,5.4240819736151025e-05
-1.0755919902294409e-05,2.2582586097996682e-05,1.647033786866814e-05,-6.956378456379753e-06,5.370525468606502e-05
-8.722233360458631e-06,3.2567324524279684e-05,2.271799348818604e-05,-6.500398285425035e-06,5.289932232699357e-05
-7.359485152846901e-06,3.9793314499547705e-05,2.60106517089298e-05,-5.166228220332414e-06,5.311000131769106e-05
-5.705451258108951e-06,4.185833313385956e-05,2.5313578589702956e-05,-4.641778104996774e-06,5.37933265150059e-05
-9.539014172332827e-06,4.522565723164007e-05,2.1773135813418776e-05,-4.800985607289476e-06,5.349257116904482e-05
-2.283023604832124e-05,4.606880247592926e-05,1.7159003618871793e-05,-2.3551124286314007e-06,5.286319355946034e-05
-3.4815606340998784e-05,3.8278874853858724e-05,1.3212425983510911e-05,-9.087735293178412e-07,5.3337382269091904e-05
-3.883988756570034e-05,2.3614022211404517e-05,1.0749750799732283e-05,-3.3114156394731253e-06,5.555228563025594e-05
-3.9206297515193e-05,3.6150393043499207e-06,1.319743023486808e-05,-8.911853001336567e-06,5.681188122252934e-05
-3.759900209843181e-05,-1.7419399227946997e-05,1.8398341126157902e-05,-1.4830484360572882e-05,5.586877159657888e-05
-3.62045357178431e-05,-3.3581403840798885e-05,2.0006069462397136e-05,-2.0027544451295398e-05,5.417746797320433e-05
-3.5571734770201147e-05,-3.866792394546792e-05,1.641300696064718e-05,-2.06924833037192e-05,5.081387280370109e-05
-3.308582745376043e-05,-3.194183955201879e-05,1.1031496796931606e-05,-1.7241785826627165e-05,4.7818921302678064e-05
-3.060177914449014e-05,-2.1541525711654685e-05,8.801107469480485e-06,-1.3605559615825769e-05,4.896510290564038e-05
-2.7994299671263434e-05,-1.3196693544159643e-05,1.1089507097494788e-05,-1.381395759381121e-05,5.241248436504975e-05
-2.4134540581144392e-05,4.616053956851829e-07,1.538679498480633e-05,-1.4210624613042455e-05,5.508781032403931e-05
-2.285380833200179e-05,2.665535248524975e-05,1.6895695807761513e-05,-1.339597838523332e-05,5.6676948588574305e-05
-2.3296255676541477e-05,5.034322020947002e-05,1.0089180250361096e-05,-1.3802036846755072e-05,5.697029337170534e-05
-2.1313137040124275e-05,5.8656649343902245e-05,1.9728727238543797e-06,-1.1257254300289787e-05,5.347873593564145e-05
-1.5129051462281495e-05,5.708436947315931e-05,-6.801101335440762e-07,-7.425228886859259e-06,5.078058165963739e-05
-9.784143912838772e-06,5.1144001190550625e-05,1.5235087857945473e-06,-8.281042937596794e-06,5.1858802180504426e-05
-1.5436455214512534e-05,4.9715996283339337e-05,8.169786269718315e-06,-9.354768735647667e-06,5.333177978172898e-05
-2.1730187654611655e-05,5.084041549707763e-05,1.0037087122327648e-05,-1.192010586237302e-05,5.5348591558868065e-05
-2.2772277588956058e-05,5.1062004786217585e-05,1.0504583769943565e-05,-1.3271950592752546e-05,6.101117833168246e-05
-2.5427420041523874e-05,4.7744415496708825e-05,1.299482482863823e-05,-1.1356328286638018e-05,6.332889461191371e-05
-2.738948751357384e-05,4.151884058956057e-05,9.28955887502525e-06,-1.1065582839364652e-05,6.0618262068601325e-05
-2.9361044653342105e-05,3.835208553937264e-05,2.8327831387287006e-06,-1.1788561096182093e-05,6.078231308492832e-05
-2.7499552743392996e-05,3.964094867114909e-05,-1.028694782689854e-06,-1.081351365428418e-05,6.297050276771188e-05
-2.6938208975479938e-05,4.561948298942298e-05,-1.856594167293224e-06,-9.884857718134299e-06,6.536379805766046e-05
-3.185640889569186e-05,4.7247922339010984e-05,-3.2673892746970523e-06,-1.1237365470151417e-05,6.618494808208197e-05
-3.195116369170137e-05,4.85393320559524e-05,-5.8106293181481306e-06,-1.1692956832121126e-05,6.493601540569216e-05
-2.866459180950187e-05,5.227508881944232e-05,-8.903012712835334e-06,-1.2336895451880991e-05,6.355244113365188e-05
-3.193726297467947e-05,5.4800861107651144e-05,-1.1985596756858286e-05,-1.1213773177587427e-05,6.259304791456088e-05
-4.152207839069888e-05,5.3551684686681256e-05,-1.4540912161464803e-05,-8.90360024641268e-06,6.146225496195257e-05
-4.866723247687332e-05,4.7023571823956445e-05,-1.5200397683656774e-05,-8.675090612086933e-06,6.150047556729987e-05
-5.3749652579426765e-05,3.220729558961466e-05,-1.2488161701185163e-05,-9.509197298029903e-06,6.312783079920337e-05
-5.835388583363965e-05,1.6873393178684637e-05,-6.505341389129171e-06,-8.734788934816606e-06,6.536941509693861e-05
-5.678673187503591e-05,1.0256542736897245e-05,2.5034137252077926e-07,-7.802891559549607e-06,6.76453928463161e-05
-4.189014725852758e-05,9.562302693666425e-06,2.7884971132152714e-06,-1.1925191756745335e-05,6.839008710812777e-05
-2.2793412426835857e-05,9.010712346935179e-06,2.3047259674058296e-06,-1.909048660309054e-05,6.933608528925106e-05
-1.8325119526707567e-05,1.0699375707190484e-05,2.838115960912546e-06,-2.1321566237020306e-05,7.178898522397503e-05
-2.7669788323692046e-05,2.0948098608641885e-05,5.250312369753374e-06,-1.924529715324752e-05,7.48013480915688e-05
-3.274399205110967e-05,2.8199639928061515e-05,5.655203949572751e-06,-1.7973885405808687e-05,7.508460839744657e-05
-2.5964809537981637e-05,2.202801260864362e-05,4.988411092199385e-06,-1.7707647202769294e-05,7.175833161454648e-05
-1.562007855682168e-05,1.3438963833323214e-05,6.544628831761656e-06,-2.0534809664241038e-05,6.645062967436388e-05
-4.115647698199609e-06,2.1024790839874186e-05,6.095437584008323e-06,-2.373167808400467e-05,6.0409347497625276e-05
1.1227922186662909e-05,3.271792593295686e-05,-1.7129367506640847e-06,-2.314778248546645e-05,5.431741737993434e-05
2.4371436666115187e-05,1.4350594028655905e-05,-1.8177926904172637e-05,-2.1303932953742333e-05,5.007871732232161e-05
2.5853034458123147e-05,-2.1289206415531226e-05,-3.7272147892508656e-05,-1.929547215695493e-05,4.651680137612857e-05
1.3282452528073918e-05,-3.173631921526976e-05,-4.471721695153974e-05,-1.7061531252693385e-05,4.831605474464595e-05
2.076413693430368e-06,-2.439616400806699e-05,-3.692853351822123e-05,-1.3446976481645834e-05,5.540458005270921e-05
-5.508528829523129e-06,-2.2012236513546668e-05,-2.1236402972135693e-05,-6.850779300293652e-06,5.920601688558236e-05
-2.273416794196237e-05,-2.4792061594780535e-05,-3.5895625387638574e-06,-1.7508999690107885e-06,5.915496876696125e-05
-4.5238422899274155e-05,-2.6138481189263985e-05,1.1536923921084963e-05,-5.458762757371005e-07,5.6879292969824746e-05
-5.2408988267416134e-05,-1.7356816897518e-05,2.5130641006398946e-05,-2.2946030640014214e-06,5.823289029649459e-05
-3.95367133023683e-05,7.598586307722144e-06,3.686577474582009e-05,-6.138711341918679e-06,5.961505667073652e-05
-2.2055943190935068e-05,4.080397775396705e-05,4.611640179064125e-05,-7.211218871816527e-06,5.810232323710807e-05
-8.326353963639122e-06,5.734034130000509e-05,5.316467286320403e-05,-5.665672233590158e-06,5.581875302596018e-05
-1.3802218745695427e-05,5.139844506629743e-05,5.6688695622142404e-05,-3.036624093510909e-06,5.725192022509873e-05
-4.1465493268333375e-05,3.924628617824055e-05,5.7399771321797743e-05,1.7718278968459344e-06,6.016825864207931e-05
-6.803208088967949e-05,3.368128454894759e-05,5.548960325540975e-05,5.720579792978242e-06,6.0598049458349124e-05
-6.88211657688953e-05,3.3185493521159515e-05,5.06859396409709e-05,1.588092800375307e-06,6.0398753703339025e-05
-4.017899846076034e-05,3.320009636809118e-05,4.488390914048068e-05,-6.496065452665789e-06,6.17152763879858e-05
1.4817042028880678e-06,4.0518374589737505e-05,3.880533404299058e-05,-9.7158790595131e-06,6.359897088259459e-05
3.08046473946888e-05,5.573861926677637e-05,3.281648605479859e-05,-1.0458291399118025e-05,6.42009690636769e-05
2.9765153158223256e-05,6.810266495449468e-05,2.8880489480798133e-05,-1.037883703247644e-05,6.212783773662522e-05
3.65566779692017e-06,7.474314770661294e-05,2.71643675660016e-05,-5.693091225111857e-06,5.8226753026247025e-05
-2.3201982912723906e-05,8.250922110164538e-05,2.388482607784681e-05,-1.342728097597501e-07,5.6386663345620036e-05
-3.556908268365078e-05,8.599174179835245e-05,1.8042988813249394e-05,-2.3587110717926407e-06,5.515949669643305e-05
-4.0611477743368596e-05,8.060327672865242e-05,1.4702003682032228e-05,-9.71621830103686e-06,5.573200178332627e-05
-4.518297646427527e-05,6.81188321323134e-05,1.2747277651214972e-05,-1.2778822565451264e-05,5.731156124966219e-05
-4.861591150984168e-05,5.0822331104427576e-05,8.793418601271696e-06,-8.932929631555453e-06,5.758533734478988e-05
-4.597589941113256e-05,4.348489528638311e-05,9.509469691693084e-07,-5.200054147280753e-06,5.5431628425139934e-05
-4.28543244197499e-05,5.892344779567793e-05,-7.583101705677109e-06,-5.839545337948948e-06,5.182940367376432e-05
-4.804826676263474e-05,8.042633271543309e-05,-1.0965195542667061e-05,-9.961087016563397e-06,5.189705188968219e-05
-4.92202234454453e-05,8.427716238657013e-05,-1.0306349395250436e-05,-1.1358507435943466e-05,5.391674494603649e-05
-3.604330777307041e-05,7.05668717273511e-05,-1.126084680436179e-05,-5.867005711479578e-06,5.520267950487323e-05
-2.014413803408388e-05,5.6628850870765746e-05,-1.1561091923795175e-05,-4.016216280433582e-06,5.555499956244603e-05
-1.245917064807145e-05,5.1385562983341515e-05,-8.178313692042138e-06,-5.728454198106192e-06,5.3417101298691705e-05
-1.1031178473785985e-05,4.4711156078847125e-05,-6.220462637429591e-06,-7.257049219333567e-06,5.546531974687241e-05
-1.5134546629269607e-05,3.2465322874486446e-05,-2.7748176307795802e-06,-7.212860509753227e-06,5.712720303563401e-05
-2.116454197675921e-05,1.11491735879099e-05,-2.3673865143791772e-06,-7.106845714588417e-06,5.737489482271485e-05
-2.2687032469548285e-05,-2.177587157348171e-05,-7.757686944387387e-06,-1.1240994354011491e-05,5.6596803915454075e-05
-2.5248680685763247e-05,-4.069263013661839e-05,-1.0007019227487035e-05,-9.893667083815672e-06,5.3915246098767966e-05
-2.9171093046898022e-05,-2.39094442804344e-05,-6.936179033800727e-06,-4.839542725676438e-06,5.0767666834872216e-05
-2.739682895480655e-05,8.928733223001473e-06,-2.0734330519189825e-06,-4.4756529860023875e-07,4.779063237947412e-05
-2.360449798288755e-05,2.7256864996161312e-05,3.2862187708815327e-06,1.0266480785503518e-06,4.7388159146066755e-05
-2.518860128475353e-05,2.679241879377514e-05,5.924523520661751e-06,9.723428320285166e-07,4.924514360027388e-05
-3.316312358947471e-05,2.2154759790282696e-05,5.3645694606530014e-06,1.05403569250484e-06,5.4468931921292096e-05
-4.067593181389384e-05,2.2453574274550192e-05,6.1902578636363614e-06,8.12467476407619e-07,6.215010216692463e-05
-4.2771709559019655e-05,2.7985875931335613e-05,7.630278560100123e-06,1.378198248858098e-06,6.870727520436049e-05
-4.2492873035371304e-05,3.445944093982689e-05,6.167119408928556e-06,2.467479589540744e-06,7.229175389511511e-05
-4.468446422833949e-05,4.0358208934776485e-05,1.7308263977611205e-06,3.3226876894332236e-06,7.35836147214286e-05
-5.0187602028017864e-05,5.0657352403504774e-05,-1.4108659343037289e-06,3.191925770806847e-06,7.182455010479316e-05
-5.613155371975154e-05,6.12763105891645e-05,-2.0852589841524605e-06,1.3441455166685046e-06,6.623729859711602e-05
-5.86090209253598e-05,5.915435394854285e-05,-2.3986667656572536e-06,-3.846143954433501e-06,5.9963564126519486e-05
-6.316933286143467e-05,4.28940802521538e-05,-4.3128247853019275e-06,-1.076031730917748e-05,5.9217240050202236e-05
-7.732437370577827e-05,1.8462107618688606e-05,-4.99774478157633e-06,-1.6861433323356323e-05,6.165882223285735e-05
-9.159470209851861e-05,-1.5227582480292767e-05,-1.8169339455198497e-07,-1.556821916892659e-05,6.403642328223214e-05
-8.906427683541551e-05,-4.450908090802841e-05,3.5675573144544614e-06,-1.330225495621562e-05,6.386697350535542e-05
-6.115808355389163e-05,-4.907887341687456e-05,6.969672199375054e-07,-1.6446911104139872e-05,6.0921880503883585e-05
-1.893686749099288e-05,-4.146456194575876e-05,-2.165154910471756e-06,-2.082323408103548e-05,5.812914969283156e-05
1.882658943941351e-05,-4.196204827167094e-05,-7.76489855525142e-07,-2.113420850946568e-05,5.9464793594088405e-05
2.7557061912375502e-05,-5.0384318456053734e-05,5.814960104544298e-07,-1.9441451513557695e-05,6.193653825903311e-05
8.432411050307564e-06,-5.3210991609375924e-05,1.1605565930494777e-07,-2.0068093363079242e-05,6.162857607705519e-05
-1.3376198694459163e-05,-4.230135527905077e-05,1.0165234698433778e-06,-2.1949865185888484e-05,5.9530615544645116e-05
-2.088196197291836e-05,-2.5272860511904582e-05,-5.249653440841939e-07,-2.5374976758030243e-05,6.042785753379576e-05
-1.3956416296423413e-05,-4.495745997701306e-06,-3.4770714592013974e-06,-2.493283864168916e-05,6.394262163667008e-05
-3.4892098028649343e-06,2.1293890313245356e-05,-3.8125972423586063e-06,-2.143183519365266e-05,6.617089820792899e-05
3.4527747629908845e-06,3.8447597034974024e-05,-1.72254135577532e-06,-2.17614015127765e-05,6.689626025035977e-05
6.546129498019582e-06,4.3323907448211685e-05,2.4865178360755635e-08,-2.33979935728712e-05,6.713141192449257e-05
1.028171300276881e-05,4.611670010490343e-05,1.6644170273139025e-06,-2.266531555505935e-05,6.756744551239535e-05
1.0892217687796801e-05,5.2124432841083035e-05,1.3099904663249617e-06,-2.194831904489547e-05,6.559254688909277e-05
7.80454502091743e-06,5.4270029067993164e-05,-3.1700690215075156e-06,-2.1018697225372307e-05,6.22277075308375e-05
-1.2320454061409691e-06,4.9905323976418003e-05,-7.963370080688037e-06,-1.5581392290187068e-05,5.847843931405805e-05
-1.234032151842257e-05,4.703342347056605e-05,-8.732217793294694e-06,-1.1405965778976679e-05,5.402452370617539e-05
-2.4207596652559005e-05,4.25542239099741e-05,-9.97880761133274e-06,-1.5035331671242602e-05,4.870187694905326e-05
-3.602065407903865e-05,2.6992716811946593e-05,-1.6891684936126694e-05,-2.072719144052826e-05,4.5384749682853e-05
-4.6336012019310147e-05,1.7270209582420648e-06,-2.4674916858202778e-05,-2.052139097941108e-05,4.619993706000969e-05
-5.472355042002164e-05,-2.3872977180872113e-05,-3.390464189578779e-05,-1.4952245692256838e-05,4.912456279271282e-05
-6.0018417570972815e-05,-3.8123926060507074e-05,-4.34244611824397e-05,-1.0729046152846422e-05,5.2721999963978305e-05
-5.744366717408411e-05,-3.447187191341072e-05,-4.453404471860267e-05,-1.1862435712828301e-05,5.603233148576692e-05
-4.6767912863288075e-05,-1.9131615772494115e-05,-3.716749051818624e-05,-1.4510611435980536e-05,5.710006371373311e-05
-3.2939253287622705e-05,7.776983466101228e-07,-3.0319730285555124e-05,-1.4180411199049558e-05,5.642297037411481e-05
-2.2430318495025858e-05,1.659484587435145e-05,-2.0556768504320644e-05,-1.345780401607044e-05,5.7625755289336666e-05
-2.301131644344423e-05,2.3532060367870145e-05,-4.792149866261752e-06,-1.1944475772907026e-05,6.0133952501928434e-05
-2.5437460863031447e-05,3.5036890039918944e-05,1.4497992196993437e-05,-7.284755611181026e-06,6.106523505877703e-05
-2.3442011297447607e-05,5.3588235459756106e-05,3.1882755138212815e-05,-5.288129159453092e-06,6.120715261204168e-05
-2.0427269191714004e-05,5.9123049140907824e-05,4.562299363897182e-05,-6.378835678333417e-06,6.225334800546989e-05
-2.3104666979634203e-05,4.291938239475712e-05,5.529856571229175e-05,-9.535743629385252e-06,6.288271106313914e-05
-2.68753483396722e-05,1.987254472624045e-05,5.470960968523286e-05,-1.4395425750990398e-05,6.490087253041565e-05
-2.5729679691721685e-05,1.684651397226844e-05,4.663602521759458e-05,-1.0932150871667545e-05,6.742727418895811e-05
-2.0265031707822345e-05,2.9833901862730272e-05,4.228760371915996e-05,-3.7296822483767755e-06,6.456951814470813e-05
-1.810398134693969e-05,4.229292244417593e-05,4.156737122684717e-05,-1.350100774288876e-06,6.0334132285788655e-05
-2.367931119806599e-05,4.661993443733081e-05,3.85820894734934e-05,-1.1998791933365283e-06,5.858854274265468e-05
-2.7382806365494616e-05,4.727798295789398e-05,3.096518412348814e-05,-1.1753023727578693e-06,6.00017374381423e-05
-2.260973815282341e-05,5.1730035920627415e-05,2.312612923560664e-05,-3.920608378393808e-06,6.259635119931772e-05
-1.2058771062584128e-05,5.500697807292454e-05,1.9981429431936704e-05,-9.643194971431512e-06,6.165288505144417e-05
3.812702686900593e-08,5.5209417041623965e-05,1.5185688425845001e-05,-1.157635051640682e-05,5.836673153680749e-05
5.685500127583509e-06,5.207041249377653e-05,7.953295607876498e-06,-9.02978081285255e-06,5.7612109230831265e-05
2.1175097231207474e-07,4.901604916085489e-05,3.2640682547935285e-06,-5.6207131819974165e-06,5.946734017925337e-05
-1.316272118856432e-05,4.8732301365816966e-05,2.223145884272526e-06,-4.375418939162046e-06,6.044703332008794e-05
-2.112758011207916e-05,4.917532714898698e-05,2.2886072201799834e-06,-4.511034148890758e-06,6.068692164262757e-05
-1.7700251191854477e-05,4.577003346639685e-05,3.6630549402616452e-06,-4.691862159234006e-06,6.196845060912892e-05
-1.098141092370497e-05,4.3496555008459836e-05,6.272000064200256e-06,-4.841509507969022e-06,6.392577051883563e-05
-8.303175491164438e-06,4.627336238627322e-05,9.03610543900868e-06,-4.1889284148055594e-06,6.594402657356113e-05
-1.0203756573901046e-05,5.141526344232261e-05,1.0815839232236613e-05,-3.331730340505601e-06,6.524992932099849e-05
-9.790371223061811e-06,5.635078196064569e-05,1.0165501407755073e-05,-5.810247330373386e-06,6.189850682858378e-05
-1.9061642433371162e-06,6.173073052195832e-05,5.79103789277724e-06,-1.0168540029553697e-05,6.045612826710567e-05
6.473062512668548e-06,6.894004036439583e-05,3.891185770044103e-06,-1.1292180715827271e-05,6.161513738334179e-05
2.4231742372649023e-06,7.060382631607354e-05,9.163301001535729e-06,-1.266819890588522e-05,6.303278496488929e-05
-1.144660018326249e-05,6.288916483754292e-05,1.445267116650939e-05,-1.7383328668074682e-05,6.421135913114995e-05
-2.60602573689539e-05,5.224084452493116e-05,1.5436387911904603e-05,-2.0535899238893762e-05,6.54382020002231e-05
-3.361553535796702e-05,3.991235644207336e-05,1.2526720638561528e-05,-1.646391501708422e-05,6.522374314954504e-05
-3.28636888298206e-05,3.284064223407768e-05,7.723536327830516e-06,-8.353867087862454e-06,6.29645146545954e-05
-3.23008862324059e-05,3.2640389690641314e-05,6.471947017416824e-06,-3.7463451008079574e-06,6.105520878918469e-05
-3.278817166574299e-05,3.536431904649362e-05,9.790065632842015e-06,-4.79570371680893e-06,6.227960693649948e-05
-2.8776583349099383e-05,3.611622014432214e-05,1.0034607839770615e-05,-6.897325874888338e-06,6.174825830385089e-05
-2.441179458401166e-05,3.780724000534974e-05,7.367269517999375e-06,-8.43598445499083e-06,5.747970499214716e-05
-2.0091572878300212e-05,4.5006319851381704e-05,4.1680123104015365e-06,-7.06455148247187e-06,5.6444907386321574e-05
-1.8841490600607358e-05,4.141604949836619e-05,8.77056265835563e-07,-4.101773356524063e-06,5.6974189647007734e-05
-2.4761815438978374e-05,2.918180871347431e-05,-1.5155059429616813e-07,-6.308424872258911e-06,5.232312105363235e-05
-3.011901026184205e-05,2.2545502361026593e-05,-1.927953917402192e-06,-1.0974566066579428e-05,4.951655864715576e-05
-3.4595734177855775e-05,2.6257694116793573e-05,-6.863359658382251e-07,-1.2959658306499477e-05,5.354483801056631e-05
-4.0535775042371824e-05,3.4410750231472775e-05,5.404928742791526e-06,-1.5865229215705767e-05,5.9163965488551185e-05
-4.0727700252318755e-05,3.718662992469035e-05,1.0241134077659808e-05,-1.976093335542828e-05,5.886588405701332e-05
-3.8430083804996684e-05,2.9893399187130854e-05,9.637785296945367e-06,-1.9811173842754215e-05,5.2897328714607283e-05
-3.732784171006642e-05,2.048016722255852e-05,2.984811999340309e-06,-1.7978896721615456e-05,4.933335003443062e-05
-3.283897603978403e-05,1.6120662621688098e-05,-3.903756351064658e-06,-1.7049896996468306e-05,5.203799810260534e-05
-2.6083225748152472e-05,1.4871311577735469e-05,-6.577947715413757e-06,-1.5559522580588236e-05,5.8548146625980735e-05
-2.2352065570885316e-05,1.3805080925521906e-05,-4.990659817849519e-06,-1.2267086276551709e-05,6.0435668274294585e-05
-2.2546293621417135e-05,1.4475782336376142e-05,-4.096407337783603e-06,-1.249741944775451e-05,5.749418414779939e-05
-2.3246813725563698e-05,1.4618458408222068e-05,-6.061211024643853e-06,-1.4322051356430165e-05,6.0498325183289126e-05
-2.4899236450437456e-05,1.1879238627443556e-05,-4.757072019856423e-06,-1.4086315786698833e-05,6.973116978770122e-05
-2.956132811959833e-05,1.1865243322972674e-05,1.4706834008393344e-06,-1.546854582556989e-05,7.270112837431952e-05
-3.558040771167725e-05,1.717098530207295e-05,5.011850589653477e-06,-1.747691203490831e-05,6.589280383195728e-05
-3.957591616199352e-05,2.4367187506868504e-05,3.90751256418298e-06,-1.4335869309434202e-05,5.910590698476881e-05
-4.056376201333478e-05,2.9122633350198157e-05,3.3945946142921457e-06,-9.63660204433836e-06,5.7632259995443746e-05
-3.7137175240786746e-05,3.2912023016251624e-05,4.816137334273662e-06,-6.864127499284223e-06,5.8614245062926784e-05
-3.288395600975491e-05,3.5747150832321495e-05,4.87532997794915e-06,-3.49927495335578e-06,6.131028931122273e-05
-3.345642107888125e-05,3.60748526873067e-05,4.5817178033757955e-06,-4.780643394042272e-06,6.760843825759366e-05
-3.52879760612268e-05,3.525007559801452e-05,4.7618768803658895e-06,-9.679418326413725e-06,7.050437125144526e-05
-3.521593316690996e-05,2.8696344088530168e-05,-3.140567983450637e-08,-1.2597198292496614e-05,6.925399793544784e-05
-3.642279625637457e-05,2.1653582734870724e-05,-7.246097084134817e-06,-1.3747168850386515e-05,6.79552904330194e-05
-4.1712508391356096e-05,2.0570641936501488e-05,-7.572483809781261e-06,-1.1848614121845458e-05,6.625280366279185e-05
-4.239342888467945e-05,1.8521935999160632e-05,-5.570413577515865e-06,-9.7967777037411e-06,6.48091736366041e-05
-3.6464331060415134e-05,1.72464715433307e-05,-7.4456806942180265e-06,-6.745739938196493e-06,6.219447823241353e-05
-3.206677865819074e-05,1.537162643217016e-05,-1.3366978237172589e-05,-1.3360435957565642e-07,5.8801168052013963e-05
-2.8946993552381173e-05,1.557807991048321e-05,-2.3777183741913177e-05,4.1356174733664375e-06,5.5299595260294154e-05
-2.9494169211830013e-05,1.8298575014341623e-05,-3.218530400772579e-05,4.894882749795215e-06,5.5470842198701575e-05
-3.03464967146283e-05,2.1333009499358013e-05,-3.354019281687215e-05,3.973992988903774e-06,5.464202695293352e-05
-3.214911703253165e-05,2.218353074567858e-05,-2.317599683010485e-05,4.112603164685424e-06,5.19654386152979e-05
-3.414389357203618e-05,2.115626739396248e-05,-7.6520173024619e-06,4.384681233204901e-06,5.039774623583071e-05
-3.249988003517501e-05,1.9934312149416655e-05,6.768368621123955e-06,3.6188562262395862e-06,5.0792634283425286e-05
-3.0372584660653956e-05,2.1639982151100412e-05,1.9412915207794867e-05,1.4815849453952978e-06,5.0469054258428514e-05
-2.9851888029952534e-05,2.7138781661051326e-05,2.835967461578548e-05,-2.113470145559404e-06,4.956108386977576e-05
-2.7081003281637095e-05,3.210093200323172e-05,3.46178567269817e-05,-6.129947905719746e-06,5.004047852708027e-05
-2.2532365619554184e-05,3.624356759246439e-05,3.8815760490251705e-05,-7.423631814162945e-06,5.190130468690768e-05
-2.310529634996783e-05,4.147556683165021e-05,3.8799749745521694e-05,-5.184646852285368e-06,5.3474603191716596e-05
-2.83515291812364e-05,4.664765947381966e-05,3.619346898631193e-05,-4.544392595562385e-06,5.570084249484353e-05
-3.1429579394171014e-05,4.4239666749490425e-05,3.652944360510446e-05,-5.820739716000389e-06,5.675208012689836e-05
-2.6124534997507e-05,3.45418302458711e-05,3.6806686694035307e-05,-5.4414404075942e-06,5.30484649061691e-05
-1.9259765394963324e-05,2.8309146728133783e-05,3.307025690446608e-05,-3.740542979357997e-06,4.7905276005622e-05
-1.899526614579372e-05,2.977433723572176e-05,2.762582153081894e-05,-2.9378454655670794e-06,4.6347260649781674e-05
-1.977238935069181e-05,3.239108991692774e-05,2.280170883750543e-05,-5.666164724971168e-06,4.958622230333276e-05
-1.1137906767544337e-05,3.129084871034138e-05,1.7057873265002854e-05,-9.041409612109419e-06,5.358707858249545e-05
-4.091200935363304e-06,2.5781911972444504e-05,1.4298289897851646e-05,-8.057027116592508e-06,5.7564073358662426e-05
-7.878337783040479e-06,2.3495813366025686e-05,1.355582571704872e-05,-3.84558461519191e-06,5.841854363097809e-05
-1.5849545889068395e-05,2.586535265436396e-05,1.0488724001334049e-05,-2.532322923798347e-06,5.670178506989032e-05
-2.2880849428474903e-05,2.738636248977855e-05,7.215496680146316e-06,-6.236555691430112e-06,5.114607120049186e-05
-2.771937579382211e-05,2.8182947062305175e-05,4.038398401462473e-06,-7.084652224875754e-06,4.570699456962757e-05
-3.1085604859981686e-05,3.075740460189991e-05,-1.0254607332171872e-06,-7.562256996607175e-06,3.946193464798853e-05
-2.618233884277288e-05,3.331162588438019e-05,-4.960526439390378e-06,-1.1829257346107624e-05,3.705796189024113e-05
-2.186796336900443e-05,3.6470159102464095e-05,-4.6837330955895595e-06,-1.954342587850988e-05,4.391593756736256e-05
-2.309299452463165e-05,3.699748413055204e-05,-5.182700078876223e-06,-2.3065162167767994e-05,5.15846986672841e-05
-2.3494703782489523e-05,3.614939851104282e-05,-5.0153576012235135e-06,-2.107130603690166e-05,5.55350306967739e-05
-2.2432794139604084e-05,3.7935238651698455e-05,-4.288093350623967e-06,-2.002671499212738e-05,5.605956903309561e-05
-1.822737067413982e-05,3.889879008056596e-05,-5.39027996637742e-06,-2.0399556888150983e-05,5.453570338431746e-05
-1.676221472735051e-05,3.724911221070215e-05,-2.164185843867017e-06,-1.8889115381170996e-05,5.526791210286319e-05
-1.7386006220476702e-05,3.660587753984146e-05,2.2361139144777553e-06,-1.397191772412043e-05,5.7491823099553585e-05
-1.9964922103099525e-05,3.985176226706244e-05,4.996306870452827e-06,-1.1391124644433148e-05,5.9309208154445514e-05
-2.464292811055202e-05,4.4963751861359924e-05,5.70643032915541e-06,-1.1568296031327918e-05,6.065515481168404e-05
-2.7813071937998757e-05,4.650166374631226e-05,5.05589741806034e-06,-1.1000123777193949e-05,6.0577396652661264e-05
-2.7072848752141e-05,4.3004140025004745e-05,4.085267846676288e-06,-1.0444639883644413e-05,5.938567119301297e-05
-2.3094073185347952e-05,3.7408783100545406e-05,4.4967009671381675e-06,-1.3780635526927654e-05,5.7687389926286414e-05
-1.8321148672839627e-05,3.431769073358737e-05,5.708667686121771e-06,-1.7529666365589947e-05,5.7561323046684265e-05
-1.6554331523366272e-05,3.230646325391717e-05,6.045646387065062e-06,-1.827939377108123e-05,6.0037367802578956e-05
-2.1083555111545138e-05,2.921793384302873e-05,6.592012596229324e-06,-1.660690577409696e-05,6.348062743199989e-05
-2.473367567290552e-05,2.927713649114594e-05,5.536345724976854e-06,-1.3990207662573084e-05,6.466313061537221e-05
-1.941551272466313e-05,2.9991477276780643e-05,3.2619013836665545e-06,-1.3850714822183363e-05,6.333579221973196e-05
-6.534322892548516e-06,2.842216235876549e-05,2.5686044864414725e-06,-1.630290353205055e-05,6.234818283701316e-05
5.117724413139513e-06,2.7505204343469813e-05,3.793040832533734e-06,-1.530351073597558e-05,6.603563815588132e-05
6.670007678621914e-06,2.8571059374371544e-05,4.218147296342067e-06,-9.554227290209383e-06,7.02405086485669e-05
-3.854568603856023e-06,2.5311557692475617e-05,3.6677511161542498e-06,-6.046069302101387e-06,7.123943214537576e-05
-1.2514673471741844e-05,1.8335176719119772e-05,2.2852514121041168e-06,-8.422939572483301e-06,6.996007869020104e-05
-1.1544475455593783e-05,1.2450323993107304e-05,-1.2073526249878341e-06,-1.1913131856999826e-05,7.194294448709115e-05
-9.426319593330845e-06,8.348210940312129e-06,-2.391969474047073e-06,-1.5971379980328493e-05,7.610830652993172e-05
-1.3113060958858114e-05,6.3667357608210295e-06,4.907652964902809e-06,-1.8295217159902677e-05,7.284762978088111e-05
-2.0946887161699124e-05,8.604216418461874e-06,8.877553227648605e-06,-1.660206362430472e-05,6.357971869874746e-05
-2.9983151762280613e-05,1.0414498319732957e-05,6.896773811604362e-06,-1.5317724319174886e-05,5.784590757684782e-05
-3.701769674080424e-05,1.2349084499874152e-05,9.511597454547882e-06,-1.451533262297744e-05,5.84134177188389e-05
-3.826264583040029e-05,1.341943243460264e-05,1.173825057776412e-05,-1.2483413229347207e-05,6.084555934648961e-05
-3.4240063541801646e-05,1.2824721125070937e-05,1.2032227459712885e-05,-9.651771506469231e-06,6.340252002701163e-05
-2.9742021069978364e-05,1.6656982552376576e-05,1.0611952347971965e-05,-8.161727237165906e-06,6.468407082138583e-05
-2.9995424483786337e-05,2.1679867131751962e-05,8.620812877779827e-06,-8.710710062587168e-06,6.642948574153706e-05
-3.100200410699472e-05,2.4255265088868327e-05,8.978964615380391e-06,-1.0354729965911247e-05,6.807730824220926e-05
-2.583643072284758e-05,2.4052063963608816e-05,7.956866284075659e-06,-1.1831853953481186e-05,6.647807458648458e-05
-1.8463790183886886e-05,2.3498640075558797e-05,9.282968676416203e-06,-1.593994238646701e-05,6.620834756176919e-05
-1.4669411939394195e-05,2.4158069209079258e-05,1.0730592293839436e-05,-2.0215538825141266e-05,6.970971298869699e-05
-1.1238025763304904e-05,2.8405855118762702e-05,8.212660759454593e-06,-2.0222356397425756e-05,7.225714944070205e-05
-9.00535178516293e-06,3.4874272387241945e-05,4.578753305395367e-06,-1.637672721699346e-05,6.895876867929474e-05
-9.890609362628311e-06,3.6616802390199155e-05,6.648334419878665e-06,-1.3093266716168728e-05,6.3325249357149e-05
-1.5729865481262095e-05,2.905977817135863e-05,1.0713273695728276e-05,-1.1973506843787618e-05,5.909452374908142e-05
-2.069707443297375e-05,1.6701074855518527e-05,9.447566299058963e-06,-1.1151986655022483e-05,5.814677570015192e-05
-1.321082436334109e-05,7.807148904248606e-06,4.739161340694409e-06,-9.61716978054028e-06,6.080709499656223e-05
4.905640253127785e-06,9.709779078548308e-06,2.0886166112177307e-06,-7.342752269323682e-06,6.39830032014288e-05
1.787007749953773e-05,2.343939740967471e-05,2.534168743295595e-06,-5.503979991772212e-06,6.449683132814243e-05
1.2575342225318309e-05,3.607630424085073e-05,2.9516481845348608e-06,-7.679700502194464e-06,6.517129804706201e-05
-7.18744831829099e-06,3.7636134948115796e-05,3.157063474645838e-06,-1.182291453005746e-05,6.583047797903419e-05
-2.766486068139784e-05,3.196448233211413e-05,2.9899892979301512e-06,-1.3168597433832474e-05,6.336676597129554e-05
-4.5679553295485675e-05,2.6920215532300062e-05,2.1892815311730374e-06,-1.1053492016799282e-05,5.841185338795185e-05
-6.56756674288772e-05,2.776017390715424e-05,3.766426516449428e-06,-7.638575880264398e-06,5.274726208881475e-05
-7.579405792057514e-05,3.2889605790842324e-05,9.162155947706196e-06,-6.729251254000701e-06,5.042086195317097e-05
-7.406944496324286e-05,3.0094639441813342e-05,1.3968709026812576e-05,-5.458143732539611e-06,5.0608341553015634e-05
-7.222565909614787e-05,1.4097226085141301e-05,1.2247724043845665e-05,-7.876396921346895e-06,5.3633095376426354e-05
-7.379849557764828e-05,1.5930172594380565e-06,4.800783699465683e-07,-1.2151959708717186e-05,5.2738174417754635e-05
-7.736398401902989e-05,-1.7362024209433002e-06,-1.2455413525458425e-05,-1.3297979421622586e-05,4.832482954952866e-05
-7.601645484101027e-05,-2.3610373318661004e-06,-2.8394755645422265e-05,-1.06577808764996e-05,4.8019675887189806e-05
-6.745428254362196e-05,1.1674042070808355e-06,-4.9083442718256265e-05,-9.8494620033307e-06,4.9225058319279924e-05
-5.784883614978753e-05,-1.8249189679409028e-06,-6.599420885322616e-05,-1.3349467735679355e-05,5.121904905536212e-05
-5.062192940386012e-05,-1.987002724490594e-05,-6.728223524987698e-05,-1.6074092854978517e-05,5.286069426801987e-05
-4.404259016155265e-05,-3.225037653464824e-05,-5.296482049743645e-05,-1.733383942337241e-05,5.322005017660558e-05
-3.5528868465917185e-05,-5.792463525722269e-06,-3.120338078588247e-05,-1.654646621318534e-05,5.237910954747349e-05
-2.7075868274550885e-05,4.2984713218174875e-05,-7.762768291286193e-06,-1.674334635026753e-05,5.3939391364110634e-05
-1.958959546755068e-05,7.053618173813447e-05,9.14519296202343e-06,-1.6902828065212816e-05,5.805051841889508e-05
-1.8387323507340625e-05,7.563723920611665e-05,1.999508822336793e-05,-1.8529841327108443e-05,6.11053328611888e-05
-2.654742456797976e-05,8.66025875438936e-05,3.0113191314740106e-05,-2.1730040316469967e-05,6.118822784628719e-05
-3.323212149553001e-05,0.00010794556874316186,4.2537103581707925e-05,-2.368097375438083e-05,5.8998721215175465e-05
-3.0283776141004637e-05,0.00011980466661043465,5.508569302037358e-05,-2.1721718439948745e-05,5.5035605328157544e-05
-1.9771889128605835e-05,0.00012008069461444393,6.124715582700446e-05,-1.8918995920103043e-05,4.929113856633194e-05
-9.049400432559196e-06,0.00012008769408566877,5.624453478958458e-05,-1.9276598322903737e-05,4.7223391447914764e-05
-2.2981666916166432e-06,0.00011656229617074132,4.631256888387725e-05,-2.0298015442676842e-05,5.043761120759882e-05
-6.900912694618455e-07,9.53286507865414e-05,3.763766653719358e-05,-1.799210804165341e-05,5.524449807126075e-05
-5.672232418874046e-06,5.7324439694639295e-05,2.9021692171227187e-05,-1.394484206684865e-05,5.655179847963154e-05
-1.947299278981518e-05,2.2285228624241427e-05,2.1924061002209783e-05,-1.3467410099110566e-05,5.422411049949005e-05
-4.398997771204449e-05,1.6921110727707855e-05,1.689345845079515e-05,-1.236712523677852e-05,5.052030610386282e-05
-7.094989996403456e-05,3.911164458259009e-05,1.0230584848613944e-05,-8.126971806632355e-06,4.8771642468636855e-05
-8.210615487769246e-05,5.1323793741175905e-05,6.025297352607595e-06,-5.2048649195057806e-06,4.967648783349432e-05
-6.91356326569803e-05,3.48177163687069e-05,3.570813987607835e-06,-5.698706445400603e-06,5.273470378597267e-05
-4.066964902449399e-05,7.150455530791078e-06,-5.241557232693594e-07,-7.259230642375769e-06,5.8670935686677694e-05
-1.3440409020404331e-05,-1.1431063285272103e-05,-2.3578163563797716e-06,-1.0620725333865266e-05,6.130354449851438e-05
3.128907621885446e-07,-2.4710285288165323e-05,-3.2042003113019746e-06,-8.013620572455693e-06,6.0065089201088995e-05
2.6417142180434894e-06,-4.70576633233577e-05,-7.081123385432875e-06,-2.372391691096709e-06,5.7616474805399776e-05
6.100781774875941e-06,-4.6618228225270286e-05,-9.432856131752487e-06,-5.676041837432422e-06,5.5393273214576766e-05
1.3151186067261733e-05,-1.9639055608422495e-05,-5.422933554655174e-06,-1.154470464825863e-05,5.218225487624295e-05
1.030772637022892e-05,-5.986771043353656e-07,1.1187644304300193e-06,-1.1353496120136697e-05,4.9806312745204195e-05
1.7381391614890163e-07,1.269278163817944e-05,4.614321824192302e-06,-5.757044164056424e-06,5.360461364034563e-05
-2.301965878359624e-06,2.863437657651957e-05,4.965427706338232e-06,-2.0380791738716653e-06,5.861692625330761e-05
-9.880401421469287e-07,4.2686559027060866e-05,4.45187197328778e-06,-1.3186552223487524e-06,6.110664253355935e-05
-6.611747721763095e-06,3.9819809899199754e-05,4.33819877798669e-06,-3.809961299339193e-06,5.972731014480814e-05
-1.87965742952656e-05,2.5215813366230577e-05,7.673335858271457e-06,-3.3860035273391986e-06,5.776473699370399e-05
-3.336960799060762e-05,1.3353667782212142e-05,9.10170729184756e-06,-9.285307669415488e-07,5.62978457310237e-05
-4.730530417873524e-05,1.3332994058146141e-05,4.877711489825742e-06,-3.0167987006279873e-06,5.676391810993664e-05
-5.497182428371161e-05,1.972382960957475e-05,1.3647139667227748e-06,-8.188933861674741e-06,5.774763485533185e-05
-5.420922752819024e-05,2.3398102712235413e-05,6.056150596123189e-06,-1.1496464139781892e-05,5.8035402616951615e-05
-4.857365638599731e-05,2.2521075152326375e-05,1.8173333955928683e-05,-1.0090539944940247e-05,5.79936386202462e-05
-4.363590051070787e-05,1.968939250218682e-05,2.634215707075782e-05,-9.663598575571086e-06,5.959190457360819e-05
-3.9590544474776834e-05,1.9017126760445535e-05,2.3752743800287135e-05,-1.2042981325066648e-05,6.318437226582319e-05
-3.4999160561710596e-05,2.084077277686447e-05,1.5845067537156865e-05,-1.2677214726863895e-05,6.31491348030977e-05
-3.0648854590253904e-05,2.4127981305355206e-05,1.023715958581306e-05,-8.538913789379876e-06,6.164274964248762e-05
-2.4044897145358846e-05,2.5572904633008875e-05,9.890433830150869e-06,-2.729250127231353e-06,6.374433723976836e-05
-1.2508700820035301e-05,2.5990946596721187e-05,1.3203263733885251e-05,3.484691660560202e-06,6.896113336551934e-05
-4.2430601752130315e-06,2.739417141128797e-05,1.3899899386160541e-05,5.855766630702419e-06,7.123941759346053e-05
-7.1479735197499394e-06,2.540220521041192e-05,5.890635293326341e-06,3.6658407225331757e-06,6.985541403992102e-05
-1.72288255271269e-05,1.9094844901701435e-05,-9.044790203915909e-06,2.0995494196540676e-06,6.524796481244266e-05
-2.62986959569389e-05,1.3389507330430206e-05,-2.0584213416441344e-05,3.0116382276901277e-06,6.095283606555313e-05
-2.796523222059477e-05,9.946465070242994e-06,-2.3542741473647766e-05,3.6395524602994556e-06,5.769508788944222e-05
-2.715222399274353e-05,1.0480205673957244e-05,-1.8473279851605184e-05,3.1099875741347205e-06,5.372878513298929e-05
-3.0095845431787893e-05,2.6014179184130626e-06,-9.457597116124816e-06,-3.3663748126855353e-06,5.106234675622545e-05
-3.756825390155427e-05,-1.85354110726621e-05,-9.208370101987384e-07,-1.1296903721813578e-05,5.4591320804320276e-05
-4.8762387450551614e-05,-3.77655633201357e-05,9.770093129191082e-06,-1.4523471691063605e-05,5.9095764299854636e-05
-7.083555101417005e-05,-4.428785905474797e-05,2.123961348843295e-05,-1.7138427210738882e-05,6.016779661877081e-05
-9.335364302387461e-05,-4.4271913793636486e-05,2.8926029699505307e-05,-1.722639899526257e-05,6.224033859325573e-05
-9.671227599028498e-05,-4.3888001528102905e-05,3.410848512430675e-05,-1.0993621799570974e-05,6.382507854141295e-05
-8.136050018947572e-05,-3.5996403312310576e-05,3.446637492743321e-05,-5.116004103911109e-06,6.523366755573079e-05
-6.050099545973353e-05,-1.3866249901184347e-05,3.2231229852186516e-05,-6.304472208285006e-06,6.54815012239851e-05
-4.857098974753171e-05,1.0446628039062489e-05,3.219782229280099e-05,-8.215683919843286e-06,6.418786506401375e-05
-4.1313171095680445e-05,2.713728645176161e-05,3.218858182663098e-05,-1.109227287088288e-05,6.498108268715441e-05
-2.6943558623315766e-05,3.852759255096316e-05,2.9335384169826284e-05,-1.443923065380659e-05,6.49199791951105e-05
-1.3914831242800574e-06,5.649328522849828e-05,2.1311569071258418e-05,-1.497210996603826e-05,6.337443483062088e-05
2.339046841370873e-05,8.684155181981623e-05,9.642332770454232e-06,-1.1311200069030747e-05,6.440594734158367e-05
3.621062569436617e-05,0.00011098594404757023,-9.963742542140608e-08,-6.5103708948299754e-06,6.641249638050795e-05
3.219017889932729e-05,0.00010626763832988217,-4.680566689785337e-06,-3.861544882965973e-06,6.419124110834673e-05
1.3504062735592015e-05,7.764848851365969e-05,-6.738907359249424e-06,-5.512786628969479e-06,5.8854679082287475e-05
-8.797812370175961e-06,5.511789640877396e-05,-8.543996955268085e-06,-8.825893928587902e-06,5.6567121646367013e-05
-2.129200402123388e-05,5.344215242075734e-05,-8.050584256125148e-06,-1.09909160528332e-05,5.8492081734584644e-05
-2.232122096756939e-05,6.759059760952368e-05,-5.814834366901778e-06,-1.2674173376581166e-05,6.0617683629971e-05
-1.9307541151647456e-05,8.81363230291754e-05,-5.190879164729267e-06,-1.3134611435816623e-05,5.897456139791757e-05
-1.818675264075864e-05,0.00010439221659908071,-2.72464967565611e-06,-1.1636523595370818e-05,5.527896428247914e-05
-2.129434324160684e-05,0.00010741660662461072,3.4192016755696386e-06,-8.211021850001998e-06,5.192069511394948e-05
-2.6604167942423373e-05,9.48246379266493e-05,8.633328434370924e-06,-6.493146429420449e-06,5.069683174951933e-05
-2.9571097911684774e-05,6.975847645662725e-05,1.1829280083475169e-05,-6.9270718086045235e-06,5.2928087825421244e-05
-2.4619348550913855e-05,5.006814171792939e-05,1.6981433873297647e-05,-6.857238076918293e-06,5.5948174122022465e-05
-2.0260753444745205e-05,4.735245238407515e-05,1.619324211787898e-05,-6.931100870133378e-06,5.652729305438697e-05
-2.097178548865486e-05,4.730540604214184e-05,1.0442902748764027e-05,-7.467146588169271e-06,5.285775114316493e-05
-1.9579862055252306e-05,3.808777910307981e-05,8.640881787869148e-06,-1.2194145710964222e-05,4.7069315769476816e-05
-1.8756854842649773e-05,1.940476977324579e-05,6.258369012357434e-06,-1.4407130947802216e-05,4.687064574682154e-05
-1.78560076165013e-05,8.958614330367709e-07,8.810746976450901e-07,-1.0010982805397362e-05,5.381171649787575e-05
-1.4611803635489196e-05,-4.938554866384948e-06,-5.479299943544902e-06,-6.721240424667485e-06,5.7333760196343064e-05
-1.1143337360408623e-05,-9.240704343937978e-07,-6.0030088206985965e-06,5.642472729050496e-07,5.402449096436612e-05
-6.440975084842648e-06,1.0052744073618669e-05,-3.6672342957899673e-06,2.4637424758111592e-06,5.120981950312853e-05
-4.686500233219704e-06,2.5540533897583373e-05,-1.641042331357312e-06,-3.4553772820800077e-06,5.246653381618671e-05
-4.50109337180038e-06,3.7538153264904395e-05,-1.7506097265140852e-06,-1.0793306501000188e-05,5.4193758842302486e-05
-6.416785254259594e-06,3.6755165638169274e-05,-2.928160029114224e-06,-1.2881173461209983e-05,5.3074065363034606e-05
-1.1806430848082528e-05,3.307038787170313e-05,-3.659636149677681e-06,-9.690536899142899e-06,5.121256981510669e-05
-2.0963390852557495e-05,3.264918632339686e-05,-3.800930699071614e-06,-9.965765457309317e-06,4.957265991833992e-05
-2.3502510885009542e-05,3.422231748118065e-05,-1.2739428711938672e-07,-1.102747683034977e-05,4.8176039854297414e-05
-1.6301126379403286e-05,3.725231363205239e-05,3.2337793527403846e-06,-1.1127932339149993e-05,4.7620149416616186e-05
-1.017112208501203e-05,3.8588797906413674e-05,2.6502202672418207e-06,-1.2816128219128586e-05,4.9816884711617604e-05
-1.076227181329159e-05,3.487272988422774e-05,-4.1256921576859895e-06,-1.4989968804002274e-05,5.365129254641943e-05
-1.2345396498858463e-05,2.8036416551913135e-05,-1.314091969106812e-05,-1.3351820598472841e-05,5.883635094505735e-05
-1.4013442523719277e-05,2.444917663524393e-05,-1.891890678962227e-05,-1.142206929216627e-05,6.445867620641366e-05
-2.0107712771277875e-05,2.3471255190088414e-05,-1.7655826013651676e-05,-1.3118002243572846e-05,6.617829785682261e-05
-2.5443174308747984e-05,2.3246837372425944e-05,-1.0183809536101762e-05,-1.643389987293631e-05,6.315295468084514e-05
-2.5794892280828208e-05,2.2420706955017522e-05,-4.205087407171959e-06,-1.5840823834878393e-05,5.857991345692426e-05
-2.3498327209381387e-05,2.039188075286802e-05,-1.9782496565312613e-06,-1.3103724995744415e-05,5.696218431694433e-05
-2.232068800367415e-05,1.3717824003833812e-05,1.0080138963530771e-06,-1.3910056622989941e-05,5.696268999599852e-05
-2.1988231310388073e-05,8.910386895877309e-06,1.7261265838897089e-06,-1.6725185560062528e-05,5.624050027108751e-05
-2.8394422770361416e-05,9.542439329379704e-06,-5.729875738325063e-07,-1.5502719179494306e-05,5.720514673157595e-05
-3.461232699919492e-05,1.6644917195662856e-05,-2.774130734906066e-06,-1.3450291589833796e-05,5.9074012824567035e-05
-3.053437831113115e-05,2.4904213205445558e-05,5.843912731506862e-07,-1.1075003385485616e-05,5.9845257055712864e-05
-2.4005579689401202e-05,2.4166121875168756e-05,8.857535249262583e-06,-5.779814273410011e-06,5.718507236451842e-05
-2.369290086789988e-05,2.1495690816664137e-05,1.043290649249684e-05,-2.72521901933942e-06,5.433510523289442e-05
-2.561005203460809e-05,2.264373324578628e-05,5.068630798632512e-06,-1.2686630270763999e-06,5.497790334629826e-05
-2.358771780563984e-05,2.181535637646448e-05,4.5013748604105785e-06,-1.6456471030323883e-06,5.482847700477578e-05
-2.036298428720329e-05,2.2373360479832627e-05,6.972537903493503e-06,-3.0151618375384714e-06,5.388572026276961e-05
-2.5871573598124087e-05,2.301965832884889e-05,2.0027696336910594e-06,-3.899486273439834e-06,5.318496187101118e-05
-3.169638875988312e-05,2.176967063860502e-05,-3.367902309037163e-06,-4.55355166195659e-06,5.254911593510769e-05
-2.7074382160208188e-05,2.1007004761486314e-05,-4.124413862882648e-06,-5.999437235004734e-06,5.300900375004858e-05
-2.176692578359507e-05,1.9976649127784185e-05,-2.9557786547229625e-06,-1.0313995517208241e-05,5.516647070180625e-05
-2.3978167519089766e-05,1.835165312513709e-05,-1.2595231737577706e-06,-1.09633683678112e-05,5.6938963098218665e-05
-2.8258706151973456e-05,2.2615671696257778e-05,2.399200411673519e-06,-8.402900675719138e-06,5.740429332945496e-05
-3.0995703127700835e-05,3.057593494304456e-05,7.94402694737073e-06,-7.385874141618842e-06,5.8128305681748316e-05
-3.44705767929554e-05,3.645944889285602e-05,1.1423564501455985e-05,-8.426087333646137e-06,5.9287940530339256e-05
-3.5689296055352315e-05,3.596796523197554e-05,1.0853377716557588e-05,-9.23430980037665e-06,5.926582161919214e-05
-3.123190253973007e-05,2.9373195502557792e-05,8.436874850303866e-06,-9.08168476598803e-06,5.9048168623121455e-05
-2.5231731342501007e-05,2.4077522539300844e-05,8.716720003576484e-06,-7.793369150022045e-06,6.093353658798151e-05
-2.0598834453267045e-05,2.1556739739025943e-05,8.867144970281515e-06,-5.100333055452211e-06,6.599154585273936e-05
-2.0596748072421178e-05,1.9063096260651946e-05,7.170259323174832e-06,-3.0022899863979546e-06,7.091543375281617e-05
-2.682899867068045e-05,1.4351250683830585e-05,9.928465260600206e-06,-4.305507900426164e-06,6.969510286580771e-05
-3.4199274523416534e-05,1.3963445780973416e-05,1.657756365602836e-05,-8.367837835976388e-06,6.382957508321851e-05
-3.985958028351888e-05,1.956003143277485e-05,1.765925480867736e-05,-9.267932910006493e-06,5.9616126236505806e-05
-4.287139745429158e-05,2.302729626535438e-05,1.4987021131673828e-05,-8.04680985311279e-06,6.0843813116662204e-05
-4.2254097934346646e-05,2.259179927932564e-05,1.4162855222821236e-05,-8.940841325966176e-06,6.330410542432219e-05
-4.158741285209544e-05,2.1709067368647084e-05,1.637271088839043e-05,-1.1465342140581924e-05,6.295611819950864e-05
-3.9215687138494104e-05,1.6580905139562674e-05,1.826705010898877e-05,-1.5306983186746947e-05,6.348653550958261e-05
-3.4661694371607155e-05,1.4966525668569375e-05,1.5718338545411825e-05,-1.7788206605473533e-05,6.447548366850242e-05
-3.212332012481056e-05,2.3669306756346487e-05,1.3532742741517723e-05,-1.6265446902252734e-05,6.203067459864542e-05
-3.044737059099134e-05,2.895581019402016e-05,1.3031292837695219e-05,-1.3172797480365261e-05,5.998946653562598e-05
-3.0344159313244745e-05,2.4168220988940448e-05,1.4287215890362859e-05,-1.4416353224078193e-05,5.873426562175155e-05
-3.2318032026523724e-05,1.6625026546535082e-05,1.4289414139057044e-05,-1.513097777205985e-05,5.593242167378776e-05
-3.727325747604482e-05,1.2634151062229648e-05,1.3680450138053857e-05,-1.0161700629396364e-05,5.5906843044795096e-05
-4.094149699085392e-05,1.609988248674199e-05,1.4882512004987802e-05,-8.16846477391664e-06,6.204607780091465e-05
-4.423769496497698e-05,1.9634842828963883e-05,1.4412318705581129e-05,-1.1252129297645297e-05,6.904322799528018e-05
-4.396294025355019e-05,2.1095702322782017e-05,1.3049138942733407e-05,-1.5842995708226226e-05,6.78450523992069e-05
-3.768790702451952e-05,2.6454350518179126e-05,9.401193892699666e-06,-1.6535830582142808e-05,6.183685036376119e-05
-3.241118974983692e-05,3.186298272339627e-05,1.03100626347441e-06,-1.753157630446367e-05,5.933979628025554e-05
-3.729713353095576e-05,2.8889862733194605e-05,-7.481957254640292e-06,-1.5358429664047435e-05,6.299410597421229e-05
-4.6509401727234945e-05,2.2756892576580867e-05,-1.1854479453177191e-05,-1.2802225683117285e-05,6.699004006804898e-05
-4.9054222472477704e-05,1.7497766748419963e-05,-1.1665473721222952e-05,-1.600119321665261e-05,6.95650014677085e-05
-4.243429793859832e-05,1.7808477423386648e-05,-9.504045920039061e-06,-1.9483408323139884e-05,7.263080624397844e-05
-2.9815686502843164e-05,2.4368207959923893e-05,-9.042002602654975e-06,-1.9226297808927484e-05,7.318893040064722e-05
-2.2101919967099093e-05,3.270644447184168e-05,-1.0321378795197234e-05,-1.820962643250823e-05,7.08726147422567e-05
-2.2042228010832332e-05,3.675279731396586e-05,-8.871073987393174e-06,-1.8124739654012956e-05,6.69200235279277e-05
-2.6050540327560157e-05,3.345581717439927e-05,-1.7009994053296396e-06,-1.6112395314848982e-05,6.351055344566703e-05
-2.6552428607828915e-05,2.905993642343674e-05,8.331479875778314e-06,-1.4026968528924044e-05,6.468821811722592e-05
-2.046801455435343e-05,2.8346514227450825e-05,1.5784064089530148e-05,-1.3297950317792129e-05,6.824234151281416e-05
-1.2233138477313332e-05,3.217328048776835e-05,1.5901763617875986e-05,-1.3073655281914398e-05,6.655042670900002e-05
-8.226133104471955e-06,3.694594488479197e-05,1.0753008609754033e-05,-1.0194332389801275e-05,6.114497955422848e-05
-9.28733788896352e-06,4.009220720035955e-05,1.0197803931077942e-05,-5.8339801398688e-06,5.8105739299207926e-05
-1.1173615348525345e-05,3.925197233911604e-05,1.631799568713177e-05,-4.606440597854089e-06,6.005479008308612e-05
-1.2482776583055966e-05,3.862562880385667e-05,1.4338610526465345e-05,-7.211300271592336e-06,6.214780296431854e-05
-1.8973203623318113e-05,3.706573988893069e-05,3.23409244629147e-06,-8.001617970876396e-06,6.479534931713715e-05
-2.7699499696609564e-05,3.676545384223573e-05,-1.2686317631960264e-06,-8.821955816529226e-06,6.621896318392828e-05
-3.31706105498597e-05,3.931200262741186e-05,-1.0710613196351915e-06,-1.2133536984038074e-05,6.420775753213093e-05
-3.329063474666327e-05,3.924930570065044e-05,3.108378678007284e-06,-1.577836155775003e-05,6.527976802317426e-05
-2.9692124371649697e-05,3.4083139325957745e-05,1.0834186468855478e-05,-1.521215290267719e-05,6.447590567404404e-05
-2.6924732082989067e-05,3.1475461582886055e-05,1.0466058483871166e-05,-1.0030158591689542e-05,6.325533468043432e-05
-2.256606239825487e-05,3.19605678669177e-05,7.371787887677783e-06,-4.755156624014489e-06,6.416936230380088e-05
-1.9234936189604923e-05,3.232187373214401e-05,7.51504376239609e-06,-4.36143682236434e-06,6.453515379689634e-05
-1.8027980331680737e-05,3.097718581557274e-05,5.368805432226509e-06,-5.850515663041733e-06,6.713275797665119e-05
-1.7974263755604625e-05,3.108492091996595e-05,2.610782303236192e-06,-6.512377694889437e-06,6.911344826221466e-05
-1.7525193470646627e-05,3.6055258533451706e-05,2.486210860297433e-06,-5.837152002641233e-06,7.0839625550434e-05
-1.7426929844077677e-05,4.0848637581802905e-05,2.4606215447420254e-06,-5.936940851825057e-06,7.162340625654906e-05
-1.9743991288123652e-05,4.3449173972476274e-05,4.99796033182065e-06,-7.4804024734476116e-06,6.837220280431211e-05
-2.23671904677758e-05,4.4475800677901134e-05,7.626108981639845e-06,-1.0751630725280847e-05,6.499423034256324e-05
-2.3747430532239377e-05,4.438225005287677e-05,4.74742091682856e-06,-1.3247403330751695e-05,6.41507504042238e-05
-2.0557057723635808e-05,3.9913400541990995e-05,-2.0148372641415335e-06,-1.3519579624698963e-05,6.409306661225855e-05
-1.4849918443360366e-05,3.297047805972397e-05,-6.65949937683763e-06,-1.2546354810183402e-05,6.44563915557228e-05
-1.1962298231082968e-05,1.9405859347898513e-05,-8.639106454211287e-06,-1.2814703040930908e-05,6.582137575605884e-05
-1.3661509001394734e-05,3.504807182252989e-06,-9.278387551603373e-06,-1.552927278680727e-05,6.505768396891654e-05
-1.652399259910453e-05,7.873022696003318e-07,-7.510813247790793e-06,-1.5589808754157275e-05,6.20690334471874e-05
-1.6821504686959088e-05,1.1840708793897647e-05,-2.830303628797992e-06,-1.4342193026095629e-05,6.239319918677211e-05
-1.707296905806288e-05,2.2980473659117706e-05,2.7344874524715124e-06,-1.3127455531503074e-05,6.388882320607081e-05
-1.6623473129584454e-05,2.8635300623136573e-05,5.769582003267715e-06,-1.1204121619812213e-05,6.448131171055138e-05
-1.3154671250958927e-05,3.168746115989052e-05,6.183074219734408e-06,-7.766135240672156e-06,6.58336648484692e-05
-1.0792008652060758e-05,3.174780431436375e-05,2.35512743529398e-06,-6.434254828491248e-06,6.684714753646404e-05
-1.2520251402747817e-05,3.221826409571804e-05,-3.648687425084063e-06,-8.71382962941425e-06,6.576169835170731e-05
-1.5393881767522544e-05,3.3977077691815794e-05,-5.9326353039068636e-06,-1.2264433280506637e-05,6.302167457761243e-05
-1.7738189853844233e-05,3.372303763171658e-05,-1.1184428103661048e-06,-1.4974128134781495e-05,5.99816266912967e-05
-1.8320948584005237e-05,3.542526610544883e-05,5.9827020777447615e-06,-1.608288766874466e-05,5.758215775131248e-05
-1.685144889052026e-05,3.8335878343787044e-05,7.198866114777047e-06,-1.1563625776034314e-05,5.820622754981741e-05
-1.9226641597924754e-05,3.85266357625369e-05,4.426345185493119e-06,-6.290094916039379e-06,5.827188942930661e-05
-2.0869374566245824e-05,3.809547706623562e-05,5.459029580379138e-06,-4.401209480420221e-06,5.5328764574369416e-05
-2.042955020442605e-05,3.6141511372989044e-05,9.235528523277026e-06,-8.750350389163941e-06,5.592390152742155e-05
-2.111514550051652e-05,3.6864341382170096e-05,9.745259376359172e-06,-1.3036508789809886e-05,6.0472732002381235e-05
-2.133753696398344e-05,3.418688356759958e-05,5.306008461047895e-06,-1.3404223864199594e-05,6.255890912143514e-05
-2.3324526409851387e-05,2.7150585083290935e-05,3.136826535410364e-06,-1.3746949662163388e-05,5.93499316892121e-05
-2.5525519959046505e-05,2.2968797566136345e-05,6.399167887138901e-06,-1.0404385648143943e-05,5.441245957626961e-05
-2.4553972252761014e-05,2.5610877855797298e-05,1.1101299605797976e-05,-5.931575287831947e-06,5.223894549999386e-05
-2.0196986952214502e-05,3.0983843316789716e-05,1.0808008482854348e-05,-2.661890903254971e-06,4.8848411097424105e-05
-1.944367977557704e-05,3.0426868761423975e-05,3.248852181059192e-06,-2.6677516871131957e-06,4.676251410273835e-05
-2.248591226816643e-05,2.8839051083195955e-05,-6.291969384619733e-06,-3.7980560136929853e-06,4.715959948953241e-05
-2.864857560780365e-05,2.6090978280990385e-05,-1.0715745702327695e-05,-6.923838554939721e-06,4.599167368724011e-05
-3.073358311667107e-05,2.2833210095996037e-05,-6.927959475433454e-06,-9.497864084551111e-06,4.380308746476658e-05
-2.9164168154238723e-05,2.3458718715119176e-05,-9.975372705639529e-08,-8.066298505582381e-06,4.4025975512340665e-05
-3.0851235351292416e-05,2.8215748898219317e-05,5.392509137891466e-06,-5.6867693274398334e-06,4.76390341646038e-05
-3.5379209293751046e-05,2.7538129870663397e-05,1.223462459165603e-05,-5.352122570911888e-06,4.926183828501962e-05
-3.858191121253185e-05,2.2808015273767523e-05,2.0481666069827043e-05,-8.301070920424536e-06,4.906200774712488e-05
-4.0843646274879575e-05,2.0688308723038062e-05,2.5551071303198114e-05,-1.349756530544255e-05,5.048888488090597e-05
-4.293985330150463e-05,2.0264809791115113e-05,2.751651845755987e-05,-1.7684345948509872e-05,5.184233305044472e-05
-3.2267369533656165e-05,2.033358941844199e-05,2.8694264983641915e-05,-1.6544585378142074e-05,5.236903598415665e-05
-8.127392902679276e-06,2.0907114958390594e-05,2.6287885702913627e-05,-1.2594132385856938e-05,5.36805200681556e-05
1.0708103218348697e-05,1.998744482989423e-05,2.1657378965755925e-05,-1.0426108019601088e-05,5.4290994739858434e-05
1.0628374184307177e-05,1.9519477064022794e-05,1.6868030797922984e-05,-1.1027437722077593e-05,5.27662159583997e-05
-4.861866727878805e-06,2.0938305169693194e-05,7.266251031978754e-06,-1.4343519069370814e-05,5.069287362857722e-05
-2.084171683236491e-05,2.1473040760611184e-05,-4.65906896351953e-06,-1.8682714653550647e-05,5.025126301916316e-05
-1.941638947755564e-05,2.4884215235942975e-05,-1.2258165043022018e-05,-1.7888316506287083e-05,4.989987064618617e-05
-1.584703227308637e-06,3.059936352656223e-05,-1.2656268154387362e-05,-1.4643294889538083e-05,5.1112980145262554e-05
1.0078771992994007e-05,3.0816936487099156e-05,-5.354286258807406e-06,-1.2693715689238161e-05,5.5631335271755233e-05
1.4196543816069607e-06,2.3957616576808505e-05,5.088996658741962e-06,-9.607594620320015e-06,5.9584981499938294e-05
-1.1937001545447856e-05,2.28292919928208e-05,1.0109005415870342e-05,-7.2836896833905485e-06,6.183637015055865e-05
-2.4012138965190388e-05,2.5586370611563325e-05,1.3407921869657002e-05,-9.598894394002855e-06,6.117952580098063e-05
-2.676541953405831e-05,2.6385383534943685e-05,1.7224878320121206e-05,-1.0329666110919788e-05,5.8467561757424846e-05
-2.1486963305505924e-05,2.5581897716620006e-05,1.590836291143205e-05,-6.135092007752974e-06,5.632173997582868e-05
-2.4678040063008666e-05,2.3628463168279268e-05,1.2250247891643085e-05,-7.925709724077024e-06,5.440205495688133e-05
-3.165293310303241e-05,2.715762639127206e-05,8.474593414575793e-06,-1.2487942512962036e-05,5.360143768484704e-05
-3.471715172054246e-05,3.130995173705742e-05,4.682133749156492e-06,-1.6778514691395685e-05,5.4190695664146915e-05
-3.687231946969405e-05,2.6850861104321666e-05,2.0928405319864396e-06,-1.990354576264508e-05,5.643006079480983e-05
-3.958686284022406e-05,1.885370511445217e-05,1.649851128604496e-06,-1.8835886294255033e-05,5.7449178711976856e-05
-4.0958817407954484e-05,1.4606770491809584e-05,5.200676696404116e-06,-1.852314017014578e-05,5.6275046517839655e-05
-4.3207473936490715e-05,1.534518742118962e-05,1.0801370081026107e-05,-1.9834909835481085e-05,5.538684126804583e-05
-4.785805504070595e-05,1.931494080054108e-05,1.337309913651552e-05,-1.761406019795686e-05,5.506696106749587e-05
-5.0610728067113087e-05,2.5191533495672047e-05,8.943817192630377e-06,-1.2167842214694247e-05,5.502460044226609e-05
-5.165131005924195e-05,2.8492255296441726e-05,3.8087064240244217e-06,-8.491585504089016e-06,5.523408981389366e-05
-5.7328692491864786e-05,2.5626859496696852e-05,3.864558038912946e-06,-7.161608664318919e-06,5.469931420520879e-05
-6.374789518304169e-05,1.971178971871268e-05,8.38132018543547e-06,-9.145165677182376e-06,5.3809508244739845e-05
-6.48040440864861e-05,1.867855644377414e-05,1.1986288882326335e-05,-1.4363085028890055e-05,5.340905045159161e-05
-6.000510256853886e-05,2.4741948436712846e-05,9.920832781062927e-06,-1.9369133951840922e-05,5.362977390177548e-05
-5.334373054211028e-05,3.320602263556793e-05,4.218930826027645e-06,-1.8915032342192717e-05,5.444531052489765e-05
-4.5691700506722555e-05,3.954662679461762e-05,-1.4308088793768547e-06,-1.365160096611362e-05,5.553143273573369e-05
-3.869433930958621e-05,4.3924264900851995e-05,-3.554507657099748e-06,-1.0369496521889232e-05,5.87163376621902e-05
-3.7837729905731976e-05,4.784323027706705e-05,-2.0188160760881146e-06,-1.0434807336423546e-05,6.0337610193528235e-05
-4.3776293750852346e-05,4.822373011847958e-05,-3.0560913728550076e-06,-1.013137080008164e-05,5.470926043926738e-05
-4.609095412888564e-05,4.9517631850903854e-05,-9.848527042777278e-06,-8.425509804510511e-06,4.965740299667232e-05
-4.2184597987215966e-05,5.843693361384794e-05,-1.3374445188674144e-05,-6.338888852042146e-06,5.2558909374056384e-05
-3.990172263002023e-05,6.181578646646813e-05,-7.553966952400515e-06,-5.1580232138803694e-06,5.6260021665366367e-05
-3.424267561058514e-05,3.838222619378939e-05,-5.386548309616046e-07,-9.531974683341105e-06,5.795033212052658e-05
-2.0770217815879732e-05,4.383388841233682e-06,-1.6454987417091615e-07,-1.5563711713184603e-05,6.288307486101985e-05
-1.00143879535608e-05,-4.599902240443043e-06,3.190152995102835e-07,-1.2852417057729326e-05,6.619598570978269e-05
-8.660808816784993e-06,1.0351009223086294e-05,2.168843366234796e-06,-5.056056124885799e-06,6.106321234256029e-05
-1.6209900422836654e-05,2.3019105356070213e-05,1.219027865317912e-07,-1.6672430547259864e-06,5.4693096899427474e-05
-2.134038004442118e-05,2.1119591110618785e-05,-6.28491397947073e-06,-8.702896593604237e-06,5.507272726390511e-05
-1.334506396233337e-05,1.3206074982008431e-05,-9.204832167597488e-06,-1.5289719158317894e-05,5.99722916376777e-05
-9.272088732359407e-07,8.701571459823754e-06,-5.825711468787631e-06,-1.2908808457723353e-05,6.362421117955819e-05
8.841393537295517e-06,6.41916358290473e-06,-5.133946160640335e-06,-7.281224498001393e-06,6.530912651214749e-05
1.9767740013776347e-05,4.384659405332059e-06,-7.717850166955031e-06,-2.4074192879197653e-06,6.463846511906013e-05
2.7937820050283335e-05,-1.1010354228346841e-06,-6.7397154452919494e-06,-6.522841999867524e-07,6.15790777374059e-05
2.2506183086079545e-05,-6.4709424805187155e-06,-3.73010016119224e-06,-3.3995156627497636e-06,5.660354145220481e-05
4.101615104445955e-06,-3.7569136566162342e-06,-7.397001809295034e-06,-9.151945960184094e-06,5.435736966319382e-05
-1.394314404024044e-05,8.803612217889167e-06,-1.56424030137714e-05,-1.2372684068395756e-05,5.831309317727573e-05
-2.217277324234601e-05,2.3143900762079284e-05,-1.8859480405808426e-05,-1.2746953871101141e-05,6.491028761956841e-05
-2.3003060050541535e-05,3.259546065237373e-05,-1.593248816789128e-05,-1.2776418770954479e-05,6.635404861299321e-05
-2.567776755313389e-05,3.868307248922065e-05,-1.2130232789786533e-05,-1.0391036994406022e-05,6.122438207967207e-05
-3.268252112320624e-05,4.689486377174035e-05,-6.362329713738291e-06,-5.141775545780547e-06,5.603095269179903e-05
-3.834019662463106e-05,5.9073612646898255e-05,2.1291014036251e-06,-3.144989250358776e-06,5.365042670746334e-05
-3.9477097743656486e-05,6.966496584936976e-05,1.0274953638145234e-05,-6.621751708735246e-06,5.24590395798441e-05
-3.7579397030640393e-05,7.058009214233607e-05,1.8160488252760842e-05,-1.167756363429362e-05,5.180847801966593e-05
-3.599857882363722e-05,6.316140206763521e-05,2.5037579689524136e-05,-1.6179352314793505e-05,5.4059688409324735e-05
-3.664464384200983e-05,5.7310957345180213e-05,2.9446970074786805e-05,-1.6710830095689744e-05,5.785875691799447e-05
-4.083997191628441e-05,5.05915995745454e-05,3.299913078080863e-05,-1.289324245590251e-05,6.034297257428989e-05
-4.2639403545763344e-05,4.489919592742808e-05,3.4045187931042165e-05,-1.229843110195361e-05,6.201873475220054e-05
-3.596881288103759e-05,4.2935327655868605e-05,3.320330142742023e-05,-1.252907622983912e-05,6.351873162202537e-05
-3.276010829722509e-05,3.645560718723573e-05,3.4193006285931915e-05,-1.2325433090154547e-05,6.400929851224646e-05
-3.478326470940374e-05,2.9955450372654013e-05,3.859299249597825e-05,-1.3366094208322465e-05,6.421063153538853e-05
-3.2472154998686165e-05,3.340666080475785e-05,3.8745547499274835e-05,-9.883219718176406e-06,6.376542296493426e-05
-3.076899884035811e-05,3.930565435439348e-05,3.305275095044635e-05,-4.811829512618715e-06,6.274336919886991e-05
-3.432015000726096e-05,3.701714376802556e-05,2.9717428333242424e-05,-2.5339797957713017e-06,6.100897735450417e-05
-4.0983584767673165e-05,2.4178509193006903e-05,2.6374686058261432e-05,-8.446024367003702e-06,5.7306679082103074e-05
-3.822745566139929e-05,1.3059873708698433e-05,2.51249748544069e-05,-1.7110691260313615e-05,5.3831689001526684e-05
-3.322767952340655e-05,1.3795081031275913e-05,2.212624895037152e-05,-1.693602098384872e-05,5.503595093614422e-05
-3.834663948509842e-05,1.831472764024511e-05,1.7166170437121764e-05,-1.4756241398572456e-05,5.729241456720047e-05
-4.5781463995808735e-05,2.1271804143907502e-05,1.153966695710551e-05,-1.3029765796090942e-05,5.7317185564897954e-05
-4.633891876437701e-05,2.2411541067413054e-05,6.908826890139608e-06,-1.107349726225948e-05,5.702712223865092e-05
-4.06362050853204e-05,2.1360661776270717e-05,6.895715159771498e-06,-9.625143320590723e-06,5.9477730246726424e-05
-3.455128535279073e-05,2.3535083528258838e-05,8.688612979312893e-06,-8.440322744718287e-06,6.129664689069614e-05
-2.93829471047502e-05,3.3303251257166266e-05,8.544382581021637e-06,-4.5913343456049915e-06,6.10818387940526e-05
-2.6066312784678303e-05,4.284263923182152e-05,4.87310899188742e-06,-1.8730579540715553e-06,6.020179716870189e-05
-2.3636841433472e-05,4.439039184944704e-05,5.919830982747953e-06,-4.740504209621577e-06,5.95235287619289e-05
-2.3449021682608873e-05,4.129670196562074e-05,1.4203852515493054e-05,-1.0179763194173574e-05,6.22115476289764e-05
-2.425983257126063e-05,3.698926229844801e-05,1.926956065290142e-05,-1.3081898032396566e-05,6.85043924022466e-05
-2.2260464902501553e-05,3.2343312341254205e-05,1.6525589671800844e-05,-1.4164387721393723e-05,7.375475252047181e-05
-1.9691959096235223e-05,2.9882254239055328e-05,1.3508730262401514e-05,-1.2685542060353328e-05,7.291603833436966e-05
-2.2180440282681957e-05,2.902092455769889e-05,9.044860235007945e-06,-5.660305305354996e-06,6.793552165618166e-05
-2.6603378501022235e-05,2.6299461751477793e-05,3.859343451040331e-06,-9.714131010696292e-07,6.400807615136728e-05
-2.6111802071682177e-05,2.510196645744145e-05,3.830963123618858e-06,-3.16906334774103e-06,6.378730176948011e-05
-2.2604395780945197e-05,2.7665648303809576e-05,1.0136142918781843e-05,-9.021625373861752e-06,6.501417374238372e-05
-2.5616376660764217e-05,2.8847542125731707e-05,1.1844385880976915e-05,-1.3345711522561032e-05,6.595443846890703e-05
-3.245258267270401e-05,3.237278724554926e-05,2.117961912517785e-06,-1.262604655494215e-05,6.813432992203161e-05
-3.2134950743056834e-05,4.217137393425219e-05,-1.3990973457111977e-05,-4.755488134833286e-06,6.902132736286148e-05
-2.9192429792601615e-05,4.771089879795909e-05,-2.8218153602210805e-05,3.308032034965436e-07,6.334642966976389e-05
-3.0647315725218505e-05,5.02165021316614e-05,-3.058270158362575e-05,-1.950397745531518e-06,5.7690791436471045e-05
-3.52378046954982e-05,5.164576941751875e-05,-2.5746428946149535e-05,-7.39423467166489e-06,5.799432619824074e-05
-3.524522981024347e-05,5.136601612321101e-05,-1.7970083717955276e-05,-1.2660812899412122e-05,6.058308281353675e-05
-2.7481650249683298e-05,5.0416078011039644e-05,-1.1969375918852165e-05,-1.5473699022550136e-05,6.304631097009405e-05
-2.0523219063761644e-05,4.5135700929677114e-05,-9.048470019479282e-06,-1.6999578292598017e-05,6.62651436869055e-05
-2.0823761587962508e-05,3.820480560534634e-05,-2.3330876501859166e-06,-1.923361560329795e-05,6.682970706606284e-05
-2.1714322429033928e-05,3.1678220693720505e-05,4.413088390720077e-06,-1.9416116629145108e-05,6.364321598084643e-05
-1.742966560414061e-05,2.659618985489942e-05,1.2514546142483596e-05,-1.5426125173689798e-05,5.823307583341375e-05
-1.6348249118891545e-05,1.5732111933175474e-05,2.1790576283819973e-05,-1.138667266786797e-05,5.508110189111903e-05
-1.7639435100136325e-05,2.3620170850335853e-06,2.298566687386483e-05,-1.0265518540109042e-05,5.458835221361369e-05
-1.9349708964000456e-05,-8.917245395423379e-06,1.65929741342552e-05,-9.120337381318677e-06,5.3258372645359486e-05
-2.0752901036757976e-05,-1.5641455320292152e-05,1.1203700523765292e-05,-5.1512902246031445e-06,4.961349623044953e-05
-1.8804455976351164e-05,-1.206288652610965e-05,8.41289966047043e-06,-6.658060556219425e-07,4.760517185786739e-05
-1.4476770047622267e-05,9.618994454285712e-07,5.458160103444243e-06,-2.195854222009075e-06,5.222772233537398e-05
-1.2894631254312117e-05,1.4853761058475357e-05,-1.3070497573153261e-07,-7.858507160563022e-06,6.005563773214817e-05
-1.763865839166101e-05,2.182810021622572e-05,-7.162374458857812e-06,-1.1035303032258525e-05,6.412230868590996e-05
-2.4117562134051695e-05,2.3410138965118676e-05,-1.4000556802784558e-05,-1.1125729542982299e-05,6.387159373844042e-05
-2.8438977096811868e-05,2.207260695286095e-05,-1.9487533791107126e-05,-1.2302882169024087e-05,6.274644692894071e-05
-2.723820216488093e-05,2.3697233700659126e-05,-1.8969130906043574e-05,-1.574168709339574e-05,6.039323488948867e-05
-2.401644815108739e-05,3.223003295715898e-05,-1.2123266060370952e-05,-1.6554164176341146e-05,5.791948569822125e-05
-1.8971379176946357e-05,4.242065188009292e-05,-3.114323590125423e-06,-1.3077397852612194e-05,5.597163180937059e-05
-1.2152549970778637e-05,4.6603032387793064e-05,6.132057478680508e-06,-1.1801303116953932e-05,5.539610356208868e-05
-9.883757229545154e-06,4.313404133426957e-05,1.3940760254627094e-05,-1.4820525393588468e-05,5.580548895522952e-05
-1.4289702448877506e-05,3.9333797758445144e-05,1.7967999156098813e-05,-1.6946007235674188e-05,5.817363489768468e-05
-1.7315534933004528e-05,4.4547537981998175e-05,1.6741772924433462e-05,-1.5378560419776477e-05,6.0425936680985615e-05
-1.7563632354722358e-05,4.943828025716357e-05,1.528512075310573e-05,-1.3210222277848516e-05,5.830905502079986e-05
-1.7358641343889758e-05,4.333664764999412e-05,2.0565827071550302e-05,-1.2986893125344068e-05,5.569158383877948e-05
-1.9220768081140704e-05,3.252118767704815e-05,2.595371552160941e-05,-1.1416712368372828e-05,5.747805334976874e-05
-2.471932748449035e-05,3.328094317112118e-05,2.1127012587385252e-05,-7.257557626871858e-06,5.962153954897076e-05
-2.404985934845172e-05,3.78993536287453e-05,1.3606913853436708e-05,-4.496126621233998e-06,5.846475687576458e-05
-2.187116479035467e-05,3.360917980899103e-05,1.1095738045696635e-05,-4.982212431059452e-06,5.71039090573322e-05
-2.343406231375411e-05,2.492770909157116e-05,9.15274995350046e-06,-2.5202475626429077e-06,5.812573726871051e-05
-2.3875214537838474e-05,1.535664159746375e-05,1.1041874131478835e-05,-1.2594055078807287e-06,5.82258689973969e-05
-2.0900139134027995e-05,1.0883519280469045e-05,1.3881972336093895e-05,-5.016215254727285e-06,5.711408084607683e-05
-1.964388502528891e-05,1.13272835733369e-05,1.548104228277225e-05,-1.1037272997782566e-05,5.52199526282493e-05
-2.80678450508276e-05,1.4427963833441027e-05,1.6796991985756904e-05,-1.2567795238282997e-05,5.407314529293217e-05
-4.473106309887953e-05,1.9861725377268158e-05,1.8462716980138794e-05,-1.0458835276949685e-05,5.508301910595037e-05
-5.7220458984375e-05,2.644035339471884e-05,1.9708581021404825e-05,-7.566962722194148e-06,5.643766780849546e-05
-5.177372440812178e-05,3.193659722455777e-05,1.8251634173793718e-05,-5.484083430928877e-06,5.421930109150708e-05
-3.143270805594511e-05,3.6871133488602936e-05,1.3559071703639347e-05,-5.372480245569022e-06,4.9173046136274934e-05
-1.3161663446226157e-05,3.9251750422408804e-05,6.511062110803323e-06,-7.188409654190764e-06,4.990387969883159e-05
-9.520831554254983e-06,3.707978976308368e-05,-1.691834370376455e-07,-1.0567995559540577e-05,5.589968350250274e-05
-1.9059638361795805e-05,3.3985183108597994e-05,2.4440208079568038e-08,-1.552067624288611e-05,6.0634574765572324e-05
-3.745498543139547e-05,3.300983371445909e-05,7.662122698093299e-06,-2.0574896552716382e-05,6.123821367509663e-05
-5.104231968289241e-05,3.0011811759322882e-05,1.231019359693164e-05,-2.2207417714525945e-05,5.987723852740601e-05
-4.220413029543124e-05,2.667086482688319e-05,1.0539814866206143e-05,-2.138849777111318e-05,6.156492599984631e-05
-1.1056104085582774e-05,2.8645474230870605e-05,8.251907274825498e-06,-1.6339698049705476e-05,6.728708103764802e-05
2.5127881599473767e-05,3.310649117338471e-05,8.655171768623404e-06,-9.260495971830096e-06,7.124138937797397e-05
4.609039388014935e-05,3.629058846854605e-05,1.0731079782999586e-05,-6.452975867432542e-06,7.310856017284095e-05
4.164385609328747e-05,3.8820362533442676e-05,1.2803249774151482e-05,-7.006497071415652e-06,7.410171383526176e-05
2.02662395167863e-05,4.229990372550674e-05,9.692422281659674e-06,-8.887132025847677e-06,6.965074862819165e-05
-4.638986411009682e-06,4.241759961587377e-05,6.5682993408699986e-06,-1.129822794609936e-05,5.988980774418451e-05
-2.9484668630175292e-05,4.028350303997286e-05,8.04571664048126e-06,-1.1585183528950438e-05,5.124271410750225e-05
-4.923033338855021e-05,3.653149906313047e-05,1.1188121789018624e-05,-1.2507159226515796e-05,5.115656676935032e-05
-5.70634838368278e-05,2.4210639821831137e-05,7.870586159697268e-06,-1.0632462362991646e-05,5.588571366388351e-05
-5.264541323413141e-05,1.2520331438281573e-05,-8.312815111821692e-07,-8.547684046789072e-06,5.566482286667451e-05
-4.0195318433688954e-05,1.20344921015203e-05,-4.743503268400673e-06,-7.81060862209415e-06,5.278415119391866e-05
-2.2982905647950247e-05,1.7290658433921635e-05,-3.7556508232228225e-06,-7.6860796980327e-06,5.5050175433279946e-05
-5.565242645388935e-06,1.928448909893632e-05,-3.208624548278749e-06,-1.0938977538899053e-05,5.9930505813099444e-05
6.262517217692221e-06,2.1951409507892095e-05,-6.693011300740181e-07,-1.3341741578187793e-05,5.8913170505547896e-05
1.1809369425463956e-05,2.690796463866718e-05,1.0601709163893247e-06,-1.2821174095734023e-05,5.6064658565446734e-05
8.966419045464136e-06,2.5805880795815028e-05,-1.9857261577271856e-06,-1.3898220458941069e-05,5.4778254707343876e-05
-7.625322723470163e-06,1.9335979231982492e-05,-1.7511016494609066e-06,-1.2453192539396696e-05,5.329131818143651e-05
-2.64635200437624e-05,1.428824270988116e-05,3.2557115900999634e-06,-8.779637028055731e-06,5.079119364381768e-05
-3.837946496787481e-05,1.4691203432448674e-05,1.0005058356910013e-05,-7.255385753524024e-06,4.760282899951562e-05
-4.7890407586237416e-05,1.5663888916606084e-05,1.0889081750065088e-05,-6.305876468104543e-06,4.5506003516493365e-05
-5.4313433793140575e-05,1.9902812709915452e-05,5.488120677910047e-06,-3.519993697409518e-06,4.6191635192371905e-05
-5.308650725055486e-05,2.554256388975773e-05,2.758228902166593e-06,1.0318269261233581e-07,4.984861516277306e-05
-4.441036799107678e-05,2.7496607799548656e-05,6.872361609566724e-06,-5.33689558324113e-07,5.4174208344193175e-05
-3.550402834662236e-05,2.5937670216080733e-05,1.1283760613878258e-05,-5.17357239004923e-06,5.90372146689333e-05
-3.5030072467634454e-05,2.3999415134312585e-05,1.0830228347913362e-05,-1.0325603398086969e-05,6.156479503260925e-05
-4.169967724010348e-05,1.9742314179893583e-05,7.239800652314443e-06,-1.3173192201065831e-05,6.0772134020226076e-05
-4.393306517158635e-05,1.2476859410526231e-05,1.4896178299750318e-06,-1.44612949952716e-05,5.854773917235434e-05
-3.816183016169816e-05,7.9645824371255e-06,-3.5230323192081414e-06,-1.4069208191358484e-05,5.7398479839321226e-05
-3.199241109541617e-05,4.517405159276677e-06,-4.4993921619607136e-06,-1.2757733202306554e-05,5.795012111775577e-05
-2.9054172046016902e-05,4.0311183511221316e-06,1.5951098220057247e-08,-1.0430753718537744e-05,5.754044832428917e-05
-2.9271675884956494e-05,1.0803781151480507e-05,2.686470907065086e-06,-7.016315976215992e-06,5.471050462801941e-05
-3.6928664485458285e-05,1.8867493054131046e-05,-3.0532396522175986e-06,-3.0435260214289883e-06,5.277117816149257e-05
-4.611024269252084e-05,2.3782065909472294e-05,-9.928609870257787e-06,-2.3819832506433158e-07,4.923185770167038e-05
-4.9871348892338574e-05,2.65951530309394e-05,-8.483417332172394e-06,-2.6756511033454444e-06,4.607442315318622e-05
-5.1386552513577044e-05,2.3951199182192795e-05,-2.7056601084041176e-06,-7.05207048667944e-06,4.841365807806142e-05
-4.675365562434308e-05,1.565732600283809e-05,2.8391154955897946e-06,-5.334021352609852e-06,4.947428169543855e-05
-4.091397931915708e-05,9.033419701154344e-06,2.4097746518236818e-06,-3.94390917790588e-06,4.59233378933277e-05
-3.950396057916805e-05,9.224390851159114e-06,-9.772173143574037e-06,-1.0790446140163112e-05,4.335889025242068e-05
-4.25002581323497e-05,1.307077855017269e-05,-1.8915281543741003e-05,-1.8793673007166944e-05,4.059743514517322e-05
-5.2685998525703326e-05,1.3230626791482791e-05,-1.6285304809571244e-05,-2.2066644305596128e-05,3.600904165068641e-05
-6.32132068858482e-05,6.838791705376934e-06,-1.011971562547842e-05,-1.8568885934655555e-05,3.757623562705703e-05
-6.719265365973115e-05,7.534920314355986e-06,-4.585299393511377e-06,-1.1375788744771853e-05,4.4004347728332505e-05
-6.564725481439382e-05,1.7133877918240614e-05,-5.402579290603171e-07,-9.37512049858924e-06,4.935238393954933e-05
-5.929387771175243e-05,2.7705056709237397e-05,1.7608236930755083e-06,-1.06126371974824e-05,5.05089592479635e-05
-4.828819874092005e-05,3.999949694843963e-05,6.3297278529717e-07,-1.2664591849897988e-05,4.935838296660222e-05
-3.757510057766922e-05,6.075336204958148e-05,-5.376793410505343e-08,-1.195253207697533e-05,4.81178067275323e-05
-2.663791019585915e-05,8.719071774976328e-05,4.532917955657467e-06,-1.0370417840022128e-05,5.003368278266862e-05
-1.6923742805374786e-05,0.00010472990106791258,9.178494110528845e-06,-9.285550731874537e-06,5.4209347581490874e-05
-9.20743423193926e-06,0.00010363583714934066,8.029322088987101e-06,-9.717976354295388e-06,5.719128603232093e-05
1.3616569276564405e-06,8.480282122036442e-05,2.7152987058798317e-06,-1.2236185284564272e-05,5.934005821472965e-05
1.5082442587299738e-05,5.7307413953822106e-05,-9.925208814820508e-07,-1.4039987945579924e-05,6.05434543103911e-05
2.6482899556867778e-05,2.8496917366283014e-05,6.354481456583017e-07,-1.5088126929185819e-05,6.144827784737572e-05
3.386338357813656e-05,1.7773692206901615e-06,4.3897666728298645e-06,-1.5543346307822503e-05,6.099382881075144e-05
3.94885973946657e-05,-1.6348032659152523e-05,3.0841247280477546e-06,-1.7436739653931e-05,6.112028495408595e-05
4.0618033381178975e-05,-2.154200592485722e-05,1.3878352547180839e-06,-1.998498737521004e-05,6.447401392506436e-05
3.215260585420765e-05,-1.9488545149215497e-05,3.833698883681791e-06,-1.8274906324222684e-05,6.858784763608128e-05
1.4054225175641477e-05,-1.3432262676360551e-05,3.5376997402636334e-06,-1.0929010386462323e-05,6.875105464132503e-05
-4.710780103778234e-06,-6.915964149811771e-06,-4.277213975001359e-06,-7.185531558207003e-06,6.57798518659547e-05
-1.8885682948166505e-05,-2.834826545949909e-06,-1.506802891526604e-05,-7.490554253308801e-06,6.553261482622474e-05
-2.6015306502813473e-05,8.555468411941547e-06,-1.8817516320268624e-05,-9.046158083947375e-06,6.796068191761151e-05
-2.8132650186307728e-05,2.96442631224636e-05,-1.1913661182916258e-05,-9.810450137592852e-06,6.678079080302268e-05
-3.0430885090027004e-05,4.816718865185976e-05,2.112094762196648e-06,-1.0920366548816673e-05,6.338753883028403e-05
-3.2666142942616716e-05,5.408466677181423e-05,1.7339987607556395e-05,-1.1498029380163644e-05,6.202043732628226e-05
-3.087629011133686e-05,4.704236562247388e-05,2.5500137780909427e-05,-1.1620204531936906e-05,6.603940710192546e-05
-2.7099920771433972e-05,3.952574115828611e-05,2.8804686735384166e-05,-1.078167770174332e-05,6.8083536461927e-05
-2.8413765903678723e-05,3.6584227927960455e-05,3.269483204348944e-05,-1.0189622116740793e-05,6.342101551126689e-05
-3.271648529334925e-05,2.913662865466904e-05,3.3783973776735365e-05,-1.0831235158548225e-05,6.073209806345403e-05
-3.5331850085640326e-05,1.9891509509761818e-05,3.319849565741606e-05,-7.1134154495666735e-06,6.116195436334237e-05
-3.438693966018036e-05,2.150894215446897e-05,3.1275529181584716e-05,-6.551640581164975e-06,6.192581349750981e-05
-3.555519651854411e-05,2.984924503834918e-05,2.618659709696658e-05,-1.3039364603173453e-05,6.380789272952825e-05
-4.083165913471021e-05,3.511870090733282e-05,2.034431236097589e-05,-1.7963788195629604e-05,6.61443336866796e-05
-4.207803794997744e-05,3.544232095009647e-05,1.881806383607909e-05,-1.5695193724241108e-05,6.447529449360445e-05
-3.862459561787546e-05,3.529020250425674e-05,2.027631489909254e-05,-1.1259665370744187e-05,5.7604655012255535e-05
-3.814428055193275e-05,3.6249548429623246e-05,1.9267321476945654e-05,-9.996519111155067e-06,5.171381417312659e-05
-4.0256309148389846e-05,3.7929010431980714e-05,1.407457693858305e-05,-9.656491783971433e-06,5.2174269512761384e-05
-4.022664143121801e-05,3.860329161398113e-05,8.608404641563538e-06,-1.1729285688488744e-05,5.669005622621626e-05
-3.9814880437916145e-05,3.748525705304928e-05,6.281698460952612e-06,-1.5552643162664026e-05,5.9667865571100265e-05
-4.1894389141816646e-05,3.5224311432102695e-05,4.854995950154262e-06,-1.8038363123196177e-05,5.898398740100674e-05
-4.423720019985922e-05,3.282933175796643e-05,3.8426883293141145e-06,-1.7527281670481898e-05,6.024570029694587e-05
-4.5346787374000996e-05,3.0068929845583625e-05,5.384938958741259e-06,-1.4376364561030641e-05,6.521328032249585e-05
-4.514111060416326e-05,2.920677980000619e-05,4.981230176781537e-06,-1.0269523045280948e-05,7.0807414886076e-05
-4.0206112316809595e-05,3.477620703051798e-05,-4.0828439296092256e-07,-7.771554919600021e-06,7.286397158168256e-05
-2.4783519620541483e-05,4.2983385355910286e-05,-3.6619014736061217e-06,-7.611377441207878e-06,7.101074879756197e-05
1.7548603636896587e-06,4.592838740791194e-05,-3.2768648452474736e-06,-7.36898527975427e-06,6.79365184623748e-05
2.985028550028801e-05,3.8338868762366474e-05,-1.6195025409615482e-06,-7.471221579180565e-06,6.74557377351448e-05
4.3738004023907706e-05,2.61992263403954e-05,-2.4042265067691915e-06,-9.13464646146167e-06,6.975863652769476e-05
3.316921356599778e-05,2.2253829229157418e-05,-6.83714279148262e-06,-7.687965080549475e-06,6.803568976465613e-05
9.344816135126166e-06,2.6439123757882044e-05,-1.1046569852624089e-05,-8.16163174022222e-06,6.357723759720102e-05
