-2.7468873668112792e-05,2.575535654614214e-05,2.8064327125321142e-05,-1.4883200492477044e-05,4.8663565394235775e-05
-2.4669549020472914e-05,4.064383392687887e-05,1.262816022062907e-05,-1.833490387070924e-05,4.579353844746947e-05
-2.6925363272312097e-05,4.753707253257744e-05,-2.563379439379787e-06,-2.5707067834446207e-05,4.781573807122186e-05
-2.9795923182973638e-05,5.345240424503572e-05,-1.0425861546536908e-05,-3.140419357805513e-05,5.007213621865958e-05
-3.326352089061402e-05,6.0673100961139426e-05,-8.63116656546481e-06,-2.7147414584760554e-05,5.188392970012501e-05
-3.3723845263011754e-05,6.494712579296902e-05,2.483699745425838e-06,-1.6634901840006933e-05,5.104171941638924e-05
-2.8810785806854255e-05,6.263361865421757e-05,1.2137398698541801e-05,-8.020776476769242e-06,5.0624563300516456e-05
-1.9965542378486134e-05,6.238958303583786e-05,1.861304190242663e-05,-3.2187660963245435e-06,5.075986700830981e-05
-1.2749059351335745e-05,7.236355304485187e-05,2.1005243979743682e-05,-2.9150794489396503e-07,5.2033690735697746e-05
-5.702926046069479e-06,9.311130997957662e-05,1.704540045466274e-05,6.691099088129704e-07,5.2639265049947426e-05
1.808282661386329e-07,0.00010631170880515128,1.0145813575945795e-05,-3.85561662596956e-07,5.184532346902415e-05
1.7959321212401846e-06,9.308973676525056e-05,6.3232264437829144e-06,-3.307121232865029e-06,5.270746260066517e-05
5.978754415991716e-07,4.977888966095634e-05,2.5452518457314e-06,-6.586502877325984e-06,5.418930959422141e-05
-3.2413711323897587e-06,-1.2667944702116074e-06,-4.936161985824583e-06,-9.499114639766049e-06,5.76313141209539e-05
-1.0183555787079968e-05,-2.2470483600045554e-05,-1.1287977031315677e-05,-1.0941327673208434e-05,6.142881466075778e-05
-1.5428293409058824e-05,-7.025360446277773e-06,-1.3286860848893411e-05,-1.1219855878152885e-05,6.683077663183212e-05
-1.5092197827470955e-05,1.2571460501931142e-05,-1.1954636647715233e-05,-8.83345455804374e-06,7.213317439891398e-05
-1.798762423277367e-05,3.544737978700141e-07,-1.219146179209929e-05,-5.8072291722055525e-06,7.361856114584953e-05
-2.9271266612340696e-05,-3.849792483379133e-05,-1.557551513542421e-05,-8.215995876525994e-06,6.91169043420814e-05
-4.373992851469666e-05,-7.171760807977989e-05,-1.8451155483489856e-05,-1.6106594557641074e-05,6.0273989220149815e-05
-5.320274067344144e-05,-7.955833279993385e-05,-1.5747582438052632e-05,-2.130733810190577e-05,4.984732368029654e-05
-5.009882806916721e-05,-5.7467466831440106e-05,-1.0485788152436726e-05,-1.834876456996426e-05,4.203019125270657e-05
-3.771811680053361e-05,-1.4452123650698923e-05,-6.403215138561791e-06,-1.0647522685758304e-05,3.798873513005674e-05
-2.4748107534833252e-05,1.3557963029597886e-05,-4.093518327863421e-06,-4.424026428750949e-06,3.769100294448435e-05
-1.5865491150179878e-05,1.557932591822464e-05,-6.135738203738583e-06,-1.4925615232641576e-06,4.1200102714356035e-05
-1.2974815035704523e-05,8.904079550120514e-06,-1.3442099771054927e-05,2.5504973564238753e-06,4.395418363856152e-05
-1.1325653758831322e-05,5.145402610651217e-06,-1.8716100385063328e-05,5.294523361953907e-06,4.4005224481225014e-05
-1.1150875252496917e-05,3.220495045752614e-06,-1.8297520000487566e-05,3.7152994991629384e-06,4.049701237818226e-05
-9.979446076613385e-06,3.6169629424875893e-07,-1.6876578229130246e-05,1.670432652645104e-06,3.976928928750567e-05
-8.983159204944968e-06,7.192807061073836e-08,-1.2768248780048452e-05,1.2122109183110297e-06,4.787141369888559e-05
-1.561711724207271e-05,3.0825431167613715e-06,-7.93909657659242e-06,2.928752564912429e-06,5.58202009415254e-05
-2.5134533643722534e-05,2.867656348826131e-06,-6.657152880507056e-06,3.303714038338512e-06,5.359573333407752e-05
-3.597591057769023e-05,-2.3561132422855735e-07,-4.8921219786279835e-06,-4.2301307985326275e-06,4.5848824811400846e-05
-4.3610125430859625e-05,4.54159908258589e-06,-5.61979140911717e-06,-1.6262616554740816e-05,4.2286497773602605e-05
-4.6634067984996364e-05,1.8149219613405876e-05,-8.70916210260475e-06,-2.7811569452751428e-05,4.3516542064026e-05
-4.660557533497922e-05,3.117371306871064e-05,-6.707449301757151e-06,-3.21718180202879e-05,4.96612919960171e-05
-4.2414703784743324e-05,3.787115201703273e-05,-3.1435329219675623e-06,-2.5594710677978583e-05,5.5614309530938044e-05
-3.8774131098762155e-05,4.052228541695513e-05,-2.987848574775853e-06,-1.2197406249470077e-05,5.626923302770592e-05
-3.965741416322999e-05,4.832616832572967e-05,-1.0964819239234203e-06,-2.889815050366451e-06,5.6080571084748954e-05
-4.578994048642926e-05,6.298958032857627e-05,1.6721522797524813e-06,6.012635935803701e-07,5.8802153944270685e-05
-5.322622018866241e-05,7.714761886745691e-05,3.815469881374156e-06,3.7923774698356283e-07,6.202544318512082e-05
-5.58143547095824e-05,8.791529398877174e-05,6.679586022073636e-06,-2.616915480757598e-06,6.18142366874963e-05
-5.369254722609185e-05,9.402636351296678e-05,9.16012140805833e-06,3.1512340115114057e-07,5.94285229453817e-05
-5.119281559018418e-05,9.112169209402055e-05,1.0691376701288391e-05,1.2236370821483433e-05,5.7443514378974214e-05
-4.873859143117443e-05,8.10380806797184e-05,1.0560654118307866e-05,2.2520429411088116e-05,5.7037897931877524e-05
-4.199457907816395e-05,7.399824244203046e-05,1.2256633453944232e-05,2.3451766537618823e-05,5.962169962003827e-05
-3.1909385143080726e-05,7.132703467505053e-05,1.4934562386770267e-05,2.0602708900696598e-05,6.461968587245792e-05
-2.2173651814227924e-05,6.680688966298476e-05,1.4452802133746445e-05,1.8309463484911248e-05,6.662892701569945e-05
-1.3311225302459206e-05,5.790979048470035e-05,8.644762601761613e-06,1.5467219782294706e-05,6.627311086049303e-05
-6.28347788733663e-06,5.055507062934339e-05,7.694181931583444e-07,1.1201536835869774e-05,6.573352584382519e-05
-2.012856384681072e-06,4.5080072595737875e-05,-5.79178686166415e-06,3.603408003982622e-06,6.282196409301832e-05
-2.1027854018029757e-06,3.880253643728793e-05,-7.616886705363868e-06,-1.0850569196918514e-05,6.204880628501996e-05
3.7688973861804698e-06,2.6318739401176572e-05,-4.403397269925335e-06,-3.0770203011343256e-05,6.772785854991525e-05
1.952674392668996e-05,1.1113505024695769e-05,-1.829086841098615e-06,-5.374336979002692e-05,6.913312972756103e-05
2.9954564524814487e-05,-2.557068000896834e-06,-2.1303994799382053e-06,-6.05318091402296e-05,6.280446541495621e-05
2.711274464672897e-05,-1.3003713320358656e-05,-1.9764163425861625e-06,-4.6653331082779914e-05,5.9578189393505454e-05
1.7839400243246928e-05,-1.3732638763030991e-05,-9.272345096178469e-07,-3.5788867535302415e-05,6.131010741228238e-05
1.0362617103965022e-05,-9.913198482536245e-06,6.728457151439216e-07,-3.81963727704715e-05,6.346689769998193e-05
2.201051643169194e-07,-1.0993346222676337e-05,3.352166913828114e-06,-3.9227408706210554e-05,6.509606464533135e-05
-1.091368085326394e-05,-1.6568157661822625e-05,2.7143926217831904e-06,-3.162553912261501e-05,6.38478813925758e-05
-1.783146581146866e-05,-6.152569312689593e-06,3.613854460127186e-06,-2.2402702597901225e-05,6.116626900620759e-05
-2.0073486666660756e-05,1.3279764061735477e-05,1.0097919584950432e-05,-1.8279361029271968e-05,5.887032602913678e-05
-2.2817754143034108e-05,2.651702925504651e-05,1.7415901311323978e-05,-2.1573192498181015e-05,5.722395871998742e-05
-3.267253850935958e-05,3.2939264201559126e-05,2.102165308315307e-05,-2.6045763661386445e-05,5.534975935006514e-05
-4.0932722185971215e-05,3.5189736081520095e-05,2.435105125186965e-05,-2.741445496212691e-05,5.598549614660442e-05
-4.42179043602664e-05,3.7456782592926174e-05,2.6302244805265218e-05,-2.3525437427451834e-05,5.6630804465385154e-05
-4.3340780393918976e-05,3.7652160244761035e-05,2.2538602934218943e-05,-1.8871030988520943e-05,5.597082417807542e-05
-4.0627051930641755e-05,3.7984238588251173e-05,1.8322743926546536e-05,-1.6376090570702218e-05,5.615218833554536e-05
-3.868888961733319e-05,4.124470433453098e-05,1.7332733477815054e-05,-1.2682617125392426e-05,5.569630957324989e-05
-3.569577165762894e-05,4.405070285429247e-05,1.4778223885514308e-05,-7.04831518305582e-06,5.676310320268385e-05
-3.2109943276736885e-05,3.888194987666793e-05,4.751985670736758e-06,-5.924086053710198e-06,5.8568624808685854e-05
-3.499898957670666e-05,3.156153252348304e-05,-6.7735882112174295e-06,-1.1636358976829797e-05,5.858934309799224e-05
-4.220784467179328e-05,2.8827811547671445e-05,-1.1204031579836737e-05,-1.9049357433686964e-05,5.706793672288768e-05
-4.5604137994814664e-05,3.238618592149578e-05,-8.462080586468801e-06,-2.425110142212361e-05,5.5925796914380044e-05
-4.397919838083908e-05,3.5961540561402217e-05,-3.895011559507111e-06,-2.2710522898705676e-05,5.5329317547148094e-05
-3.9276892493944615e-05,3.4244658309035e-05,-6.439831281568331e-07,-1.4288470083556604e-05,5.468785820994526e-05
-3.580042175599374e-05,3.0558952857973054e-05,1.2810274938601651e-06,-6.863255748612573e-06,5.3513835155172274e-05
-3.060994640691206e-05,2.668561319296714e-05,3.774644028453622e-06,-6.3929305724741425e-06,5.533170042326674e-05
-2.307523027411662e-05,2.2664789867121726e-05,5.5662167142145336e-06,-1.2744423656840809e-05,5.971546852379106e-05
-1.999378582695499e-05,2.2977385015110485e-05,8.177490599337034e-06,-2.152566048607696e-05,6.169957487145439e-05
-1.9959987184847705e-05,2.73876194114564e-05,1.3572018360719085e-05,-2.6435365725774318e-05,6.121617479948327e-05
-1.8237484255223535e-05,3.9742277294863015e-05,2.229572601208929e-05,-2.3151262212195434e-05,5.9307119954610243e-05
-1.9141913071507588e-05,5.146241164766252e-05,2.832875725289341e-05,-1.6952773876255378e-05,6.0223253967706114e-05
-2.0761102859978564e-05,5.3186733566690236e-05,3.1170406145974994e-05,-1.5179066394921392e-05,6.625051173614338e-05
-2.1528445358853787e-05,5.420395973487757e-05,3.225463296985254e-05,-2.0248204236850142e-05,6.994318391662091e-05
-2.9046172130620107e-05,5.638090806314722e-05,2.8653446861426346e-05,-2.4857599782990292e-05,6.96481074555777e-05
-3.857211777358316e-05,5.444940325105563e-05,2.309816045453772e-05,-2.2155383703648113e-05,6.4229650888592e-05
-4.114075636607595e-05,4.856950545217842e-05,1.783442530722823e-05,-1.5443836673512124e-05,5.9940124629065394e-05
-4.275686660548672e-05,4.486307079787366e-05,1.3442133422358893e-05,-9.14726570044877e-06,5.822969615110196e-05
-4.1968993173213676e-05,4.165647260379046e-05,1.0886719792324584e-05,-6.580657554877689e-06,6.010643483023159e-05
-3.940735405194573e-05,3.6982666642870754e-05,1.3426905752567109e-05,-4.998107669962337e-06,6.428123742807657e-05
-4.0362538129556924e-05,3.0600989703089e-05,1.5611847629770637e-05,-5.667970981448889e-06,6.648088310612366e-05
-4.189914034213871e-05,2.6852441806113347e-05,1.2950268683198374e-05,-9.10191192815546e-06,6.583930371562019e-05
-4.3028681830037385e-05,2.5981882572523318e-05,3.0392611733986996e-06,-1.4358930457092356e-05,6.309222226263955e-05
-4.41417250840459e-05,2.679238241398707e-05,-8.115803211694583e-06,-1.7408758139936253e-05,6.301993562374264e-05
-4.57645692222286e-05,2.7105248591396958e-05,-1.5933685062918812e-05,-1.7919393940246664e-05,6.549109821207821e-05
-4.629102477338165e-05,2.5638812076067552e-05,-1.8086280761053786e-05,-1.903978773043491e-05,6.690451846225187e-05
-4.588238152791746e-05,2.2008001906215213e-05,-1.4885898053762503e-05,-2.0737603335874155e-05,6.576254963874817e-05
-4.1933431930374354e-05,1.6470105038024485e-05,-1.3147709978511557e-05,-2.100849997077603e-05,6.421588477678597e-05
-3.1542633223580196e-05,1.5086515304574277e-05,-1.690696990408469e-05,-1.676050669630058e-05,6.40869329799898e-05
-1.8293070752406493e-05,2.224787385785021e-05,-1.8344195268582553e-05,-5.914240318816155e-06,6.620971544180065e-05
-8.914382306102198e-06,3.079078669543378e-05,-8.801250260148663e-06,6.745190148649272e-06,6.827560719102621e-05
-8.301580237457529e-06,3.076056600548327e-05,3.3990909287240356e-06,1.0825260687852278e-05,6.933940312592313e-05
-1.6176578355953097e-05,3.011524495377671e-05,1.2713077921944205e-05,3.826973625109531e-06,6.613128061871976e-05
-2.2594749680138193e-05,4.004080983577296e-05,2.1395369913079776e-05,-4.9560308070795145e-06,6.162524368846789e-05
-2.368517016293481e-05,5.528624387807213e-05,3.135975930490531e-05,-1.7670668057689909e-06,6.030354052199982e-05
-2.3272225007531233e-05,6.62454403936863e-05,3.726648719748482e-05,9.536069228488486e-06,6.396759272320196e-05
-2.2446454750024714e-05,6.790857150917873e-05,3.7896574212936684e-05,1.2085957678209525e-05,6.674449832644314e-05
-1.850937223935034e-05,6.710656452924013e-05,3.45073603966739e-05,5.3913367992208805e-06,6.369381299009547e-05
-9.444437637284864e-06,5.313051224220544e-05,2.538961052778177e-05,-1.0809853847604245e-06,6.123938510427251e-05
-9.263156925953808e-07,1.4457674296863843e-05,1.390799843647983e-05,-8.65417405293556e-06,6.21802028035745e-05
-2.301932454429334e-06,-5.821594186272705e-06,5.8222167353960685e-06,-9.074887202586979e-06,6.149282853584737e-05
-7.84242911322508e-06,2.8703170755761676e-06,6.015403414494358e-06,-2.8181850666442188e-06,6.119703175500035e-05
-4.909205017611384e-06,2.961678319479688e-06,1.0530414328968618e-05,-5.110058282298269e-06,6.318244413705543e-05
1.4056317922950257e-06,-9.828076144913211e-06,1.1626744708337355e-05,-1.1432673090894241e-05,6.434036185964942e-05
8.240982424467802e-06,-1.9295608581160195e-05,1.0678041689970996e-05,-1.07219038909534e-05,6.224835669854656e-05
1.1141097274958156e-05,-1.6307847545249388e-05,1.143693589256145e-05,-7.438360626110807e-06,6.100712198531255e-05
7.312621619348647e-06,-9.926144457494956e-07,1.3488976037479006e-05,-7.107704732334241e-06,6.172794383019209e-05
-2.1146240669622784e-06,1.1457615073595662e-05,1.589988823980093e-05,-7.81677954364568e-06,6.264838884817436e-05
-1.2829121260438114e-05,2.157009657821618e-05,1.411176890542265e-05,-5.413540293375263e-06,6.210093124536797e-05
-1.8416980310576037e-05,3.93791233364027e-05,2.810895011862158e-06,-1.952512775460491e-06,6.106948421802372e-05
-1.7382088117301464e-05,5.653407424688339e-05,-1.2845819583162665e-05,-8.848318771015329e-07,5.902909833821468e-05
-1.4257041584642138e-05,6.044155452400446e-05,-2.2265776351559907e-05,-3.5097853015031433e-06,5.4895917855901644e-05
-1.4940413166186772e-05,5.088254692964256e-05,-1.9426981452852488e-05,-6.965800366742769e-06,5.3891442803433165e-05
-2.2401491150958464e-05,3.573229332687333e-05,-8.578026609029621e-06,-9.675643923401367e-06,5.8071509556612e-05
-3.3042353607015684e-05,2.6889108994510025e-05,2.1119026314408984e-06,-1.173914279206656e-05,6.251440208870918e-05
-3.6216137232258916e-05,2.9632286896230653e-05,7.3419505497440696e-06,-1.2868646990682464e-05,6.11496070632711e-05
-3.258809010731056e-05,3.125944567727856e-05,8.414983312832192e-06,-1.2133947166148573e-05,5.6034146837191656e-05
-2.9213948437245563e-05,2.8143533199909143e-05,1.132511897594668e-05,-9.500035957898945e-06,5.138916822033934e-05
-3.0215443985071033e-05,2.6261630409862846e-05,1.724005414871499e-05,-7.686032404308207e-06,5.1245937356725335e-05
-3.141005436191335e-05,3.0491275538224727e-05,2.1218573238002136e-05,-4.5933088586025406e-06,5.6218344980152324e-05
-2.5549941710778512e-05,3.702308822539635e-05,2.3690370653639548e-05,-3.5746354569710093e-06,6.090257011237554e-05
-1.8052078303298913e-05,3.671235390356742e-05,2.4028533516684547e-05,-2.2559015633305535e-06,6.14117961958982e-05
-1.8086089767166413e-05,2.9386657843133435e-05,1.8366174117545597e-05,-7.793989311721816e-07,6.252683670027182e-05
-2.096890784741845e-05,2.0952833438059315e-05,1.2315085768932477e-05,-4.307761173549807e-06,6.392961222445592e-05
-1.9006116417585872e-05,1.3457964996632654e-05,1.1883105798915494e-05,-1.1075812835770193e-05,6.369919719872996e-05
-1.4686585927847773e-05,1.1894888302776963e-05,1.3367449355428107e-05,-1.1756505955418106e-05,5.9922575019299984e-05
-1.1439487025199924e-05,1.9776638509938493e-05,9.970090104616247e-06,-7.353427918133093e-06,5.407869321061298e-05
-8.131853974191472e-06,2.7047977710026316e-05,7.089462997100782e-06,-8.599403372500092e-06,5.0850263505708426e-05
-1.4789779015700333e-05,2.667303488124162e-05,7.718119377386756e-06,-7.542122148151975e-06,5.1535171223804355e-05
-2.882133048842661e-05,2.69137708528433e-05,5.763630269939313e-06,-5.64034689887194e-06,5.029711246606894e-05
-3.519181700539775e-05,3.1182513339444995e-05,4.901109150523553e-06,-9.75503098743502e-06,4.840320616494864e-05
-3.176251630065963e-05,3.344804281368852e-05,4.73237014375627e-06,-1.2191670975880697e-05,4.8899812099989504e-05
-3.111162732238881e-05,3.457678030827083e-05,4.419940978550585e-06,-1.2365854672680143e-05,5.038015660829842e-05
-3.7308775063138455e-05,3.584041041904129e-05,6.948629561520647e-06,-1.4755368283658754e-05,5.18584311066661e-05
-4.1880968637997285e-05,3.505944550852291e-05,9.837972356763203e-06,-1.8007038306677714e-05,5.361184594221413e-05
-4.1020284697879106e-05,3.1366857001557946e-05,7.062608801788883e-06,-1.671683094173204e-05,5.616600174107589e-05
-3.6227447708370164e-05,3.0423518182942644e-05,-1.7741328974807402e-06,-1.1694449312926736e-05,5.735919330618344e-05
-3.281307726865634e-05,3.18973688990809e-05,-5.421089554147329e-06,-7.97941811470082e-06,5.6857279560063034e-05
-3.088066659984179e-05,3.225325053790584e-05,-9.513105396763422e-07,-6.928111815796001e-06,5.4360643844120204e-05
-3.175430538249202e-05,2.84046745946398e-05,4.677061951952055e-06,-8.488856110488996e-06,5.303444049786776e-05
-3.5672470403369516e-05,2.0866555132670328e-05,6.228033271327149e-06,-1.3760256479145028e-05,5.574230453930795e-05
-4.098542558494955e-05,1.313181383011397e-05,5.759883606515359e-06,-1.7560982087161392e-05,5.926854282733984e-05
-4.378526136861183e-05,1.1752862519642804e-05,4.959204488841351e-06,-1.3390242202149238e-05,5.968283221591264e-05
-4.592448385665193e-05,1.9586859707487747e-05,5.2924451665603556e-06,-5.397178483690368e-06,5.759302439400926e-05
-5.102765862829983e-05,2.6215911930194125e-05,7.94523748481879e-06,-3.7711117784056114e-06,5.509581387741491e-05
-5.292208516038954e-05,2.5464021746302024e-05,1.0940759239019826e-05,-6.932646556379041e-06,5.389255238696933e-05
-4.703215017798357e-05,2.1311563614290208e-05,7.915107744338457e-06,-6.872382527944865e-06,5.2732408221345395e-05
-4.12986810260918e-05,2.0458675862755626e-05,8.280653105430247e-07,-2.997939418492024e-06,5.2936557040084153e-05
-4.33502827945631e-05,1.9740826246561483e-05,-8.246793186117429e-07,1.1340500805090414e-06,5.5101252655731514e-05
-4.321354572311975e-05,2.185107587138191e-05,1.9699148197105387e-06,-8.795799999461451e-07,6.04418819420971e-05
-3.404060407774523e-05,2.2711763449478894e-05,1.11745157482801e-06,-7.347413429670269e-06,6.415240932255983e-05
-2.736630449362565e-05,1.624524338694755e-05,-4.015616013930412e-06,-1.0343376743549015e-05,6.007172851241194e-05
-2.6499839805183e-05,8.727279237064067e-06,-6.596125331270741e-06,-8.795460416877177e-06,5.388695717556402e-05
-2.8678694434347562e-05,1.5955577055137837e-06,-7.792426913511008e-06,-7.068274499033578e-06,5.369290374801494e-05
-3.150676275254227e-05,-2.9301281756488606e-06,-1.047785463015316e-05,-6.102114639361389e-06,5.430010423879139e-05
-3.191438008798286e-05,-9.22466006159084e-06,-1.174505268863868e-05,-4.062785592395812e-06,4.9920708988793194e-05
-3.16449768433813e-05,-1.6256961316685192e-05,-9.314925591752399e-06,-1.7911854683916317e-06,4.794110282091424e-05
-3.0194885766832158e-05,-1.651168531680014e-05,-6.440311608457705e-06,-2.1878252027818235e-06,5.197698556003161e-05
-2.6460382287041284e-05,-9.866545042314101e-06,-4.3996278691338375e-06,-7.097713933035266e-06,5.8606001402949914e-05
-2.2449154130299576e-05,-3.333236008984386e-06,-3.7934611896162096e-07,-1.0606812793412246e-05,6.312693585641682e-05
-2.0370527636259794e-05,-4.1876705836330075e-07,5.290608442010125e-06,-1.158512804977363e-05,6.177819159347564e-05
-2.663760824361816e-05,4.255519343132619e-06,8.688230082043447e-06,-1.4141464816930238e-05,5.781841537100263e-05
-3.6641620681621134e-05,1.0647575436451007e-05,8.876445463101845e-06,-1.6678595784469508e-05,5.707540185539983e-05
-3.626366742537357e-05,1.752657044562511e-05,5.198508006287739e-06,-1.3753475286648609e-05,5.906289879931137e-05
-3.074187770835124e-05,2.4240212951553985e-05,1.6748673203892395e-07,-8.258316483988892e-06,6.022627712809481e-05
-2.7992864488624036e-05,2.942934588645585e-05,-5.376176659410703e-07,-7.065955287544057e-06,5.918607348576188e-05
-2.6387277102912776e-05,2.9402006475720555e-05,1.9577810235205106e-06,-7.786535206832923e-06,5.694294668501243e-05
-2.3314603822655044e-05,2.5494689907645807e-05,3.915453362424159e-06,-6.708316050207941e-06,5.546391912503168e-05
-2.2576226911041886e-05,2.3163564037531614e-05,3.608088945838972e-06,-7.339341209444683e-06,5.382098242989741e-05
-2.2781003281124867e-05,2.7177187803317793e-05,1.650436274758249e-06,-1.1185481525899377e-05,5.22955997439567e-05
-2.037601370830089e-05,4.227444514981471e-05,8.437141332251485e-07,-1.0901426321652252e-05,5.186659109313041e-05
-1.8610480765346438e-05,6.058867438696325e-05,2.514761717975489e-06,-7.008633929217467e-06,5.1250113756395876e-05
-2.252578087791335e-05,6.52564485790208e-05,4.090398306288989e-06,-6.477063379861647e-06,5.103217699797824e-05
-2.713297726586461e-05,6.004953320370987e-05,5.839671302965144e-06,-1.0592149010335561e-05,5.300037810229696e-05
-3.051300154766068e-05,5.905503348913044e-05,7.859225661377423e-06,-1.3004909305891488e-05,5.7835321058519185e-05
-3.563447171472944e-05,6.582645437447354e-05,8.918104867916554e-06,-9.995821528718807e-06,6.315817154245451e-05
-3.815943273366429e-05,7.122273382265121e-05,8.629363037471194e-06,-2.8028007363900542e-06,6.415317329810932e-05
-3.4621138183865696e-05,6.644261884503067e-05,5.3830858632863965e-06,5.294999141369772e-07,6.128159293439239e-05
-3.071358514716849e-05,5.462373883347027e-05,4.164517122262623e-06,-4.993243237549905e-06,5.921702540945262e-05
-3.9595746784470975e-05,4.706359322881326e-05,7.850427209632471e-06,-9.633557965571526e-06,5.979866909910925e-05
-5.005986167816445e-05,4.929467831971124e-05,1.4022986761119682e-05,-9.144002433458809e-06,6.0032602050341666e-05
-5.8536814321996644e-05,4.625188739737496e-05,1.4766059393878095e-05,-8.531740604666993e-06,5.776051330030896e-05
-7.061897485982627e-05,4.2462823330424726e-05,1.1448689292592462e-05,-1.0553142601565924e-05,5.442051406134851e-05
-7.939068018458784e-05,4.887114846496843e-05,7.455398190359119e-06,-1.2864134987466969e-05,5.4024851124268025e-05
-7.964293763507158e-05,6.163368379930034e-05,2.0959198536729673e-06,-1.164552759291837e-05,5.683674680767581e-05
-6.500135350506753e-05,6.329058669507504e-05,2.5336422027066874e-07,-9.96870130620664e-06,5.8796063967747614e-05
-4.6864621253916994e-05,4.48511891590897e-05,3.348066286434914e-07,-1.0973847565765027e-05,6.014967948431149e-05
-3.4336135286139324e-05,2.650478927535005e-05,-5.587752980318328e-07,-1.4716068108100444e-05,5.957514440524392e-05
-2.5844086849247105e-05,1.9642011466203257e-05,-5.6630733524798416e-06,-1.6486843378515914e-05,6.0393675084924325e-05
-1.8951201127492823e-05,2.327481888642069e-05,-9.7460433607921e-06,-1.300446456298232e-05,6.09247617830988e-05
-9.380458322993945e-06,3.108917735517025e-05,-1.1899173841811717e-05,-6.179036972753238e-06,6.042231325409375e-05
3.862015091726789e-06,3.5218632547184825e-05,-1.5295017874450423e-05,-2.050225020866492e-06,6.0121179558336735e-05
1.9697607058333233e-05,3.445027687121183e-05,-1.6466974557260983e-05,-2.7990295166091528e-06,6.060022860765457e-05
3.510462192934938e-05,3.348930476931855e-05,-9.44657494983403e-06,-4.682540293288184e-06,6.324969581328332e-05
4.860636545345187e-05,3.319033930893056e-05,1.3408282484306255e-06,-5.760664407716831e-06,6.632223085034639e-05
5.618236173177138e-05,2.9312679544091225e-05,1.0576587555988226e-05,-6.5136032390000764e-06,6.544771167682484e-05
5.6689481425564736e-05,2.31473968597129e-05,1.8432481738273054e-05,-7.2842781264625955e-06,6.148729880806059e-05
4.9050006055040285e-05,2.0833163944189437e-05,2.3960705220815726e-05,-7.895440830907319e-06,6.108198431320488e-05
3.419366112211719e-05,1.8265349353896454e-05,2.691000554477796e-05,-8.737010830373038e-06,6.118883902672678e-05
1.581372634973377e-05,6.188865881995298e-06,2.5340556021546945e-05,-8.779648851486854e-06,6.0601789300562814e-05
-6.787314532630262e-07,-1.5138773051148746e-05,2.1068610294605605e-05,-9.422167750017252e-06,6.222798401722685e-05
-1.4104362890066113e-05,-3.654806278063916e-05,1.837188938225154e-05,-1.102801616070792e-05,6.246638804441318e-05
-2.3284974304260686e-05,-3.608308907132596e-05,1.837185482145287e-05,-1.062168666976504e-05,5.912230335525237e-05
-2.6590183551888913e-05,-1.3257950740808155e-05,1.9620176317403093e-05,-1.1829408322228119e-05,5.9898680774495006e-05
-2.240078720205929e-05,3.2685118185327156e-06,2.121576471836306e-05,-1.2296264685573988e-05,6.274245242821053e-05
-1.2957891158293933e-05,2.6190730295638787e-06,1.1328211257932708e-05,-1.0145078704226762e-05,6.338458479149267e-05
-1.1956993148487527e-05,3.4385288927296642e-06,-6.820195721957134e-06,-1.1721762348315679e-05,5.934657747275196e-05
-2.3186652470030822e-05,1.7816741092246957e-05,-1.260356202692492e-05,-1.3067816325929016e-05,5.2759278332814574e-05
-3.800619742833078e-05,2.9216946131782606e-05,-8.420111043960787e-06,-1.5891375369392335e-05,5.161992885405198e-05
-4.7050591092556715e-05,2.9588567485916428e-05,-6.420841600629501e-06,-1.758443977450952e-05,5.498893733602017e-05
-4.886551323579624e-05,3.422762893023901e-05,-5.035179128753953e-06,-1.2607990356627852e-05,5.6087523262249306e-05
-4.6290431782836094e-05,5.308952313498594e-05,-1.3084210195302148e-06,-5.001126282877522e-06,5.437550134956837e-05
-4.522758172242902e-05,7.266998727573082e-05,4.442953922989545e-06,-3.5874613786290865e-06,5.5190266721183434e-05
-4.4999600504525006e-05,7.855101284803823e-05,9.301549653173424e-06,-5.576503554038936e-06,5.697281812899746e-05
-4.4924523535883054e-05,8.037236693780869e-05,1.0046904208138585e-05,-8.6467052824446e-06,5.5298743973253295e-05
-4.543567411019467e-05,8.300523768411949e-05,7.460872438969091e-06,-1.1125473065476399e-05,5.175588739803061e-05
-4.521855589700863e-05,8.398287172894925e-05,5.7540942179912236e-06,-1.0594158993626479e-05,5.195025005377829e-05
-4.476740286918357e-05,8.932879427447915e-05,5.141321253177011e-06,-1.2575083928823005e-05,5.414479164755903e-05
-4.196324880467728e-05,9.66665757005103e-05,7.041632670734543e-06,-1.7253078112844378e-05,5.569510176428594e-05
-3.6246674426365644e-05,9.708130528451875e-05,9.581017366144806e-06,-2.0612053049262613e-05,5.7447115977993235e-05
-2.6939294912153855e-05,8.83219254319556e-05,9.38218909141142e-06,-1.9291057469672523e-05,6.0881666286149994e-05
-1.8292039385414682e-05,7.46514051570557e-05,6.988168024690822e-06,-1.394867922499543e-05,6.224370008567348e-05
-1.719299871183466e-05,5.893909474252723e-05,5.474481440614909e-06,-7.984278454387095e-06,5.8527693909127265e-05
-2.3972883354872465e-05,4.255951716913842e-05,6.280500656430377e-06,-5.120331024954794e-06,5.447109288070351e-05
-2.736282658588607e-05,2.762387339316774e-05,8.448801963822916e-06,-3.093927716690814e-06,5.3751478844787925e-05
-2.1501768060261384e-05,1.565075399412308e-05,1.0825288882188033e-05,-4.392172286316054e-06,5.5143507779575884e-05
-1.1818339771707542e-05,5.3380381359602325e-06,8.558054105378687e-06,-8.472472472931258e-06,5.603914905805141e-05
-1.872033067229495e-06,-1.3866099834558554e-05,-3.1474219213123433e-06,-1.2995486031286418e-05,5.759124178439379e-05
1.2907966038255836e-06,-4.943676685797982e-05,-2.762268741207663e-05,-1.7768148609320633e-05,5.99295599386096e-05
-5.026469807489775e-06,-8.235537825385109e-05,-5.9886835515499115e-05,-1.9899249309673905e-05,6.376575765898451e-05
-2.0833223970839754e-05,-8.102052379399538e-05,-8.079602412180975e-05,-2.041699735855218e-05,6.497639697045088e-05
-4.1986819269368425e-05,-4.4629661715589464e-05,-7.475110760424286e-05,-2.1152987756067887e-05,6.339168612612411e-05
-5.707914169761352e-05,5.821530976390932e-06,-4.974491457687691e-05,-1.8849446860258467e-05,6.578204920515418e-05
-5.890713509870693e-05,4.160508615314029e-05,-2.371206028328743e-05,-1.3158312867744826e-05,6.782050331821665e-05
-5.0214868679177016e-05,5.247640729066916e-05,-2.576497593054228e-07,-8.826386874716263e-06,6.454615504480898e-05
-4.6078966988716274e-05,5.632302782032639e-05,2.487013080099132e-05,-7.296666353795445e-06,6.011806908645667e-05
-4.544377952697687e-05,6.386171298800036e-05,4.8029960453277454e-05,-8.703128514753189e-06,6.076739009586163e-05
-4.149740925640799e-05,7.190438191173598e-05,6.142124038888142e-05,-1.1512007404235192e-05,6.217305781319737e-05
-3.182707951054908e-05,7.551821181550622e-05,6.422250589821488e-05,-1.0967746675305534e-05,5.94651501160115e-05
-2.1947480490780436e-05,7.058739720378071e-05,6.45341060589999e-05,-1.0294954336131923e-05,5.7268349337391555e-05
-1.9098119082627818e-05,5.376761328079738e-05,6.233995372895151e-05,-9.89984800980892e-06,5.509427865035832e-05
-2.1061801817268133e-05,4.661059574573301e-05,5.779697312391363e-05,-4.290878223400796e-06,5.26092917425558e-05
-2.6407416953588836e-05,5.4297972383210436e-05,5.106248499942012e-05,2.7606927233136958e-06,5.152027733856812e-05
-3.265531631768681e-05,6.202945223776624e-05,4.49178260168992e-05,5.881799552298617e-06,5.152079393155873e-05
-3.3247852115891874e-05,6.141905760159716e-05,3.952745464630425e-05,3.515195658110315e-06,5.3147705330047756e-05
-2.600304469524417e-05,5.078029789729044e-05,3.498439400573261e-05,-4.154382622800767e-06,5.5313103075604886e-05
-1.8678163542062975e-05,3.0096360205789097e-05,3.220080543542281e-05,-1.0907787327596452e-05,5.467452865559608e-05
-1.7384985767421313e-05,4.3693717088899575e-06,3.0611463444074616e-05,-1.1233773875574116e-05,5.327112739905715e-05
-2.2536110918736085e-05,-2.0586245227605104e-05,2.6288838853361085e-05,-9.416300599696115e-06,5.43160640518181e-05
-2.624422631924972e-05,-4.321090818848461e-05,1.7367570762871765e-05,-1.2803293429897167e-05,5.41311819688417e-05
-2.3021631932351738e-05,-5.551877256948501e-05,9.350239452032838e-06,-1.9191618775948882e-05,5.099558620713651e-05
-1.6429616152890958e-05,-4.9765720177674666e-05,5.431803856481565e-06,-2.114449489454273e-05,4.821713446290232e-05
-1.2923460417368915e-05,-2.482672789483331e-05,2.2944977899896912e-06,-1.7525693692732602e-05,4.962581806466915e-05
-1.2678475286520552e-05,4.936511686537415e-06,-2.051599494734546e-06,-1.0316738553228788e-05,5.594084723270498e-05
-1.3182008842704818e-05,2.9545552024501376e-05,-4.200663170195185e-06,-4.757538590638433e-06,6.266291893552989e-05
-1.2424452506820671e-05,4.147270738030784e-05,-5.983992650726577e-06,-4.201293450023513e-06,6.263249088078737e-05
-8.655187230033334e-06,3.5722656321013346e-05,-5.862581019755453e-06,-5.523068466573022e-06,5.8702844398794696e-05
-5.5777923080313485e-06,2.4167728042812087e-05,-3.740646661753999e-06,-2.461490339555894e-06,5.715755105484277e-05
-9.861607395578176e-06,2.4180137188523076e-05,-8.40369693833054e-07,2.306911284222224e-07,5.6998982472578064e-05
-1.4613880921388045e-05,3.889298750436865e-05,-5.308219783728418e-07,-7.364300927292788e-06,5.568594497162849e-05
-1.3512467376131099e-05,5.1766863180091605e-05,-1.8932020111606107e-06,-1.3697552276425995e-05,5.348767081159167e-05
-1.1213149264222011e-05,5.2721414249390364e-05,1.119494299928192e-06,-1.1760215784306638e-05,5.760027124779299e-05
-1.4671380995423533e-05,4.882957000518218e-05,1.8064811513340828e-07,-8.229780178226065e-06,6.137397576821968e-05
-1.914541280712001e-05,4.358097066869959e-05,-5.09982464791392e-06,-9.559613317833282e-06,5.9228750615147874e-05
-2.070180926239118e-05,3.740945612662472e-05,-3.437505256442819e-06,-1.7330188711639494e-05,5.5925396736711264e-05
-2.195955312345177e-05,3.478824510239065e-05,-1.6965660734058474e-06,-2.2146570699987933e-05,5.443756890599616e-05
-2.5071896743611433e-05,4.327345232013613e-05,-3.6911981169396313e-06,-2.1716243281844072e-05,5.7504268625052646e-05
-2.2718770196661353e-05,5.334798333933577e-05,-7.2317325248150155e-06,-2.0458110157051124e-05,5.998422420816496e-05
-1.295544279855676e-05,5.0311940867686644e-05,-6.683258106932044e-06,-2.2305404854705557e-05,6.0056070651626214e-05
-9.01768908079248e-06,3.765575456782244e-05,-4.33931154475431e-06,-2.3522154151578434e-05,5.987284021102823e-05
-1.3887024579162244e-05,3.1907558877719566e-05,-5.986233645671746e-06,-1.9896402591257356e-05,6.0684622440021485e-05
-2.0962164853699505e-05,3.174431549268775e-05,-1.1384238860046025e-05,-1.2399280421959702e-05,5.926634912611917e-05
-2.1133646441739984e-05,2.9731309041380882e-05,-1.576250360812992e-05,-7.021387318673078e-06,5.8660902141127735e-05
-2.188314283557702e-05,2.7885560484719463e-05,-1.6933037841226906e-05,-6.830245638411725e-06,6.055794801795855e-05
-2.7389807655708864e-05,3.0006252927705646e-05,-1.6307329133269377e-05,-1.0749271496024448e-05,6.149434921098873e-05
-3.3894455555127934e-05,3.3102220186265185e-05,-1.066223831003299e-05,-1.5375851944554597e-05,6.0555466916412115e-05
-3.652827217592858e-05,3.2158051908481866e-05,-3.4923139082820853e-06,-1.5299061487894505e-05,5.9432444686535746e-05
-3.662688686745241e-05,3.028942046512384e-05,-5.413534722720215e-07,-1.1635927876341157e-05,6.065939669497311e-05
-3.828012268058956e-05,2.9156026357668452e-05,-2.7001642592949793e-06,-1.0179366654483601e-05,6.430058419937268e-05
-4.352821997599676e-05,2.971145477204118e-05,-3.859890966850799e-06,-1.190375132864574e-05,6.697423668811098e-05
-4.707075277110562e-05,3.0237060855142772e-05,3.412068281249958e-07,-1.2478760254452936e-05,6.66990308673121e-05
-4.994226401322521e-05,2.6138095563510433e-05,6.445553026424022e-06,-1.1499774700496346e-05,6.363441207213327e-05
-5.5610904382774606e-05,1.7268357623834163e-05,1.1174333849339746e-05,-1.1667527360259555e-05,6.037289494997822e-05
-5.6251468777190894e-05,1.526513915450778e-05,1.4777979231439531e-05,-1.6603529729763977e-05,6.007087722537108e-05
-5.1145241741323844e-05,2.3873311874922365e-05,1.2456574040697888e-05,-2.262917041662149e-05,5.945775774307549e-05
-4.780177187058143e-05,3.1285951990867034e-05,7.396849014185136e-06,-2.112709444190841e-05,5.938496542512439e-05
-4.3585481762420386e-05,3.317651862744242e-05,5.608984793070704e-06,-1.4182542145135812e-05,6.002191366860643e-05
-3.657434353954159e-05,2.8644992198678665e-05,3.84904706152156e-06,-1.4511590052279644e-05,6.291220779530704e-05
-3.488141010166146e-05,1.9291899661766365e-05,3.7442296729750524e-07,-2.0612078515114263e-05,6.6436427005101e-05
-3.2409221603302285e-05,1.455377605452668e-05,2.2165479549585143e-06,-2.4056655092863366e-05,6.584983202628791e-05
-2.9781373086734675e-05,9.13569238036871e-06,7.047646704450017e-06,-2.455302092130296e-05,6.209961429703981e-05
-2.725014383031521e-05,5.801248335046694e-06,5.593066362052923e-06,-2.353162199142389e-05,6.135574949439615e-05
-2.459780444041826e-05,1.300482836086303e-05,8.823719781503314e-07,-2.1756428395747207e-05,6.31097937002778e-05
-2.2087409888627008e-05,2.7063055313192308e-05,-1.1946355016334564e-06,-2.0227762433933094e-05,6.485557241830975e-05
-1.8205451851827092e-05,3.4920369216706604e-05,-9.241497309631086e-07,-1.8580833057058044e-05,6.537953595397994e-05
-1.1948460269195493e-05,3.720801760209724e-05,3.2020097933127545e-06,-1.924762000271585e-05,6.287053838605061e-05
-1.125355174735887e-05,3.6509263736661524e-05,6.92863977747038e-06,-2.17142569454154e-05,5.965502350591123e-05
-1.949032230186276e-05,3.6049219488631934e-05,6.963409759919159e-06,-2.1054062017356046e-05,5.760637213825248e-05
-2.6966486984747462e-05,3.6646499211201444e-05,3.5623193070932757e-06,-1.823498314479366e-05,6.0234324337216094e-05
-3.146906237816438e-05,3.639018177636899e-05,-3.0176709060469875e-06,-1.567460276419297e-05,6.450789078371599e-05
-3.395528983674012e-05,3.2161417038878426e-05,-7.626173555763671e-06,-1.5769392121001147e-05,6.501824827864766e-05
-3.454364195931703e-05,2.1697265765396878e-05,-6.7636347012012266e-06,-1.6932992366491817e-05,6.161945930216461e-05
-3.417144398554228e-05,9.530945135338698e-06,-1.9055046323046554e-06,-1.625706318009179e-05,5.937255991739221e-05
-3.773387288674712e-05,-2.2496194560517324e-06,-1.5468528147266625e-07,-1.5120918760658242e-05,5.711012636311352e-05
-4.215762237436138e-05,-8.549086487619206e-06,-2.492885414540069e-06,-1.5856090612942353e-05,5.5351181799778715e-05
-4.2708099499577656e-05,-7.873576578276698e-06,-2.6333063942729495e-06,-1.7659605873632245e-05,5.7432342146057636e-05
-4.072752199135721e-05,-5.032198259868892e-06,1.7042150375345955e-06,-1.7902188119478524e-05,5.961721035419032e-05
-4.065107714268379e-05,-5.996999789203983e-06,4.5817214413546026e-06,-1.8339780581300147e-05,5.7549441407900304e-05
-4.179720053798519e-05,-7.4972813308704644e-06,3.6671463021775708e-06,-2.1094881958561018e-05,5.2355011575855315e-05
-4.365815766504966e-05,-2.897077365560108e-06,4.465463007363724e-06,-2.2331365471472964e-05,4.9204256356460974e-05
-4.1954095649998635e-05,1.56352216436062e-05,1.1364199963281862e-05,-2.3252081518876366e-05,5.16951949975919e-05
-3.912265310646035e-05,4.1627899918239564e-05,1.4399503015738446e-05,-2.849530392268207e-05,5.62442910450045e-05
-4.002594141638838e-05,5.7837132771965116e-05,1.0410328286525328e-05,-3.199369166395627e-05,5.6524877436459064e-05
-3.8165955629665405e-05,5.311955828801729e-05,7.198731509561185e-06,-2.6353895009378903e-05,5.5143718782346696e-05
-2.694672002689913e-05,3.479134102235548e-05,6.091569503041683e-06,-1.677752698014956e-05,5.442261681309901e-05
-9.454879545955919e-06,1.7756423403625377e-05,5.241653525445145e-06,-4.386028649605578e-06,5.597178096650168e-05
8.031788922835403e-08,1.503812109149294e-05,4.423074187798193e-06,5.877065177628538e-06,5.6352539104409516e-05
-2.6806203550222563e-06,1.999028245336376e-05,5.611344477074454e-06,9.010337635118049e-06,5.5367207096423954e-05
-9.851759386947379e-06,1.988032818189822e-05,8.500532203470357e-06,1.462568252463825e-05,5.5970402172533795e-05
-2.97506835522654e-06,1.7544603906571865e-05,1.378954948449973e-05,2.0791370843653567e-05,5.669216261594556e-05
1.3264677363622468e-05,1.7190546714118682e-05,1.9884922949131578e-05,2.2381711460184306e-05,5.864815102540888e-05
2.101579957525246e-05,1.3843712622474413e-05,2.413333459116984e-05,2.0646029952331446e-05,5.987836993881501e-05
1.851000706665218e-05,1.4792520232731476e-05,2.521228088880889e-05,1.862669159891084e-05,6.044951078365557e-05
8.331038770847954e-06,2.6334002541261725e-05,2.38498869293835e-05,1.2516748029156588e-05,6.207418482517824e-05
-3.054549551961827e-06,4.1446081013418734e-05,2.047026646323502e-05,1.8198868190211215e-08,6.278243381530046e-05
-6.027398740116041e-06,5.3371593821793795e-05,1.0839154128916562e-05,-1.140258609666489e-05,6.16284305579029e-05
-2.0952495560777606e-07,5.369429709389806e-05,-8.090869414445478e-06,-1.5200689631456044e-05,6.329290044959635e-05
5.865599177923286e-06,4.6477129217237234e-05,-3.1471394322579727e-05,-1.2624736882571597e-05,6.781880074413493e-05
9.123822565015871e-06,4.14164132962469e-05,-4.7494322643615305e-05,-6.710793968522921e-06,6.941629544598982e-05
6.421970283554401e-06,3.940038368455134e-05,-5.022068944526836e-05,1.5272482869477244e-06,6.72300739097409e-05
-7.833729682715784e-07,3.4871984098572284e-05,-4.1046692786039785e-05,5.930986390012549e-06,6.264829426072538e-05
-3.797107410719036e-06,2.9406250177999027e-05,-2.7030997443944216e-05,4.154416274104733e-06,5.949267142568715e-05
-1.2080354281351902e-06,2.617318205011543e-05,-1.3782781024929136e-05,2.312566721229814e-06,6.0609429056057706e-05
2.355117658225936e-06,2.4302818928845227e-05,1.295151832891861e-06,3.826944521279074e-06,6.273656617850065e-05
5.245738520898158e-06,2.0744799257954583e-05,1.6897949535632506e-05,6.338501862046542e-06,6.204522651387379e-05
-1.5565756257274188e-06,1.9754381355596706e-05,2.8493450372479856e-05,9.87838939181529e-06,5.815493568661623e-05
-1.737712045724038e-05,2.4207934984588064e-05,3.580674092518166e-05,1.1673999324557371e-05,5.310801861924119e-05
-3.10460090986453e-05,3.226756598451175e-05,4.152827023062855e-05,9.023297934618313e-06,5.1487284508766606e-05
-3.716473656822927e-05,4.144881313550286e-05,4.546063064481132e-05,5.037957180320518e-06,5.362808224163018e-05
-3.672294769785367e-05,4.458179682842456e-05,4.8015685024438426e-05,2.5360964173160028e-06,5.9396821598056704e-05
-3.56175733031705e-05,4.1216702811652794e-05,4.9468082579551265e-05,-3.905129233316984e-07,6.326463335426524e-05
-3.5001899959752336e-05,4.045080640935339e-05,5.1192735554650426e-05,1.936811315772502e-07,6.243114330573007e-05
-3.220361759304069e-05,4.3437652493594214e-05,5.3887513786321506e-05,-8.339707164850552e-07,6.140455661807209e-05
-3.201825529686175e-05,4.1120394598692656e-05,5.147335832589306e-05,-5.28037162439432e-06,5.762167347711511e-05
-3.5845409001922235e-05,3.108890086878091e-05,4.3044630729127675e-05,-5.633362889057025e-06,5.596636765403673e-05
-3.944469790440053e-05,1.6337613487849012e-05,3.5143140848958865e-05,-4.82412860947079e-06,5.905058787902817e-05
-4.4442938815336674e-05,2.9114287372067338e-06,3.1503506761509925e-05,-1.5507546322623966e-06,6.157007010187954e-05
-4.612630436895415e-05,-2.5673148229543585e-06,2.999584648932796e-05,-1.0341391316615045e-06,6.317915540421382e-05
-4.1829542169580236e-05,-2.961673772006179e-06,2.7911200959351845e-05,-4.513505245995475e-06,6.729520828230307e-05
-3.373151776031591e-05,6.301484631876519e-07,2.0603034499799833e-05,-5.476030764839379e-06,7.254590309457853e-05
-2.9349845135584474e-05,6.57486134514329e-06,1.2986391993763391e-05,-3.917355115845567e-06,7.544182153651491e-05
-3.3756215998437256e-05,1.2702421372523531e-05,9.432041224499699e-06,-5.376999524742132e-06,7.521270890720189e-05
-3.890202060574666e-05,1.994067133637145e-05,5.599921223620186e-06,-1.004635760182282e-05,7.078641647240147e-05
-3.980376641266048e-05,2.870749813155271e-05,2.1280443718296738e-07,-1.2954597877978813e-05,6.298777589108795e-05
-4.1403211071155965e-05,3.340129114803858e-05,-2.496106390026398e-06,-1.5193848412309308e-05,5.432475882116705e-05
-4.2129420762648806e-05,3.312503395136446e-05,-3.919322466572339e-07,-1.842822166508995e-05,4.8933659854810685e-05
-3.593924702727236e-05,3.255256524425931e-05,1.6930719084484736e-06,-2.0100198526051827e-05,4.830716716242023e-05
-2.8037557058269158e-05,3.361302879056893e-05,3.94731870301257e-07,-1.8136486687581055e-05,5.039975076215342e-05
-2.437579860270489e-05,4.1604533180361614e-05,-4.239142072037794e-06,-1.8878989067161456e-05,5.4512816859642044e-05
-2.4778559236438014e-05,5.625891935778782e-05,-7.667911631870084e-06,-2.681047044461593e-05,5.841291931574233e-05
-3.0746810807613656e-05,6.759848474757746e-05,-1.0211456356046256e-05,-3.510868191369809e-05,5.905185025767423e-05
-4.0729977627051994e-05,6.87146675772965e-05,-1.1934925169043709e-05,-3.729168383870274e-05,5.67956521990709e-05
-5.384431278798729e-05,6.530972314067185e-05,-1.0030461453425232e-05,-3.38962345267646e-05,5.650146340485662e-05
-6.58622375340201e-05,6.543879135278985e-05,-6.623381977988174e-06,-2.6460988010512665e-05,6.150545959826559e-05
-6.752573244739324e-05,6.436977855628356e-05,-7.703006303927395e-06,-2.1885110982111655e-05,6.493552791653201e-05
-6.535476131830364e-05,6.351881893351674e-05,-1.6035721273510717e-05,-2.181469608331099e-05,6.05331952101551e-05
-6.368396134348586e-05,6.74306065775454e-05,-2.7716545446310192e-05,-1.8390066543361172e-05,5.2852705266559497e-05
-5.749993943027221e-05,6.694944022456184e-05,-3.3828757295850664e-05,-1.2119531675125472e-05,5.1091275963699445e-05
-4.8896657972363755e-05,5.72692952118814e-05,-3.175749225192703e-05,-6.728136213496327e-06,5.712332858820446e-05
-3.852233203360811e-05,4.6518518502125517e-05,-2.7675296223605983e-05,-2.2197732505446766e-06,6.209185812622309e-05
-2.5333527446491644e-05,4.1276518459198996e-05,-1.9414477719692513e-05,-1.7875396451927372e-06,6.216516339918599e-05
-1.2180320482002571e-05,3.3359479857608676e-05,-5.775526005891152e-06,-6.088991995056858e-06,6.208371632965282e-05
-4.24001746068825e-06,2.0236346244928427e-05,6.014797691022977e-06,-1.2602634342329111e-05,6.610453419853002e-05
-1.0747872920546797e-06,8.536046607332537e-07,1.350074126094114e-05,-1.9614284610725008e-05,7.177605584729463e-05
1.865035770265422e-08,-1.0910731361946091e-05,1.7276865037274547e-05,-2.3758606403134763e-05,7.043546065688133e-05
-5.38249241799349e-06,-5.65806067243102e-06,2.0612953449017368e-05,-1.9810069716186263e-05,6.088364898459986e-05
-1.012384018395096e-05,3.5681550798472017e-06,2.0723480702145025e-05,-1.7057993318303488e-05,4.960490332450718e-05
-1.1528743925737217e-05,5.084228632767918e-06,1.570460881339386e-05,-2.296296770509798e-05,4.703543527284637e-05
-1.645250085857697e-05,7.201478183560539e-06,9.130177204497159e-06,-2.8357957489788532e-05,5.394401159719564e-05
-2.527138713048771e-05,1.7110625776695088e-05,1.5226376035570865e-06,-2.7871183192473836e-05,6.161507189972326e-05
-3.2231819204753265e-05,2.8381027732393704e-05,-1.1227280083403457e-05,-2.4398332243436016e-05,6.37816556263715e-05
-3.34815849782899e-05,3.479261067695916e-05,-2.5497018214082345e-05,-2.295753438374959e-05,6.0071557527408004e-05
-3.035910594917368e-05,3.5182220017304644e-05,-3.126914089079946e-05,-2.3085016437107697e-05,5.671395774697885e-05
-2.5302719222963788e-05,3.286612991360016e-05,-2.8114869564888068e-05,-2.3457267161575146e-05,5.666050856234506e-05
-2.524431147321593e-05,2.744756238826085e-05,-1.9684053768287413e-05,-2.213840707554482e-05,5.755207166657783e-05
-3.305848440504633e-05,2.2890191758051515e-05,-8.714085197425447e-06,-2.1752686734544113e-05,5.7497003581374884e-05
-4.287657793611288e-05,2.5579631255823188e-05,3.764120037885732e-06,-2.1884770831093192e-05,5.7235814892919734e-05
-4.7215184167725965e-05,3.2189589546760544e-05,1.7903539628605358e-05,-2.1238405679468997e-05,5.738710387959145e-05
-4.573319529299624e-05,2.8723085051751696e-05,3.246618507546373e-05,-1.798217635951005e-05,5.740911001339555e-05
-4.255868407199159e-05,2.1096804630360566e-05,4.219760376145132e-05,-9.433476407139096e-06,5.5483440519310534e-05
-4.47979909949936e-05,1.9636527213151567e-05,4.4573233026312664e-05,-2.670500407475629e-07,5.32742815266829e-05
-4.8513506044400856e-05,2.579759711807128e-05,4.231082493788563e-05,6.042325821908889e-06,5.194108598516323e-05
-4.501494549913332e-05,3.258531796745956e-05,3.8716363633284345e-05,9.812541065912228e-06,5.327917097019963e-05
-3.7161444197408855e-05,3.566920349840075e-05,3.414939783397131e-05,1.6850784959387966e-05,5.595483526121825e-05
-2.8063495847163722e-05,3.210696377209388e-05,3.168174225720577e-05,2.7198451789445244e-05,5.50034710613545e-05
-3.143122012261301e-05,2.052150921372231e-05,2.841296372935176e-05,2.677878728718497e-05,5.060806142864749e-05
-4.0378337871516123e-05,9.883592611004133e-06,2.3006374249234796e-05,1.6090067219920456e-05,5.048700768384151e-05
-4.056030229548924e-05,6.136551292001968e-06,1.8796028598444536e-05,5.192339813220315e-06,5.523697836906649e-05
-3.9513837691629305e-05,1.232714294019388e-05,1.775364944478497e-05,9.680151151769678e-07,5.8166104281554e-05
-3.7743164284620434e-05,2.646136999828741e-05,1.90491191460751e-05,3.204105041731964e-06,5.650337698170915e-05
-3.371741695445962e-05,4.3890126107726246e-05,1.571765278640669e-05,2.7267603854852496e-06,5.238771700533107e-05
-2.0412568119354546e-05,5.714549115509726e-05,7.842596460250206e-06,-3.210449222024181e-06,5.0522230594651774e-05
-1.3699998817173764e-05,6.088883674237877e-05,2.0612310436263215e-06,-1.105350656871451e-05,5.2571544074453413e-05
-1.851039814937394e-05,5.491648335009813e-05,1.2196060197311454e-06,-1.1659490155579988e-05,5.864703780389391e-05
-2.4710825528018177e-05,4.320293010096066e-05,1.941297796292929e-06,-1.1055401046178304e-05,6.29204441793263e-05
-2.6333556888857856e-05,3.0354896807693876e-05,-1.131128328779596e-06,-1.3555346413340885e-05,6.379809201462194e-05
-2.06759141292423e-05,2.3572423742734827e-05,-8.331255230586976e-06,-1.601302392373327e-05,6.486644997494295e-05
-1.4035878848517314e-05,2.3431201043422334e-05,-1.3741872862738091e-05,-1.8371401893091388e-05,6.752524495823309e-05
-1.3437678717309609e-05,2.0337076421128586e-05,-1.0779609510791488e-05,-2.0561308701871894e-05,6.631493306485936e-05
-1.894121123768855e-05,1.404954855388496e-05,-3.2228761028818553e-06,-1.9434633941273205e-05,6.13433585385792e-05
-1.931447877723258e-05,6.508375008706935e-06,3.788630237977486e-06,-1.1825165529444348e-05,5.8189325500279665e-05
-1.2952048564329743e-05,-1.220032714854824e-07,8.895354767446406e-06,-4.55431609225343e-06,5.6139710068237036e-05
-5.724312359234318e-06,1.013031351249083e-06,1.0360253327235114e-05,-3.84303984901635e-06,5.378669447964057e-05
-2.9474138045770815e-06,1.093305581889581e-05,8.911261829780415e-06,-6.587502412003232e-06,5.2071532991249114e-05
-4.122567133890698e-06,1.7178830603370443e-05,8.635776794108097e-06,-9.933391083905008e-06,5.0994018238270655e-05
-8.089305083558429e-06,9.796728591027204e-06,9.18926434678724e-06,-1.3867505003872793e-05,5.2812891226494685e-05
-1.370121754007414e-05,-1.1110245395684615e-05,9.056836461240891e-06,-1.3829750059812795e-05,5.665036951540969e-05
-2.5058257961063646e-05,-3.394843224668875e-05,9.857804798230063e-06,-1.3094865607854445e-05,5.83174369239714e-05
-4.153113695792854e-05,-3.779744656640105e-05,1.0205057151324581e-05,-1.395320850861026e-05,5.870138920727186e-05
-5.975538806524128e-05,-1.5153533240663819e-05,9.820432751439512e-06,-1.5826035451027565e-05,5.7319775805808604e-05
-6.817856774432585e-05,1.5189451005426235e-05,1.215985685121268e-05,-1.9788973077083938e-05,5.498024984262884e-05
-6.09372764301952e-05,3.426825060159899e-05,1.383486142003676e-05,-2.2453967176261358e-05,5.1340044592507184e-05
-5.018638330511749e-05,4.2170202505076304e-05,7.836884833523072e-06,-2.1417823518277146e-05,4.9927482905332e-05
-4.661091588786803e-05,4.9667389248497784e-05,6.340790605463553e-06,-1.4058282431506086e-05,5.492016862262972e-05
-4.6064593334449455e-05,6.313172343652695e-05,4.508190613705665e-06,-2.485594677636982e-06,6.194388697622344e-05
-4.472872751648538e-05,7.601063407491893e-05,-3.854513579426566e-06,6.495874913525768e-07,6.504190969280899e-05
-3.9306163671426475e-05,8.478543168166652e-05,-7.585652383568231e-06,-3.7719664760516025e-06,6.45319014438428e-05
-3.2345215004170313e-05,8.719187462702394e-05,-7.801789251971059e-06,-5.122657057654578e-06,6.267902790568769e-05
-2.626090463309083e-05,8.210079977288842e-05,-8.151271686074324e-06,-1.7703183630146668e-06,6.0354046581778675e-05
-2.0666360796894878e-05,7.017610914772376e-05,-6.808526904933387e-06,8.106016480269318e-07,5.8109231758862734e-05
-2.0754649085574783e-05,5.9481692005647346e-05,-4.98836243423284e-06,-2.1809182726428844e-06,5.6626849982421845e-05
-2.3818123736418784e-05,6.237912748474628e-05,-5.328406132321106e-06,-5.707946002075914e-06,5.512873758561909e-05
-2.3217187845148146e-05,7.812917465344071e-05,-3.6180956612952286e-06,-6.701692200294929e-06,5.385091571952216e-05
-1.349391277472023e-05,8.862352115102112e-05,2.5307920736850065e-07,-6.567143373104045e-06,5.4024476412450895e-05
-1.1166092406256212e-07,8.006607822608203e-05,4.435280970938038e-06,-7.406452823488507e-06,5.619788498734124e-05
7.032570465526078e-06,5.711577978217974e-05,7.851306691009086e-06,-9.971303370548412e-06,5.682593837263994e-05
4.767791324411519e-06,3.727655712282285e-05,8.801180229056627e-06,-1.2467894521250855e-05,5.446559589472599e-05
-4.875254830949416e-07,3.456017657299526e-05,8.06535445008194e-06,-1.3635814866574947e-05,5.443303962238133e-05
-5.668498943123268e-06,4.513259409577586e-05,6.656513505731709e-06,-1.419386808265699e-05,5.872814654139802e-05
-1.0488608495506924e-05,5.1808216085191816e-05,4.172166882199235e-06,-1.6991665688692592e-05,6.444170139729977e-05
-1.1229190931771882e-05,4.660259583033621e-05,-6.821532565481903e-07,-2.0069135644007474e-05,6.555260915774852e-05
-6.0079273680457845e-06,3.860736615024507e-05,-1.0414032658445649e-05,-1.929560130520258e-05,6.391273200279102e-05
1.0719448937379639e-06,3.189340714015998e-05,-2.1520056179724634e-05,-1.7495880456408486e-05,6.568107346538454e-05
8.312180398206692e-06,2.3618047634954564e-05,-2.525815762055572e-05,-1.6436923033325e-05,6.893875979585573e-05
1.5954708942444995e-05,9.797474376682658e-06,-2.1312685930752195e-05,-1.567065373819787e-05,6.83060206938535e-05
2.316018617420923e-05,1.367426705201069e-07,-1.4850565094093326e-05,-1.7582678992766887e-05,6.361540727084503e-05
2.698132630030159e-05,-1.317282453783264e-06,-8.024389899219386e-06,-2.0807325199712068e-05,6.0707687225658447e-05
2.2063359210733324e-05,-8.212759894377086e-06,-9.117412673731451e-07,-2.393414979451336e-05,6.080641833250411e-05
8.892646292224526e-06,-9.226362635672558e-06,5.897903065488208e-06,-2.3512962798122317e-05,6.015025792294182e-05
-2.129731456079753e-06,7.252689101733267e-06,1.176374644273892e-05,-1.8164608263759874e-05,5.865475031896494e-05
-5.507872174348449e-06,2.5261526388931088e-05,1.7011479940265417e-05,-7.493882549169939e-06,5.8534635172691196e-05
-6.193747140059713e-06,1.794553463696502e-05,1.5507439456996508e-05,-1.1980203851180704e-07,5.9664926084224135e-05
-1.0858224413823336e-05,-1.5323652405641042e-05,6.805780685681384e-06,-2.834193082890124e-06,5.947962563368492e-05
-1.590362808201462e-05,-3.296985960332677e-05,-2.9145207918190863e-06,-7.113086212484632e-06,5.941088602412492e-05
-1.2933500329381786e-05,-1.4770513189432677e-05,-4.8179672376136295e-06,-1.0615316568873823e-05,6.166385719552636e-05
-8.425366104347631e-06,1.2635541679628659e-05,1.9105514184047934e-06,-1.3349414984986652e-05,6.637500337092206e-05
-9.670852705312427e-06,2.6314237402402796e-05,1.0246551028103568e-05,-1.4769851986784488e-05,6.968936213525012e-05
-1.3486657735484187e-05,2.852468787750695e-05,2.023151500907261e-05,-1.3153880900063086e-05,6.895340629853308e-05
-1.8037380868918262e-05,2.811000194924418e-05,2.4740593289607204e-05,-1.1693183296301868e-05,6.502567703137174e-05
-2.3978765966603532e-05,2.898318416555412e-05,2.4651457351865247e-05,-1.2455782780307345e-05,6.152026617201045e-05
-2.6721385438577272e-05,2.46625659201527e-05,2.434483394608833e-05,-1.486204746470321e-05,6.156930612633005e-05
-2.781568400678225e-05,1.3278337064548396e-05,2.492539533704985e-05,-1.6176152712432668e-05,6.275592022575438e-05
-2.9854942113161087e-05,4.278478627384175e-06,2.6374784283689223e-05,-1.4645552255387884e-05,6.11401628702879e-05
-2.747858343354892e-05,2.9809316401951946e-06,2.84748002741253e-05,-1.1889850611623842e-05,5.891316322959028e-05
-2.2231663024285808e-05,2.3630122996110003e-06,3.0453380531980656e-05,-1.0218484931101557e-05,5.9864130889764056e-05
-1.992747093026992e-05,1.1396314221201465e-06,3.0098974093561992e-05,-1.2086748029105365e-05,6.137708260212094e-05
-2.0623554519261234e-05,7.385940534732072e-07,2.7155872885487042e-05,-1.5853967852308415e-05,6.081473111407831e-05
-2.0241552192601375e-05,-1.1371748769306578e-06,2.187537756981328e-05,-2.1055846445960924e-05,5.891057298867963e-05
-1.8831797206075862e-05,-1.8535586150392191e-06,1.7032589312293567e-05,-2.5376923076692037e-05,5.747831892222166e-05
-1.853906360338442e-05,2.1566272607742576e-06,1.3551754818763584e-05,-2.5497878596070223e-05,5.546378088183701e-05
-2.145832149835769e-05,4.833996172237676e-06,1.0026752534031402e-05,-2.319996383448597e-05,5.412926111603156e-05
-2.6614981834427454e-05,3.5341745387995616e-06,8.784960300545208e-06,-2.2742246073903516e-05,5.203288674238138e-05
-3.489547088975087e-05,7.549655038019409e-06,9.269591828342527e-06,-2.198700894950889e-05,5.1240695029264316e-05
-4.430020271684043e-05,2.371601658524014e-05,8.673600859765429e-06,-1.661909482209012e-05,5.303529906086624e-05
-4.869664917350747e-05,5.388208955992013e-05,1.0328823918825947e-05,-9.443459020985756e-06,5.243065970716998e-05
-5.070822226116434e-05,8.729408000363037e-05,6.17192290519597e-06,-8.738649739825632e-06,5.0009995902655646e-05
-4.9025689804693684e-05,9.964472701540217e-05,2.633793769746262e-07,-7.957304660521913e-06,5.107479591970332e-05
-4.498875932767987e-05,9.39937453949824e-05,7.71045336023235e-07,-2.976890073114191e-06,5.639311348204501e-05
-4.253557926858775e-05,8.885087299859151e-05,2.6641587282938417e-06,2.92209961116896e-06,6.058029975974932e-05
-4.1330134990857914e-05,8.843420800985768e-05,3.837514213955728e-06,9.977987247111741e-06,6.166073580970988e-05
-4.2014900827780366e-05,8.952937059802935e-05,5.678771231032442e-06,1.5581026673316956e-05,5.868224980076775e-05
-3.63612016371917e-05,8.074421202763915e-05,1.0560635018919129e-05,2.1613675926346332e-05,5.693312414223328e-05
-2.2767555492464453e-05,6.061743988539092e-05,1.394106584484689e-05,2.4125025447574444e-05,5.786336259916425e-05
-1.2514400623331312e-05,3.031223786820192e-05,1.1309183719276916e-05,1.8575216017779894e-05,5.903685814701021e-05
-4.803160663868766e-06,-7.19705167284701e-06,7.5342859418014996e-06,4.49890831077937e-06,5.8885627367999405e-05
-7.200979325716617e-06,-4.4478987547336146e-05,7.122260740288766e-06,-1.1362853911123239e-05,5.7607419876148924e-05
-2.0213066818541847e-05,-5.634003900922835e-05,6.030779786669882e-06,-2.1558609660132788e-05,5.864753256901167e-05
-3.13304117298685e-05,-2.8841848688898608e-05,5.425561777627763e-09,-2.7815654902951792e-05,6.024044705554843e-05
-3.696900967042893e-05,2.0605979443644173e-05,-6.333897999866167e-06,-2.900776053138543e-05,5.7914890930987895e-05
-4.367353176348843e-05,5.9375306591391563e-05,-7.957806701597292e-06,-2.324898923689034e-05,5.168524876353331e-05
-5.481731204781681e-05,7.22966724424623e-05,-8.569679266656749e-06,-1.5893754607532173e-05,4.834415813093074e-05
-6.248318823054433e-05,7.004452345427126e-05,-1.0645748261595145e-05,-1.4290195395005867e-05,5.080042683403008e-05
-6.15788740105927e-05,6.710623711114749e-05,-1.0945076610369142e-05,-1.67307625815738e-05,5.531058195629157e-05
-5.0509057473391294e-05,6.796696106903255e-05,-9.564394531480502e-06,-1.7279053281527013e-05,5.9886046074097976e-05
-3.6136028938926756e-05,5.895819776924327e-05,-9.255310033040587e-06,-1.5498877473874018e-05,6.17035329923965e-05
-2.7589232558966614e-05,3.267814827268012e-05,-9.150416190095711e-06,-1.4766069398319814e-05,5.960584167041816e-05
-2.5864697818178684e-05,2.428824245725991e-06,-7.043897767289309e-06,-1.5331226677517407e-05,5.846014028065838e-05
-2.817438326019328e-05,-1.3944148122391198e-05,-4.263565188011853e-06,-1.461449392081704e-05,6.11777140875347e-05
-3.200500214006752e-05,-1.2498702744778711e-05,-3.401502681299462e-06,-1.5452282241312787e-05,6.585214578080922e-05
-3.0454117222689092e-05,-8.026141586015001e-06,-2.9691188956348924e-06,-1.55874622578267e-05,6.721487443428487e-05
-2.154412868549116e-05,-8.466937288176268e-06,3.0054895461262277e-08,-8.081517080427147e-06,6.525238131871447e-05
-1.208760204463033e-05,-4.90584761791979e-06,2.775539314825437e-06,-1.7923046016221633e-06,6.25289321760647e-05
-9.727345968713053e-06,2.663187842699699e-06,7.496610578527907e-06,1.364030453032683e-07,6.17820187471807e-05
-1.141130178439198e-05,6.490189662144985e-06,1.4120871128397994e-05,-1.702542476778035e-06,6.370035407599062e-05
-1.5407476894324645e-05,6.394587217073422e-06,2.060911174339708e-05,-2.536367901484482e-06,6.437786214519292e-05
-2.0742707420140505e-05,1.056798191712005e-05,2.339473030588124e-05,-1.5990653992048465e-06,6.186820974107832e-05
-2.551881698309444e-05,1.7211796148330905e-05,1.4224802725948393e-05,-7.98449127614731e-06,6.085725544835441e-05
-2.903096901718527e-05,2.1991259927744977e-05,4.900028329757333e-07,-1.4773247130506206e-05,5.985530879115686e-05
-3.085973730776459e-05,1.0005888725572731e-05,-1.3087833394820336e-05,-1.685373172222171e-05,5.995341052766889e-05
-3.081645263591781e-05,-4.404362698551267e-06,-2.11040551221231e-05,-1.4322180504677817e-05,6.2528059061151e-05
-3.35133372573182e-05,-6.560833867297333e-07,-2.5869550881907344e-05,-7.938238013593946e-06,6.566353840753436e-05
-3.720863242051564e-05,1.666576281422749e-05,-2.9016149710514583e-05,-2.197057256125845e-07,6.769612082280219e-05
-3.4512173442635685e-05,3.516312062856741e-05,-2.510580452508293e-05,4.8887777666095644e-06,6.85858612996526e-05
-3.0534196412190795e-05,4.928559428662993e-05,-1.4731174815096892e-05,7.280302725121146e-06,7.287471817107871e-05
-3.0115452318568714e-05,5.991091165924445e-05,-7.517094672948588e-06,6.424396815418731e-06,7.726104377070442e-05
-3.320803807582706e-05,6.262195529416203e-05,-5.128482371219434e-06,2.4992687031044625e-06,7.715346873737872e-05
-3.7030738894827664e-05,5.7954370277002454e-05,1.7579026234670891e-07,-3.3864375836856198e-06,6.792906788177788e-05
-3.979528628406115e-05,5.133888407726772e-05,5.714375220122747e-06,-1.128981512010796e-05,4.891536809736863e-05
-3.9055681554600596e-05,4.767123027704656e-05,5.769409654021729e-06,-2.3055032215779647e-05,2.731488348217681e-05
-3.645004107966088e-05,4.485839599510655e-05,3.1436222798220115e-06,-3.651481165434234e-05,1.4239921256375965e-05
-3.589605330489576e-05,4.8578320274828e-05,6.090655915613752e-06,-4.61872732557822e-05,1.18013895189506e-05
-3.4403357858536765e-05,6.286202551564202e-05,1.2011126273137052e-05,-5.3173702326603234e-05,1.154267283709487e-05
-2.9221433578641154e-05,7.438786997226998e-05,1.8899881979450583e-05,-5.624963523587212e-05,5.231180693954229e-06
-2.6030358640127815e-05,6.790252518840134e-05,2.034732278843876e-05,-5.4911553888814524e-05,-3.129123342660023e-06
-3.106080839643255e-05,5.438667722046375e-05,1.173438795376569e-05,-5.55034312128555e-05,-4.968892426404636e-06
-4.175136564299464e-05,4.56015914096497e-05,3.312816488687531e-06,-6.063713590265252e-05,-7.440083749088444e-08
-4.904997331323102e-05,4.163835183135234e-05,4.084279225935461e-06,-6.210124411154538e-05,5.182702352612978e-06
-4.9945665523409843e-05,4.113146133022383e-05,1.00562992884079e-05,-5.1396371418377385e-05,8.879004781192634e-06
-4.5724198571406305e-05,3.9233909774338827e-05,1.3822930668538902e-05,-3.324008866911754e-05,1.4527868188451976e-05
-4.0946270019048825e-05,3.004255449923221e-05,9.410587153979577e-06,-1.5814282960491255e-05,1.99023761524586e-05
-3.8137761293910444e-05,1.963410795724485e-05,3.444753929215949e-06,4.159130639891373e-06,1.675604835327249e-05
-3.359633046784438e-05,1.5216733117995318e-05,4.467352482606657e-06,2.698222488106694e-05,1.1384330719010904e-05
-3.132546044071205e-05,1.677488580753561e-05,1.0981269952026196e-05,4.688580156653188e-05,1.549904845887795e-05
-3.673882019938901e-05,2.0144258087384515e-05,1.8213695511803962e-05,6.187899271026254e-05,2.336381839995738e-05
-4.0702481783227995e-05,2.1391097106970847e-05,2.4513667085557245e-05,7.085590914357454e-05,2.5481909688096493e-05
-3.8988997403066605e-05,2.632478208397515e-05,2.9337514206417836e-05,6.76486743032001e-05,2.1573150661424734e-05
-3.630355786299333e-05,3.771640331251547e-05,3.252461465308443e-05,5.695613435818814e-05,2.0671510355896316e-05
-3.697871579788625e-05,4.662687933887355e-05,3.711777026182972e-05,3.80764868168626e-05,2.170165316783823e-05
-4.055394674651325e-05,4.834686478716321e-05,3.8277208659565076e-05,7.1689569267618936e-06,2.4211196432588622e-05
-4.3406955228419974e-05,4.4786349462810904e-05,3.418339110794477e-05,-2.4849487090250477e-05,2.9125043511157855e-05
-4.724408790934831e-05,4.098925637663342e-05,2.9530665415222757e-05,-5.137224798090756e-05,3.0468600016320124e-05
-4.893643199466169e-05,3.7242640246404335e-05,2.4564475097577088e-05,-6.888085044920444e-05,2.9278287911438383e-05
-4.4221254938747734e-05,3.5350516554899514e-05,1.976809471671004e-05,-7.46497607906349e-05,3.0731513106729835e-05
-3.917088179150596e-05,3.1279520044336095e-05,1.5886074834270403e-05,-6.661695806542411e-05,3.674577601486817e-05
-3.9845926949055865e-05,2.2769152565160766e-05,1.119322951126378e-05,-4.702926889876835e-05,4.3984782678307965e-05
-4.727523628389463e-05,1.643904579395894e-05,3.989501692558406e-06,-2.177332316932734e-05,4.811073813471012e-05
-5.763289664173499e-05,1.6323852833011188e-05,-1.9757401332753943e-06,2.131200517396792e-06,4.693990194937214e-05
-6.224662502063438e-05,1.793012415873818e-05,-5.431802037492162e-06,2.1494854081538506e-05,4.780918243341148e-05
-6.0732592828571796e-05,1.7076301446650177e-05,-9.0972134785261e-06,3.449550422374159e-05,5.46928531548474e-05
-5.8933099353453144e-05,1.7849821233539842e-05,-1.2167369277449325e-05,3.526462387526408e-05,6.027256677043624e-05
-5.661910472554155e-05,2.1056672267150134e-05,-1.4528925021295436e-05,2.5204566554748453e-05,6.156357994768769e-05
-4.8388068535132334e-05,2.7682079235091805e-05,-1.6989652067422867e-05,1.2240343494340777e-05,6.225179822649807e-05
-4.126694329897873e-05,3.57063181581907e-05,-1.9060731574427336e-05,-5.634271360577259e-07,6.376228702720255e-05
-3.7221598176984116e-05,4.238091059960425e-05,-1.9192191757611e-05,-1.1142471521452535e-05,6.636350008193403e-05
-3.722505789482966e-05,5.011012399336323e-05,-1.9134318790747784e-05,-2.3497910660807975e-05,6.826751632615924e-05
-4.4763692130800337e-05,6.0857484641019255e-05,-1.9753222659346648e-05,-4.7520316002191976e-05,6.928970105946064e-05
-5.212480391492136e-05,6.364662840496749e-05,-1.727230664982926e-05,-8.085381705313921e-05,7.281887519638985e-05
-4.599363455781713e-05,5.5535791034344584e-05,-1.6091533325379714e-05,-9.836199751589447e-05,7.819075835868716e-05
-2.5325660317321308e-05,2.1759895389550366e-05,-1.676368628977798e-05,-9.151991253020242e-05,8.405901462538168e-05
-6.240075435925974e-06,-3.7361314753070474e-05,-1.5166592675086576e-05,-6.809763726778328e-05,8.829147554934025e-05
5.2551840781234205e-06,-7.940226350910962e-05,-1.4217273019312415e-05,-3.442098750383593e-05,9.177472384180874e-05
7.869606633903459e-06,-7.101141818566248e-05,-9.374328328703996e-06,-3.6054154861631105e-06,9.285415580961853e-05
6.442664016503841e-06,-1.779093327058945e-05,-3.6228611861588433e-06,2.1338259102776647e-05,9.136817971011624e-05
4.348811671661679e-06,5.5261341913137585e-05,3.6139269923296524e-06,3.767385351238772e-05,8.909216558095068e-05
3.630750370575697e-06,0.00012143320782342926,1.2964657798875123e-05,4.9483744078315794e-05,8.675866411067545e-05
5.4896713663765695e-06,0.00015793213970027864,1.921742114063818e-05,6.330717587843537e-05,8.673359843669459e-05
1.0167138498218264e-05,0.00015582777268718928,2.2866179278935306e-05,7.9401332186535e-05,8.672977128298953e-05
1.971343590412289e-05,0.00012562070332933217,2.2799320504418574e-05,8.123020234052092e-05,8.611513476353139e-05
3.2895510230446234e-05,8.474238711642101e-05,2.034593308053445e-05,6.306989962467924e-05,8.622089080745354e-05
4.111916132387705e-05,3.974236824433319e-05,2.003000190597959e-05,3.972604463342577e-05,8.97898426046595e-05
3.7003443139838055e-05,-1.1461053873063065e-05,2.4183018467738293e-05,2.719064286793582e-05,9.258864884031937e-05
2.4023162040975876e-05,-6.784198194509372e-05,3.007606756000314e-05,3.27198431477882e-05,8.813345630187541e-05
9.376260095450561e-06,-0.00010267960897181183,3.277705764048733e-05,4.785191049450077e-05,7.916542381281033e-05
4.110188456252217e-06,-8.636659185867757e-05,3.182834552717395e-05,5.435983985080384e-05,7.25851277820766e-05
9.018216587719508e-06,-2.523573857615702e-05,2.811582453432493e-05,3.781869600061327e-05,7.152321632020175e-05
1.453905406378908e-05,4.519997673924081e-05,2.0274352209526114e-05,1.7737625057634432e-06,7.188242307165638e-05
1.2439045349310618e-05,9.560830949340016e-05,1.0714668860600796e-05,-4.101527883904055e-05,7.322105375351384e-05
1.496661070632399e-06,0.00011354054004186764,1.5511822084590676e-06,-7.154773629736155e-05,7.865425141062587e-05
-1.1006584827555344e-05,0.00010568893048912287,-6.895111710036872e-06,-7.582508987979963e-05,8.317476749652997e-05
-2.1003403162467293e-05,8.91032032086514e-05,-1.0293499144609086e-05,-5.605360638583079e-05,8.431605238001794e-05
-3.467486021691002e-05,7.707942859269679e-05,-4.838121185457567e-06,-3.039110561076086e-05,8.337706094607711e-05
-4.5379463699646294e-05,7.053290755720809e-05,2.840779416146688e-07,-1.4651854144176468e-05,7.897699833847582e-05
-4.432072819327004e-05,5.361712464946322e-05,-3.671382728498429e-06,-7.694642590649892e-06,7.506902329623699e-05
-3.503472908050753e-05,1.757767859089654e-05,-1.2995783436053898e-05,-5.3578642109641805e-06,7.324993202928454e-05
-2.581204353191424e-05,-2.1211928469710983e-05,-1.773238182067871e-05,-1.2076108760084026e-05,6.565617513842881e-05
-2.1715424736612476e-05,-5.050312392995693e-05,-1.451001844543498e-05,-1.5555075151496567e-05,5.624002369586378e-05
-2.254238643217832e-05,-6.684551044600084e-05,-6.785330242564669e-06,-1.2870355021732394e-05,5.7850218581734225e-05
-2.1712459783884697e-05,-6.503256736323237e-05,1.3528060662792996e-06,-1.3600568308902439e-05,6.991116242716089e-05
-1.178073671326274e-05,-4.697685653809458e-05,9.810241863306146e-06,-1.473698102927301e-05,8.094550139503554e-05
1.278169838769827e-05,-2.4688997655175626e-05,2.094100091198925e-05,-1.580134812684264e-05,8.02017530077137e-05
3.4517939639044926e-05,-1.3587644389190245e-05,2.9978005841257982e-05,-1.6618163499515504e-05,7.33301931177266e-05
2.9541079129558057e-05,-5.128815246280283e-06,3.227289562346414e-05,-6.8217518673918676e-06,6.925837078597397e-05
4.411998361320002e-06,1.0538677088334225e-05,3.04330878861947e-05,1.676027568464633e-05,6.853614468127489e-05
-2.6504607376409695e-05,2.7054031306761317e-05,3.190467759850435e-05,4.617338709067553e-05,6.842025322839618e-05
-4.495164830586873e-05,4.306840855861083e-05,3.9449467294616625e-05,7.132016617106274e-05,7.007902604527771e-05
-4.348381844465621e-05,6.0906768339918926e-05,4.853541395277716e-05,8.349400741280988e-05,7.323618774535134e-05
-3.274899427196942e-05,7.141588866943493e-05,5.358849739423022e-05,8.175576658686623e-05,7.761806773487478e-05
-2.2917733076610602e-05,6.318849773379043e-05,5.457147562992759e-05,7.026288221823052e-05,8.174440881703049e-05
-1.6673709978931583e-05,4.177541268290952e-05,4.968016219208948e-05,5.283589052851312e-05,8.500286639900878e-05
-1.5310866729123518e-05,2.24707637244137e-05,3.430857032071799e-05,2.9555683795479126e-05,8.565968164475635e-05
-2.048586065939162e-05,7.597547210025368e-06,1.363424144074088e-05,9.264222455840354e-08,8.06038806331344e-05
-3.0176051950547844e-05,-6.9501707002928015e-06,-2.2918420654605143e-06,-3.1501178455073386e-05,7.120258669601753e-05
-3.745479989447631e-05,-1.2448267625586595e-05,-9.973439773602877e-06,-5.452217737911269e-05,5.938678077654913e-05
-3.742552507901564e-05,-1.2525048077804968e-05,-1.2315399544604588e-05,-6.27057088422589e-05,5.017085641156882e-05
-3.6757341149495915e-05,-1.601310941623524e-05,-1.2454403986339457e-05,-5.703133138013072e-05,4.791042738361284e-05
-3.893569009960629e-05,-1.678599619481247e-05,-1.4057698535907548e-05,-4.321306187193841e-05,5.496343146660365e-05
-4.042134969495237e-05,-9.049606887856498e-06,-1.6737674741307274e-05,-2.948856126749888e-05,6.729455344611779e-05
-4.078406345797703e-05,2.4761841359577375e-06,-1.7022122847265564e-05,-2.1872636352782138e-05,7.775671110721305e-05
-4.095350595889613e-05,1.2369073374429718e-05,-1.2216522918606643e-05,-1.8946573618450202e-05,8.635702397441491e-05
-4.718896161648445e-05,1.8378626919002272e-05,-1.6814243508633808e-06,-1.5863839507801458e-05,9.056898124981672e-05
-5.358580165193416e-05,2.429096093692351e-05,9.09028312889859e-06,-6.4713585743447766e-06,8.835649350658059e-05
-5.3263516747392714e-05,3.61463607987389e-05,1.0561285307630897e-05,1.9237074866396142e-06,8.877953223418444e-05
-4.570076634990983e-05,4.6100471081444994e-05,9.3798707894166e-06,-2.2605608762660268e-07,8.935901132645085e-05
-3.654168176581152e-05,5.122600487084128e-05,6.225608103704872e-06,-1.4442487554333638e-05,8.640596934128553e-05
-3.73116199625656e-05,6.003987436997704e-05,-2.142176526831463e-06,-3.5750614188145846e-05,7.628394814673811e-05
-4.167983934166841e-05,7.356364221777767e-05,-8.70442181621911e-06,-5.221514220465906e-05,6.34823736618273e-05
-3.527338049025275e-05,7.990163430804387e-05,-1.272132431040518e-05,-6.161921191960573e-05,6.978001329116523e-05
-1.8936221749754623e-05,7.655287481611595e-05,-1.269759832212003e-05,-6.711297464789823e-05,9.894900722429156e-05
-8.103748768917285e-06,6.992528506089002e-05,-1.2668090676015709e-05,-6.896281411172822e-05,0.00012889060599263757
-8.04295177658787e-06,6.119528552517295e-05,-1.2333460290392395e-05,-6.487539212685078e-05,0.00014489125169347972
-1.1644355254247785e-05,5.0943570386152714e-05,-1.3736350410908926e-05,-6.142538040876389e-05,0.0001473008596803993
-1.4620374713558704e-05,4.2789382860064507e-05,-1.5488309145439416e-05,-6.85094710206613e-05,0.00014439885853789747
-1.9346281987964176e-05,3.7913636333541945e-05,-1.512167182227131e-05,-9.478720312472433e-05,0.00014177896082401276
-2.5053777790162712e-05,3.3443102438468486e-05,-1.3398390365182422e-05,-0.00014044971612747759,0.00013952057634014636
-3.170962008880451e-05,2.9719671147176996e-05,-1.1543085747689474e-05,-0.00018229761917609721,0.00013524998212233186
-4.2239538743160665e-05,2.579736064944882e-05,-9.605811101209838e-06,-0.00019615965720731765,0.000125095626572147
-4.986850035493262e-05,1.6218826203839853e-05,-7.669463229831308e-06,-0.0001806149521144107,0.00011186511255800724
-4.757671558763832e-05,-7.892554094723891e-06,-6.919664883753285e-06,-0.00014718073362018913,9.976845467463136e-05
-4.183845521765761e-05,-4.0983970393426716e-05,-6.2283238548843656e-06,-0.00010826481593539938,9.132132981903851e-05
-3.436967745074071e-05,-5.6289994972757995e-05,-6.3751949710422195e-06,-6.572176062036306e-05,8.543562580598518e-05
-2.3563337890664116e-05,-3.825611202046275e-05,-7.3534538387320936e-06,-8.369665920326952e-06,8.455907664028928e-05
-1.9042252461076714e-05,-4.347276103544573e-07,-8.149549103109166e-06,5.83147702855058e-05,8.775841706665233e-05
-2.492246130714193e-05,3.664445102913305e-05,-1.8511848338675918e-06,0.00011160173744428903,9.011961810756475e-05
-3.216959521523677e-05,5.9590434830170125e-05,1.5875621102168225e-05,0.00014617960550822318,8.799796341918409e-05
-3.130226468783803e-05,6.455171387642622e-05,3.9083854062482715e-05,0.0001654799998505041,8.422345126746222e-05
-2.2223130144993775e-05,6.42281083855778e-05,5.223526022746228e-05,0.0001691056531853974,9.073213732335716e-05
-1.0873093742702622e-05,7.08721490809694e-05,5.4672156693413854e-05,0.00016926444368436933,0.00010365409252699465
8.991062117047477e-08,7.952043961267918e-05,5.561584112001583e-05,0.00016659469110891223,0.00010734007082646713
1.063217223418178e-05,7.8611119533889e-05,5.250460890238173e-05,0.00014168894267641008,0.00010217283852398396
1.6562062228331342e-05,6.453120295191184e-05,3.73354741896037e-05,6.683129322482273e-05,9.374059300171211e-05
1.4901079339324497e-05,5.248010711511597e-05,1.4267195183492731e-05,-3.754520002985373e-05,8.539268310414627e-05
4.216395154799102e-06,4.1640771087259054e-05,-6.577837666554842e-06,-0.00010080733773065731,7.8711767855566e-05
-6.812055744376266e-06,2.5392582756467164e-05,-1.7218206266989e-05,-0.00011298497702227905,7.154230115702376e-05
-1.5826728485990316e-05,1.7529315300635062e-05,-1.8949785953736864e-05,-0.00011014873598469421,6.0010723245795816e-05
-2.8222426408319734e-05,1.9364086256246082e-05,-2.0701936591649428e-05,-0.00010824359196703881,4.002567948191427e-05
-3.9667924284003675e-05,2.0893774490104988e-05,-2.1144174752407707e-05,-0.00010850981925614178,2.0818521079490893e-05
-4.867033931077458e-05,2.268296157126315e-05,-2.0536233932944015e-05,-0.00010230916814180091,2.1751635358668864e-05
-5.6422042689519e-05,2.484216747689061e-05,-1.8008886399911717e-05,-7.62913259677589e-05,4.505005927057937e-05
-5.9241068811388686e-05,2.3239752408699133e-05,-1.1020253623428289e-05,-3.4415290429024026e-05,6.979980389587581e-05
-5.437893560156226e-05,2.163285535061732e-05,-2.417144969513174e-06,7.985469892446417e-06,7.905763777671382e-05
-4.80004346172791e-05,2.7053805752075277e-05,7.306104180315742e-06,3.8927177229197696e-05,7.621461554663256e-05
-4.104643812752329e-05,3.7617584894178435e-05,1.885964047687594e-05,5.6890527048381045e-05,6.928441143827513e-05
-3.448998904787004e-05,4.281120709492825e-05,2.9148608518880792e-05,6.812471838202327e-05,6.193029548740014e-05
-2.7380614483263344e-05,3.845373430522159e-05,3.365729207871482e-05,7.967156125232577e-05,5.533088187803514e-05
-1.9683269783854485e-05,2.6097288355231285e-05,3.477515929262154e-05,9.195433813147247e-05,4.770005398313515e-05
-1.2988692105864175e-05,7.907648978289217e-06,3.427819683565758e-05,9.355600195704028e-05,4.0025344787864015e-05
-7.767492206767201e-06,-9.314154425510424e-08,3.140348781016655e-05,7.257294782903045e-05,3.458612991380505e-05
-3.126940555375768e-06,1.71149404195603e-05,2.862675319192931e-05,3.69813060387969e-05,3.422984809731133e-05
2.2741116936231265e-06,3.923842450603843e-05,2.4787992515484802e-05,5.381970822782023e-06,3.724440102814697e-05
3.0110134048300097e-06,4.6296336222440004e-05,1.4394542631634977e-05,-2.499981019354891e-05,3.736626968020573e-05
-9.636219147068914e-06,4.067178815603256e-05,-2.083141225739382e-06,-6.276740168686956e-05,3.354604268679395e-05
-3.254401235608384e-05,4.2440431570867077e-05,-1.7492762708570808e-05,-0.0001038994305417873,2.9115331926732324e-05
-4.8666617658454925e-05,6.135088187875226e-05,-2.3337586753768846e-05,-0.00012991322728339583,3.148640098515898e-05
-5.649509694194421e-05,6.836390093667433e-05,-1.614643588254694e-05,-0.00012836373934987932,3.941129398299381e-05
-6.242591916816309e-05,4.978151628165506e-05,-7.623193596373312e-06,-0.00010903213842539117,4.614897261490114e-05
-6.253250467125326e-05,1.8776492652250454e-05,-9.109375241678208e-06,-8.663913467898965e-05,4.8203284677583724e-05
-6.521292380057275e-05,-1.1616548363235779e-05,-1.364269610348856e-05,-6.1799306422472e-05,4.460109630599618e-05
-7.716968684690073e-05,-2.7281454094918445e-05,-1.390767010889249e-05,-3.039019793504849e-05,3.7356647226260975e-05
-8.601670560892671e-05,-2.2997965061222203e-05,-8.056354090513196e-06,9.98915948002832e-06,2.7428624889580533e-05
-8.73249227879569e-05,-1.0504162673896644e-05,6.152249056867731e-07,4.9939048039959744e-05,1.8706074115470983e-05
-8.094240911304951e-05,2.9155812626413535e-06,7.083476702973712e-06,7.283606828423217e-05,9.445407158636954e-06
-6.783371645724401e-05,1.5046495718706865e-05,1.2312617400311865e-05,8.032065670704469e-05,-1.45400770179549e-06
-5.606612467090599e-05,2.3134914954425767e-05,1.4598157576983795e-05,7.123321120161563e-05,-9.908488209475763e-06
-4.581741086440161e-05,3.0348290238180198e-05,1.590420288266614e-05,5.1740029448410496e-05,-1.1721602277248167e-05
-3.099795139860362e-05,3.7167850678088143e-05,1.8641412680153735e-05,3.730438038473949e-05,-5.727897587348707e-06
-2.0526784282992594e-05,4.9379592383047566e-05,2.225034768343903e-05,3.491718234727159e-05,3.215079914298258e-06
-1.8266569895786233e-05,6.855859101051465e-05,2.44656275754096e-05,3.619134076870978e-05,1.011383665172616e-05
-1.4924794413673226e-05,8.936933591030538e-05,2.6969401005771942e-05,2.9097778678988107e-05,1.3987464626552537e-05
-6.820931957918219e-06,9.781214612303302e-05,2.8629952794290148e-05,1.4408155038836412e-05,1.5377891031675972e-05
-1.5452680202088231e-07,9.109714301303029e-05,2.4964740077848546e-05,1.150907451119565e-06,1.7805859897634946e-05
4.329059720475925e-06,7.681112765567377e-05,1.6453905118396506e-05,-3.985968760389369e-06,2.4538234356441535e-05
4.448934760148404e-06,5.48284369870089e-05,6.329334610200021e-06,-4.275605078873923e-06,3.2658324926160276e-05
-3.767667976717348e-06,2.1362922780099325e-05,-4.939466293762962e-07,-8.085440640570596e-06,3.552534690243192e-05
-1.2648538358916994e-05,-6.2872186390450224e-06,-1.5457919744221726e-06,-1.9993609384982847e-05,3.08131129713729e-05
-1.7640266378293745e-05,-1.0632237717800308e-05,-1.1504318990773754e-06,-3.440639193286188e-05,2.3358737962553278e-05
-2.695062357815914e-05,-7.1017561822372954e-06,-3.4566519389045425e-06,-4.509120117290877e-05,1.9940333004342392e-05
-3.935626591555774e-05,-3.0184423849277664e-06,-5.954175776423654e-06,-4.73571453767363e-05,2.1150341126485728e-05
-4.5477721869247034e-05,6.004411716276081e-06,-6.937423222552752e-06,-4.425223232829012e-05,2.356375625822693e-05
-4.20268188463524e-05,1.3472478713083547e-05,-9.763414709595963e-06,-3.7896425055805594e-05,2.881185537262354e-05
-3.185818422934972e-05,8.639439329272136e-06,-1.165538196801208e-05,-3.112186095677316e-05,4.1259019781136885e-05
-2.2874757632962428e-05,-1.520342721050838e-05,-7.4673735070973635e-06,-2.5997142074629664e-05,5.940415940131061e-05
-1.436678667232627e-05,-5.163222158444114e-05,-2.096331172651844e-06,-1.7927033695741557e-05,7.713890227023512e-05
-1.1866485692735296e-05,-5.810231959912926e-05,1.9911847175535513e-06,-1.2837863323511556e-05,8.694102871231735e-05
-1.4723691492690705e-05,-2.0788947949768044e-05,1.979681883312878e-06,-1.3643368220073171e-05,8.540007547708228e-05
-2.337918704142794e-05,2.1524432668229565e-05,1.928021475805508e-07,-1.1752919817809016e-05,7.04030244378373e-05
-3.091266262345016e-05,4.1158386011375114e-05,4.426131454238202e-06,-6.885772563691717e-06,4.551905658445321e-05
-2.7765279810409993e-05,4.031655771541409e-05,8.627227543911431e-06,-2.924338332377374e-06,2.5478651878074743e-05
-1.677317777648568e-05,3.951786857214756e-05,4.420810910232831e-06,-3.5424753264123865e-07,1.0898642358370125e-05
-1.0981002560583875e-06,4.872774297837168e-05,-1.7621879351281677e-06,-2.3823513117804396e-07,-1.1463619102869416e-06
9.504515219305176e-06,6.169356493046507e-05,-3.163689143548254e-06,-2.7958012651652098e-06,-7.960332368384115e-06
1.1974163498962298e-05,6.633355951635167e-05,-8.6123475284694e-07,-3.3258791063417448e-06,-3.1972881515685003e-06
1.0532711712585296e-05,5.684904317604378e-05,5.403173304330267e-07,-1.4988480643296498e-06,1.138872448791517e-05
9.162566129816696e-06,4.6840028517181054e-05,-8.792417247605044e-07,-1.9034986280530575e-06,2.71591852651909e-05
5.055954261479201e-06,4.909183189738542e-05,-3.644060825536144e-06,-4.61092986370204e-06,3.586701495805755e-05
2.102380904034362e-06,5.5197269830387086e-05,-4.7412177082151175e-06,-9.526412213745061e-06,3.8186659367056563e-05
3.320519454064197e-06,4.878791514784098e-05,-7.53839003664325e-06,-1.529986366222147e-05,3.838447810267098e-05
6.400864094757708e-06,3.169496267219074e-05,-1.6182959370780736e-05,-1.926100958371535e-05,4.0302518755197525e-05
3.6580909181793686e-06,1.3441175724437926e-05,-2.308800321770832e-05,-2.318639417353552e-05,4.9827176553662866e-05
-5.2490040616248734e-06,-1.2312049193496932e-06,-2.1424097212729976e-05,-3.171665230183862e-05,6.108996603870764e-05
-7.1281187956628855e-06,-6.796527941332897e-06,-1.596195033926051e-05,-4.553217877401039e-05,6.171850691316649e-05
-3.0414721550187096e-06,6.674926680716453e-06,-1.322508614975959e-05,-5.6490600400138646e-05,5.107763354317285e-05
-7.634985195181798e-06,4.072543379152194e-05,-8.373798664251808e-06,-5.601601515081711e-05,3.797945464611985e-05
-2.0492578187258914e-05,8.237325528170913e-05,2.3619315925316187e-06,-4.75340239063371e-05,2.8502943678176962e-05
-2.5977422410505824e-05,0.00010661087435437366,1.2485218576330226e-05,-4.188715683994815e-05,2.230088648502715e-05
-2.5625364287407137e-05,9.78943717200309e-05,1.8359238310949877e-05,-4.0373157389694825e-05,1.80573042598553e-05
-2.533448969188612e-05,7.72723215050064e-05,2.0635790860978886e-05,-4.0935610741144046e-05,2.3233658794197254e-05
-2.812508500937838e-05,7.460177585016936e-05,2.1227981051197276e-05,-4.086464468855411e-05,3.521252438076772e-05
-3.479545921436511e-05,8.412790339207277e-05,2.450866304570809e-05,-3.105829455307685e-05,4.618597813532688e-05
-3.765869405469857e-05,8.298478496726602e-05,2.2831362002762035e-05,-1.1064074897149112e-05,5.5117601732490584e-05
-4.002373316325247e-05,5.867269283044152e-05,1.1628474567260128e-05,4.24151039624121e-06,6.348756869556382e-05
-4.554278712021187e-05,1.1621664270933252e-05,-1.1283236744930036e-07,-2.5016515792231075e-06,6.43746679998003e-05
-4.580011227517389e-05,-3.326434671180323e-05,-5.465413778438233e-06,-2.2961994545767084e-05,6.133382703410462e-05
-4.380747122922912e-05,-4.28083585575223e-05,-4.8273841457557864e-06,-3.9054393710102886e-05,6.310595927061513e-05
-4.5374319597613066e-05,-3.060834205825813e-05,2.2585318504297902e-07,-3.759346145670861e-05,7.265584281412885e-05
-4.3857140553882346e-05,-3.177659891662188e-05,4.816806267626816e-06,-2.1531588572543114e-05,8.404316031374037e-05
-3.318490780657157e-05,-3.661704613477923e-05,5.011326265957905e-06,-1.1590931308091967e-06,8.728560351300985e-05
-1.7384023522026837e-05,-2.9020075089647435e-05,1.6621856957499404e-06,2.1222531358944252e-05,7.908315456006676e-05
-8.267684279417153e-06,-1.1076080227212515e-05,-4.7580756472598296e-06,4.217332389089279e-05,6.650043360423297e-05
-1.2445136235328391e-05,9.648025297792628e-06,-9.60277520789532e-06,5.175846308702603e-05,5.793114178231917e-05
-1.6577052520005964e-05,3.598690454964526e-05,-1.0072405530081596e-05,4.360838283901103e-05,5.5115910072345287e-05
-5.760325620940421e-06,6.008860873407684e-05,-3.283887963334564e-06,2.7937116101384163e-05,5.741131826653145e-05
1.05225562947453e-05,6.860656139906496e-05,1.0483766345714685e-05,1.4011046005180106e-05,6.0972506616963074e-05
1.5883317246334627e-05,6.137686432339251e-05,2.3976808734005317e-05,2.3059269551595207e-06,6.634920282522216e-05
9.530249371891841e-06,4.875527520198375e-05,3.334097709739581e-05,-1.0181898687733337e-05,7.473681034753099e-05
-2.476789177308092e-06,3.617916809162125e-05,4.07802035624627e-05,-2.25028761633439e-05,8.098952821455896e-05
-1.4828719940851443e-05,2.5415525669814087e-05,4.628651367966086e-05,-3.8361020415322855e-05,7.740023283986375e-05
-2.2433363483287394e-05,2.318694350833539e-05,4.659440674004145e-05,-5.938993126619607e-05,6.941711762920022e-05
-2.4319526346516795e-05,2.6665660698199645e-05,3.91892135667149e-05,-7.972302410053089e-05,6.494422996183857e-05
-2.5975217795348726e-05,3.0250579584389925e-05,2.9156575692468323e-05,-9.231690637534484e-05,6.519423914141953e-05
-3.42023340635933e-05,3.2872641895664856e-05,2.2987383999861777e-05,-9.817722457228228e-05,6.523927004309371e-05
-4.3280626414343715e-05,3.987151649198495e-05,1.7656793716014363e-05,-9.823380241869017e-05,6.23290179646574e-05
-5.016047362005338e-05,5.654688357026316e-05,1.0629334610712249e-05,-8.988441550172865e-05,5.781014988315292e-05
-6.056734491721727e-05,8.224343764595687e-05,1.9854514903272502e-06,-6.533054693136364e-05,5.150536890141666e-05
-7.251580245792866e-05,0.00010621585533954203,-4.74945773021318e-06,-2.06365166377509e-05,4.138516305829398e-05
-8.871724276104942e-05,0.00011626111518125981,-4.969369001628365e-06,3.174564699293114e-05,3.060480594285764e-05
-9.969923121389002e-05,0.00010600688256090507,-1.3119683899276424e-06,6.875845429021865e-05,2.5813456886680797e-05
-9.279250662075356e-05,8.8666653027758e-05,-7.477729582205939e-07,6.334892532322556e-05,3.278664735262282e-05
-7.680417911615223e-05,8.026707655517384e-05,-6.933490794835961e-07,3.1981588108465075e-05,5.03238698001951e-05
-5.892958142794669e-05,7.746629853500053e-05,2.9767029445793014e-06,8.715504009160213e-06,7.778578583383933e-05
-4.19885000155773e-05,5.8076468121726066e-05,8.753559995966498e-06,4.845132934860885e-06,9.824056905927137e-05
-3.247751737944782e-05,2.2753951270715334e-05,1.619714021217078e-05,1.0308527635061182e-05,9.015795512823388e-05
-2.6647978302207775e-05,-7.74123691371642e-06,1.9247798263677396e-05,1.3325068721314892e-05,6.804370059398934e-05
-1.877862450783141e-05,-2.9647062547155656e-05,1.7869348084786907e-05,1.2994775715924334e-05,4.8154546675505117e-05
-1.5605161024723202e-05,-4.028838156955317e-05,1.1841326340800151e-05,1.2008262274321169e-05,3.446728442213498e-05
-1.913905725814402e-05,-3.57466415152885e-05,-8.643875837321957e-09,1.0201360055361874e-05,2.7765121558331884e-05
-2.7405885703046806e-05,-7.5541965998127125e-06,-1.2202407560835127e-05,4.4036880808562273e-07,2.8701739211101085e-05
-2.995494651258923e-05,3.284535705461167e-05,-1.9468188838800415e-05,-8.08233380666934e-06,3.628556078183465e-05
-1.9903418433386832e-05,5.52391356904991e-05,-2.0923445845255628e-05,-1.4658960935776122e-05,4.643010106519796e-05
-5.3643648243451025e-06,5.145179238752462e-05,-1.9824861738015898e-05,-1.994763624679763e-05,5.383738607633859e-05
2.179038574467995e-06,3.135321821901016e-05,-1.622178388061002e-05,-2.150432010239456e-05,5.3257947001839057e-05
-2.1603032109851483e-06,4.3971294871880673e-07,-1.1413364518375602e-05,-2.3387008695863187e-05,4.744779653265141e-05
-1.3724369637202471e-05,-3.1661820685258135e-05,-9.827651410887484e-06,-3.165670204907656e-05,4.8670059186406434e-05
-2.4789167582639493e-05,-4.465446909307502e-05,-1.4585075405193493e-05,-4.439558688318357e-05,6.478103750851005e-05
-2.8222615583217703e-05,-3.723758345586248e-05,-2.0771705749211833e-05,-5.618327850243077e-05,8.698961755726486e-05
-2.2483600332634524e-05,-2.8639877200475894e-05,-2.4019482225412503e-05,-7.19557428965345e-05,0.00010280032438458875
-8.178785719792359e-06,-3.368365651112981e-05,-2.305317138961982e-05,-8.659184095449746e-05,0.00010859625763259828
9.571341252012644e-06,-4.9993534048553556e-05,-1.4774406736250967e-05,-8.151754445862025e-05,0.00010675154771888629
2.1964877305435948e-05,-5.729926488129422e-05,-1.5567947002637084e-06,-5.003062688047066e-05,9.793349454412237e-05
2.554720049374737e-05,-3.3551732485648245e-05,1.1017973520210944e-05,-4.241702754370635e-06,8.763148071011528e-05
2.229710116807837e-05,5.0509329412307125e-06,2.0125922674196772e-05,4.131050081923604e-05,8.383509702980518e-05
1.201882514578756e-05,2.7253563530393876e-05,1.909809361677617e-05,7.467292743967846e-05,8.316127787111327e-05
3.105569021499832e-06,2.6822295694728382e-05,1.3241071428637952e-05,0.00010216402006335557,8.052474004216492e-05
-2.1819354856233986e-07,1.7560025298735127e-05,1.870720188890118e-05,0.00012352850171737373,7.337893475778401e-05
-2.7050068638345692e-06,1.0656358426786028e-05,3.179692066623829e-05,0.00012071843957528472,6.430919893318787e-05
-1.005268313747365e-05,2.0534976101771463e-06,3.71572605217807e-05,0.00010149765148526058,6.357534584822133e-05
-3.0201937988749705e-05,-2.9064556201774394e-06,3.2461244700243697e-05,8.42638619360514e-05,6.937974831089377e-05
-5.613049870589748e-05,1.601299459252914e-06,2.3250810045283288e-05,6.534239219035953e-05,7.098703645169735e-05
-8.075980440480635e-05,9.936305104929488e-06,1.933891689986922e-05,4.813024861505255e-05,7.065322279231623e-05
-9.575187141308561e-05,1.878912553365808e-05,1.915336906677112e-05,4.197742964606732e-05,6.986440712353215e-05
-0.00010083393135573715,2.351250259380322e-05,1.4494031347567216e-05,3.907267819158733e-05,6.23332234681584e-05
-9.795195364858955e-05,2.966484498756472e-05,9.506490641797427e-06,3.059948357986286e-05,5.413530379883014e-05
-9.594141010893509e-05,4.945372711517848e-05,5.072190560895251e-06,1.7728218153933994e-05,5.1512368372641504e-05
-0.00010461198689881712,6.697642675135285e-05,4.995252311346121e-06,3.804083007707959e-06,5.459715976030566e-05
-0.00011453391198301688,6.855811807326972e-05,7.441441539413063e-06,-6.085610039008316e-06,5.9436159062897786e-05
-0.00011686167272273451,5.7423672842560336e-05,8.401880222663749e-06,-1.7540542103233747e-05,6.05366840318311e-05
-0.0001115684790420346,4.390930916997604e-05,5.393868832470616e-06,-3.260425728512928e-05,5.806924673379399e-05
-9.932591638062149e-05,4.061298386659473e-05,-1.985771405088599e-06,-4.572952457237989e-05,5.2325878641568124e-05
-7.05712809576653e-05,4.2129559005843475e-05,-1.2157859600847587e-05,-5.183536632102914e-05,4.558472937787883e-05
-3.1140407372731715e-05,2.6331677872803994e-05,-2.5489596737315878e-05,-5.4554071539314464e-05,4.1003750084200874e-05
-5.503318789124023e-06,-6.988203949731542e-06,-4.1653878724901006e-05,-6.100553582655266e-05,4.153563713771291e-05
-4.522784365690313e-06,-2.5058281607925892e-05,-5.6818826124072075e-05,-7.18836672604084e-05,4.616383375832811e-05
-1.0109519280376844e-05,-4.8258939386869315e-06,-6.296248466242105e-05,-8.941576379584149e-05,5.4333562729880214e-05
-1.558738949825056e-05,3.295214264653623e-05,-5.431224053609185e-05,-0.0001156445432570763,6.589335680473596e-05
-2.307404974999372e-05,5.293143112794496e-05,-3.672264574561268e-05,-0.0001433542784070596,7.456436287611723e-05
-2.7106943889521062e-05,5.3230254707159474e-05,-2.1718054995290004e-05,-0.00015240184438880533,7.310018554562703e-05
-2.740374839049764e-05,5.145346585777588e-05,-8.769867235969286e-06,-0.00012995919678360224,6.130558904260397e-05
-2.5818815629463643e-05,6.225347897270694e-05,3.3041692404367495e-06,-8.831554441712797e-05,4.810889367945492e-05
-2.4239685444626957e-05,8.181865268852562e-05,1.1500145774334669e-05,-5.007960135117173e-05,4.254373561707325e-05
-1.973945472855121e-05,9.290334128309041e-05,2.007690090977121e-05,-1.0656261110852938e-05,4.427790918271057e-05
-1.403126498189522e-05,9.134164429269731e-05,2.6650202926248312e-05,4.022644498036243e-05,4.552939935820177e-05
-2.0165480236755684e-05,7.738756539765745e-05,2.3102533305063844e-05,7.744926551822573e-05,3.851439032587223e-05
-2.5323073714389466e-05,4.061268555233255e-05,2.290861630172003e-05,8.733442518860102e-05,3.303206540294923e-05
-8.650616109662224e-06,1.3011296687182039e-05,2.648454756126739e-05,6.933278928045183e-05,3.6169956729281694e-05
2.3439215510734357e-05,2.5410867237951607e-05,3.242318780394271e-05,2.39374021475669e-05,3.9814956835471094e-05
5.244324347586371e-05,4.014515070593916e-05,4.041643478558399e-05,-1.4855619156151079e-05,4.38018178101629e-05
6.431404472095892e-05,3.325705984025262e-05,4.460123454919085e-05,-2.4488206690875813e-05,4.7863413783488795e-05
5.977357068331912e-05,2.2275953597272746e-05,4.329740841058083e-05,-4.683934548666002e-06,5.016291106585413e-05
4.477055699680932e-05,2.0673756807809696e-05,3.5555487556848675e-05,2.2938740585232154e-05,5.2322222472867e-05
3.39854414050933e-05,2.544934795878362e-05,2.9705628548981622e-05,3.862994708470069e-05,5.424562550615519e-05
2.540249624871649e-05,2.791160841297824e-05,2.790128201013431e-05,3.9038823160808533e-05,5.5943371989997104e-05
6.99281463312218e-06,2.7142648832523264e-05,2.9364990041358396e-05,2.965689418488182e-05,5.9368689107941464e-05
-1.9938575860578567e-05,2.908619717345573e-05,2.8510497941169888e-05,1.322172101936303e-05,6.333655619528145e-05
-4.0558326872996986e-05,3.309155363240279e-05,2.917567871918436e-05,-3.820402071141871e-06,6.756746006431058e-05
-4.814308704226278e-05,3.096133150393143e-05,3.3854274079203606e-05,-1.830739711294882e-05,7.094814645824954e-05
-4.5119842980057e-05,2.319770101166796e-05,3.515929347486235e-05,-4.3220370571361855e-05,7.574971823487431e-05
-2.968035187222995e-05,2.2028605599189177e-05,2.7303360184305348e-05,-7.836784061510116e-05,8.589589560870081e-05
-4.479055860429071e-06,3.5355504223844036e-05,1.4597535482607782e-05,-9.651386790210381e-05,9.66364677879028e-05
1.701873588899616e-05,5.737222090829164e-05,4.724717655335553e-06,-7.313621608773246e-05,0.00010047661635326222
1.932488157763146e-05,7.618636300321668e-05,1.480641117268533e-06,-2.2329693820211105e-05,9.449968638364226e-05
2.157658627766068e-06,8.121820428641513e-05,5.6572293942736e-06,2.873243465728592e-05,8.152170630637556e-05
-1.8565064237918705e-05,7.322557939914986e-05,1.118532418331597e-05,6.791136547690257e-05,6.847106851637363e-05
-3.1063766073202714e-05,6.231606676010415e-05,1.5654984963475727e-05,9.807423339225352e-05,5.7611785450717434e-05
-4.131592868361622e-05,5.252554183243774e-05,1.915734537760727e-05,0.00011878200893988833,4.679845369537361e-05
-5.057032831246033e-05,4.3945830839220434e-05,2.445364953018725e-05,0.00012338499072939157,3.468831710051745e-05
-5.5292552133323625e-05,3.33632378897164e-05,2.993961243191734e-05,0.00010519859642954543,2.9156068194424734e-05
-5.48503412574064e-05,2.4708844648557715e-05,3.295622445875779e-05,7.409146928694099e-05,3.985131479566917e-05
-4.886362512479536e-05,3.3514781534904614e-05,3.460621883277781e-05,4.604231071425602e-05,5.543781298911199e-05
-2.8476461011450738e-05,5.552352740778588e-05,3.4289099858142436e-05,2.92885561066214e-05,6.0532936913659796e-05
-3.008623025380075e-06,7.349882798735052e-05,3.366843520780094e-05,1.9811770471278578e-05,5.4607196943834424e-05
-1.7566427459314582e-06,9.41836042329669e-05,2.8187501811771654e-05,9.840860002441332e-06,4.825184805667959e-05
-1.4670546079287305e-05,0.00011403954704292119,2.000374297495e-05,-4.14298028772464e-06,4.844379873247817e-05
-1.7237667634617537e-05,0.00010087907139677554,1.647335011512041e-05,-1.6912395949475467e-05,5.532800787477754e-05
-6.514013421110576e-06,5.540014535654336e-05,1.1210610864509363e-05,-2.6741048714029603e-05,6.421402213163674e-05
1.2735805285046808e-05,-5.449016498459969e-06,1.4963010244173347e-06,-3.967478915001266e-05,6.827892502769828e-05
2.6516330763115548e-05,-7.269703928614035e-05,-6.3171382862492464e-06,-6.284812116064131e-05,6.815332744736224e-05
2.1314966943464242e-05,-0.00011243229528190568,-9.141524060396478e-06,-9.809019684325904e-05,6.417780241463333e-05
-8.79067101777764e-06,-9.850481001194566e-05,-1.3049187145952601e-05,-0.00013385110651142895,5.308293111738749e-05
-4.602199260261841e-05,-4.514263855526224e-05,-2.2336362235364504e-05,-0.00015721567615401,3.8828631659271196e-05
-7.359930168604478e-05,1.181855895993067e-05,-3.118465610896237e-05,-0.00016025239892769605,2.8654552806983702e-05
-8.74475299497135e-05,4.728398198494688e-05,-3.087174263782799e-05,-0.00014808920968789607,2.6376386813353747e-05
-8.592294761911035e-05,4.832338527194224e-05,-2.52025383815635e-05,-0.00012630711717065424,2.8809246941818856e-05
-7.087031553965062e-05,8.370294381165877e-06,-2.2165793780004606e-05,-9.283833060180768e-05,3.083141928073019e-05
-5.117584078107029e-05,-5.325758320395835e-05,-2.0271356333978474e-05,-4.4568179873749614e-05,3.514142008498311e-05
-3.7324411096051335e-05,-8.800709474598989e-05,-1.3377672985370737e-05,1.2064418115187436e-05,4.5229004172142595e-05
-3.302900222479366e-05,-6.244808901101351e-05,-1.0188917940467945e-06,6.217456393642351e-05,5.6100234360201284e-05
-3.997169915237464e-05,-5.496563062479254e-06,1.5722878742963076e-05,9.353228961117566e-05,6.122867489466444e-05
-5.600881195277907e-05,2.9698474463657476e-05,3.300723619759083e-05,9.61278346949257e-05,6.260748341446742e-05
-7.088966231094673e-05,2.98467930406332e-05,3.912622923962772e-05,6.991538248257712e-05,6.273547478485852e-05
-6.674192991340533e-05,1.792244984244462e-05,3.088591984123923e-05,2.924013460869901e-05,6.295508501352742e-05
-4.3017087591579184e-05,1.635680382605642e-05,1.6457348465337418e-05,-1.9959305063821375e-05,6.1173559515737e-05
-1.977647843887098e-05,3.22951927955728e-05,-2.4511973606422544e-07,-9.583287464920431e-05,5.6051834690151736e-05
-1.5632935173925944e-05,5.51687044207938e-05,-2.0152594515820965e-05,-0.00020379209308885038,4.7845202061580494e-05
-2.837554711732082e-05,6.52478338452056e-05,-3.7902016629232094e-05,-0.00028014389681629837,4.1291805246146396e-05
-4.981978781870566e-05,6.01424508204218e-05,-4.155671922490001e-05,-0.0002695558068808168,4.414958675624803e-05
-7.320135773625225e-05,6.018579369992949e-05,-3.4082764614140615e-05,-0.0001962484238902107,5.55884835193865e-05
-8.336205064551905e-05,7.057657785480842e-05,-2.8543670850922354e-05,-9.987469093175605e-05,7.441812340402976e-05
-7.556430500699207e-05,7.885190279921517e-05,-2.3083830456016585e-05,7.2028178692562506e-06,9.50690737226978e-05
-6.407869659597054e-05,7.463800284313038e-05,-2.0683144612121396e-05,0.00011986264871666208,0.00010294974345015362
-4.880455162492581e-05,6.426359323086217e-05,-2.2235462893149815e-05,0.00021011674834880978,9.509192750556394e-05
-3.057656795135699e-05,6.76880226819776e-05,-2.3078680897015147e-05,0.00024604168720543385,8.186837658286095e-05
-1.4322711649583653e-05,7.55090732127428e-05,-2.5964189262595028e-05,0.00021665550593752414,6.746391591150314e-05
-7.35117964723031e-07,7.260176062118262e-05,-2.8907725209137425e-05,0.00015983266348484904,5.683330164174549e-05
1.4133534023130778e-05,6.329691677819937e-05,-2.454223795211874e-05,0.00012379451072774827,5.5714968766551465e-05
3.21038460242562e-05,5.6588021834613755e-05,-1.1472830010461621e-05,0.00010890646080952138,6.359517283271998e-05
4.777197682415135e-05,5.287561361910775e-05,-1.863642864918802e-06,8.727359090698883e-05,7.12683322490193e-05
6.198316987138242e-05,4.440094926394522e-05,-2.2581073153560283e-06,4.9405138270230964e-05,7.579811790492386e-05
6.989238318055868e-05,2.7761341698351316e-05,-3.0772464469919214e-06,1.593317574588582e-05,8.084515138762072e-05
6.936957652214915e-05,9.788519491849001e-06,6.5991443989332765e-06,7.149291718633322e-07,8.457084913970903e-05
6.054502591723576e-05,1.1652512057480635e-06,2.2000347598805092e-05,-6.184112635310157e-07,8.143014565575868e-05
4.375619027996436e-05,1.0973003554681782e-06,3.050676423299592e-05,2.0497387254181376e-07,7.592754263896495e-05
2.331635550945066e-05,1.9966810214100406e-06,2.8995989850955084e-05,-1.596094193700992e-06,7.421671034535393e-05
1.0200607903243508e-05,2.9899433684477117e-06,2.3912241886137053e-05,-3.7622585296048783e-06,7.143369293771684e-05
7.685336640861351e-06,3.975922481913585e-06,2.2167594579514116e-05,-7.247898338391678e-06,6.407199543900788e-05
3.1709364520793315e-06,2.0465620309551014e-06,2.4255239623016678e-05,-2.0823723389185034e-05,5.5632721341680735e-05
-1.1639200238278136e-05,5.264982974040322e-06,2.981354009534698e-05,-4.7438148612855e-05,5.201608655625023e-05
-2.658267112565227e-05,1.1650223314063624e-05,3.706126153701916e-05,-7.27186125004664e-05,5.271328700473532e-05
-3.340820694575086e-05,1.1730043297575321e-05,4.091126174898818e-05,-8.066312148002908e-05,5.401587259257212e-05
-4.0373168303631246e-05,6.257634595385753e-06,4.2772684537339956e-05,-6.936396675882861e-05,5.339595372788608e-05
-5.137312473380007e-05,2.34023787015758e-06,4.6576347813243046e-05,-4.795926724909805e-05,5.2980147302150726e-05
-5.853244147147052e-05,2.97411679639481e-06,4.923115920973942e-05,-2.620077611936722e-05,4.809602614841424e-05
-6.78255528328009e-05,1.0247319551126566e-05,5.0594768254086375e-05,-4.123314283788204e-06,4.267003896529786e-05
-7.99617700977251e-05,1.7647469576331787e-05,4.634880679077469e-05,7.463715064659482e-06,4.84016964037437e-05
-9.1910085757263e-05,1.822914600779768e-05,4.065642860950902e-05,3.8457806113001425e-06,5.3440344345290214e-05
-0.00010330456279916689,1.502159284427762e-05,3.6502995499176905e-05,-1.4687459042761475e-05,5.279902688926086e-05
-0.00010213005589321256,1.3479891094902996e-05,2.5941741114365868e-05,-6.516737630590796e-05,5.4986292525427416e-05
-9.082962787942961e-05,1.5719168004579842e-05,9.939567462424748e-06,-0.00014147930778563023,5.843927647219971e-05
-7.240851118694991e-05,1.5325558706535958e-05,-5.834927833348047e-06,-0.00020425721595529467,6.385236338246614e-05
-5.4750023991800845e-05,1.685996903688647e-05,-1.608879210834857e-05,-0.00022262938728090376,6.70704830554314e-05
-4.484964665607549e-05,2.4143284463207237e-05,-2.382091770414263e-05,-0.0002027596055995673,6.862964073661715e-05
-3.9705551898805425e-05,3.739039311767556e-05,-2.8756050596712157e-05,-0.00015454876120202243,6.940881576156244e-05
-3.2100837415782735e-05,4.889439151156694e-05,-3.0759172659600154e-05,-8.116425306070596e-05,6.654135358985513e-05
-2.1862299036001787e-05,5.939930269960314e-05,-3.074060077778995e-05,5.15941383127938e-06,6.201013457030058e-05
-1.5103762052603997e-05,7.148361328290775e-05,-2.777052031888161e-05,8.583317685406655e-05,5.943669384578243e-05
-7.7694412539131e-06,7.842404738767073e-05,-2.0444133042474277e-05,0.00014659542648587376,5.787570626125671e-05
6.618539373448584e-06,7.40165778552182e-05,-6.031033535691677e-06,0.00017734363791532815,5.5606578825972974e-05
2.7020121706300415e-05,5.833099567098543e-05,1.2116684047214221e-05,0.00017529020260553807,5.424806658993475e-05
4.067032932653092e-05,3.350156111991964e-05,2.5591183657525107e-05,0.00015096117567736655,5.3480132919503376e-05
3.6526122130453587e-05,-1.0739734079834307e-06,3.1053121347213164e-05,0.00011847759742522612,4.9649075663182884e-05
1.7770811609807424e-05,-3.993796417489648e-05,2.8688729798886925e-05,8.663715561851859e-05,4.361582250567153e-05
-1.0384651432104874e-05,-6.510720413643867e-05,1.9829794837278314e-05,5.905111174797639e-05,4.326150519773364e-05
-4.138664735364728e-05,-5.293190770316869e-05,1.158826216851594e-05,3.678450229926966e-05,4.8662888730177656e-05
-5.5770182370906696e-05,-1.5234239072015043e-05,6.306052455329336e-06,1.662212707742583e-05,5.500806219060905e-05
-4.9201404181076214e-05,7.783208275213838e-06,4.83009443996707e-07,-3.855447630485287e-06,5.803766180179082e-05
-3.849105632980354e-05,-6.206301463862474e-07,-5.298752967064502e-06,-2.2905489458935335e-05,6.014171594870277e-05
-2.776340625132434e-05,-2.0755855075549334e-05,-9.025474355439655e-06,-3.632677180576138e-05,6.404858140740544e-05
-1.1797689694503788e-05,-1.9059305486734957e-05,-1.3875323929823935e-05,-4.307175549911335e-05,6.677857891190797e-05
-6.719602424709592e-06,3.0080005672061816e-05,-1.7409231077181175e-05,-4.4437707401812077e-05,6.68212232994847e-05
-2.3454425900126807e-05,0.00010721568833105266,-1.3190508980187587e-05,-4.2198909795843065e-05,6.851617217762396e-05
-4.633948628907092e-05,0.0001572160399518907,-5.132818841957487e-06,-3.8440164644271135e-05,6.658168422291055e-05
-5.3007370297564194e-05,0.0001555939088575542,1.0489409305591835e-06,-2.7286008844384924e-05,6.179316551424563e-05
-3.683889008243568e-05,0.00012396568490657955,6.699244295305107e-06,-1.1478427040856332e-05,6.118163582868874e-05
-8.163992788468022e-06,8.830348087940365e-05,7.230854407680454e-06,-4.00765839003725e-06,6.180675700306892e-05
1.6807667634566315e-05,6.578931788681075e-05,4.782919404533459e-06,-7.236093551910017e-06,6.36016993666999e-05
2.3669244910706766e-05,5.798774509457871e-05,4.664632797357626e-06,-1.5306526620406657e-05,6.464360922109336e-05
1.4840797120996285e-05,5.166414484847337e-05,2.5282417936978163e-06,-2.60642082139384e-05,6.560755718965083e-05
2.130821485479828e-06,4.2909570765914395e-05,1.6063110024333582e-06,-3.995342194684781e-05,6.583602225873619e-05
1.4241022938676906e-07,3.79357734345831e-05,2.159104269594536e-06,-5.089754267828539e-05,6.437809497583658e-05
1.0289466445101425e-05,3.07786394841969e-05,-1.1768373724407866e-06,-5.7373901654500514e-05,6.401774589903653e-05
1.3233915524324402e-05,2.2595202608499676e-05,-6.285943982220488e-06,-5.841448364662938e-05,6.373667565640062e-05
-1.0127313316843356e-06,1.7569032934261486e-05,-1.051416893460555e-05,-5.384501491789706e-05,6.315650534816086e-05
-1.8499473299016245e-05,2.2795120457885787e-05,-1.1371968867024407e-05,-4.348932270659134e-05,6.334231875371188e-05
-2.713016510824673e-05,3.383927105460316e-05,-8.843311661621556e-06,-2.9089118470437825e-05,6.372068310156465e-05
-3.407376061659306e-05,3.907731661456637e-05,-5.171755674382439e-06,-1.6631800463073887e-05,6.400717393262312e-05
-4.303292735130526e-05,3.575949449441396e-05,1.2821527661799337e-06,-9.434569619770627e-06,6.527905497932807e-05
-5.033547859056853e-05,2.5413375624339096e-05,8.941859960032161e-06,-5.726536983274855e-06,6.317580846371129e-05
-5.112409417051822e-05,1.0775620467029512e-05,1.0620504326652735e-05,-2.0889976326543547e-07,5.792251249658875e-05
-4.4820859329774976e-05,-8.236001121986192e-06,4.083502972207498e-06,2.9431730581563897e-06,5.4982054280117154e-05
-3.979083339800127e-05,-2.658871562744025e-05,-3.012906063304399e-06,-4.799680482392432e-06,5.450270327855833e-05
-4.4633525249082595e-05,-3.418606866034679e-05,-5.100928319734521e-06,-1.8262506273458712e-05,5.3594339988194406e-05
-6.044626934453845e-05,-2.6570331101538613e-05,-7.73321335145738e-06,-2.9406299290712923e-05,5.288276224746369e-05
-7.983363320818171e-05,-1.2777738447766751e-05,-1.2399191291478928e-05,-3.909567749360576e-05,5.407195567386225e-05
-8.937980601331219e-05,3.656549552033539e-06,-1.560280543344561e-05,-5.0821745389839634e-05,5.7199376897187904e-05
-7.655055378563702e-05,2.1603464119834825e-05,-1.9644114217953756e-05,-6.882460002088919e-05,5.8492056268732995e-05
-5.377549314289354e-05,4.8832673201104626e-05,-2.1820023903273977e-05,-9.252292511519045e-05,5.740537017118186e-05
-4.455400994629599e-05,8.452279871562496e-05,-1.8371831174590625e-05,-0.00011112844367744401,5.8266341511625797e-05
-4.8605499614495784e-05,0.00010573173494776711,-1.0945098438241985e-05,-0.00010655536607373506,6.157468305900693e-05
-5.803947351523675e-05,0.00010020910121966153,-5.61796014153515e-06,-8.35080209071748e-05,6.507800571853295e-05
-7.04061021679081e-05,8.775223977863789e-05,-1.0868316167034209e-06,-6.326088623609394e-05,6.809255864936858e-05
-7.664889562875032e-05,7.169126183725893e-05,5.751541721110698e-06,-4.4369760871632025e-05,6.759502139175311e-05
-7.30777028365992e-05,5.667128425557166e-05,1.142702967626974e-05,-9.016769581648987e-06,6.549780664499849e-05
-6.294593185884878e-05,4.8939626140054315e-05,1.4687729162687901e-05,3.651408042060211e-05,6.61153462715447e-05
-4.557922875392251e-05,4.100117803318426e-05,2.1017352992203087e-05,7.310854562092572e-05,6.579655018867925e-05
-1.7138023395091295e-05,3.282817124272697e-05,3.328797538415529e-05,8.880488167051226e-05,6.162908539408818e-05
2.0843470338149928e-05,2.7239095288678072e-05,4.1551844333298504e-05,8.461328252451494e-05,5.5710177548462525e-05
5.2662056987173855e-05,2.261408189951908e-05,4.034829544252716e-05,6.958851736271754e-05,5.7066452427534387e-05
6.591006967937574e-05,1.5411431377287954e-05,3.2584484870312735e-05,4.834723949898034e-05,6.319913518382236e-05
6.203164957696572e-05,6.614497578993905e-06,1.9630986571428366e-05,2.1564244889304973e-05,6.781605043215677e-05
5.0668160838540643e-05,-3.28908504343417e-06,4.0807167351886164e-06,-8.490011168760248e-06,6.582070636795834e-05
3.785757871810347e-05,-1.5635028830729425e-05,-5.437455911305733e-06,-2.7917223633266985e-05,5.5231983424164355e-05
1.9448043531156145e-05,-2.994741953443736e-05,-3.4466409033484524e-06,-2.9150645787012763e-05,4.199454269837588e-05
-3.3880789942486444e-06,-4.1859340853989124e-05,4.7581843318766914e-06,-2.337428850296419e-05,3.616398316808045e-05
-2.5562911105225794e-05,-5.0034377636620775e-05,9.835743185249157e-06,-3.106763688265346e-05,3.9338385249720886e-05
-4.390166941448115e-05,-5.0490118155721575e-05,7.816229299351107e-06,-4.9125599616672844e-05,4.8558140406385064e-05
-4.547656499198638e-05,-4.1902509110514075e-05,5.082576080894796e-06,-4.930932118440978e-05,6.129417306510732e-05
-2.8381966330925934e-05,-3.288617517682724e-05,9.685343684395775e-06,-1.751558193063829e-05,7.355389243457466e-05
-1.722666456771549e-05,-2.6763893401948735e-05,1.923054878716357e-05,2.77417366305599e-05,8.15520397736691e-05
-2.8365844627842307e-05,-1.84223990800092e-05,2.7501870135893114e-05,6.325596041278914e-05,8.221931057050824e-05
-5.826706546940841e-05,-8.197990609914996e-06,3.4061435144394636e-05,7.472180732293054e-05,7.45987708796747e-05
-9.24462583498098e-05,5.222464096732438e-06,3.4855882404372096e-05,6.320478860288858e-05,6.0876885981997475e-05
-0.00011868910951307043,2.7602825866779312e-05,3.295702481409535e-05,4.8315578169422224e-05,4.807976074516773e-05
-0.0001401816407451406,6.363476859405637e-05,3.6271467251935974e-05,4.149558299104683e-05,3.952288898290135e-05
-0.00015559907478746027,0.00010942012158920988,4.0316241211257875e-05,4.05467399104964e-05,3.992418714915402e-05
-0.00014437416393775493,0.00013652794586960226,3.976410880568437e-05,3.4592932934174314e-05,4.8334215534850955e-05
-0.00010950492287520319,0.00013285697787068784,3.6529538192553446e-05,2.278973079228308e-05,5.8189049013890326e-05
-7.402827759506181e-05,0.0001179793689516373,3.189353446941823e-05,1.1699058632075321e-05,6.613631558138877e-05
-4.927268673782237e-05,0.00010822522745002061,2.515888809284661e-05,-1.2730328080579056e-06,7.147747237468138e-05
-3.495385681162588e-05,0.0001220609265146777,1.970371522475034e-05,-1.0591480531729758e-05,7.447837560903281e-05
-2.4601420591352507e-05,0.0001395801518810913,1.0039784683613107e-05,-1.4716819350724109e-05,7.356101559707895e-05
-7.993505278136581e-06,0.00013156556815374643,7.429442234752059e-07,-2.0200088329147547e-05,6.388957262970507e-05
1.5174290638242383e-05,0.0001018914845190011,-1.2443882724255673e-06,-2.3710155801381916e-05,4.9723454139893875e-05
2.982804289786145e-05,7.586701394757256e-05,3.2466323318658397e-07,-2.0249417502782308e-05,3.883663157466799e-05
3.167465183651075e-05,4.4214124500285834e-05,7.167648163886042e-07,-1.5129937310121022e-05,3.6336376069812104e-05
2.7137233701068908e-05,-2.269574542879127e-05,-2.3348077320406446e-06,-1.5002802683738992e-05,3.8115031202323735e-05
1.9362303646630608e-05,-9.504541958449408e-05,-7.66303674026858e-06,-1.852053901529871e-05,4.107276981812902e-05
6.546560598508222e-06,-0.00011211416131118312,-1.1342354810039978e-05,-2.3370934286504053e-05,4.4733147660735995e-05
-1.6535615543489257e-07,-8.165261533576995e-05,-8.662309483042918e-06,-2.770217543002218e-05,4.9343503633281216e-05
2.318857468708302e-06,-6.469350046245381e-05,-4.880697815679014e-06,-2.9808552426402457e-05,5.415297346189618e-05
3.1291467621485936e-06,-7.086474943207577e-05,-5.129104010848096e-06,-3.181847569067031e-05,5.704623617930338e-05
-3.401985850359779e-06,-5.720170884160325e-05,-9.035326911543962e-06,-3.637102781794965e-05,5.678758316207677e-05
-1.0408905836811755e-05,-1.1892750990227796e-05,-1.1718294445017818e-05,-3.8492391468025744e-05,5.493925345945172e-05
-1.3222190318629146e-05,2.313481309101917e-05,-1.2066083399986383e-05,-3.357031528139487e-05,5.459973181132227e-05
-1.3977572052681353e-05,2.783131094474811e-05,-9.290554771723691e-06,-2.8002214094158262e-05,5.3289109928300604e-05
-1.7656931959209032e-05,2.0698847947642207e-05,-5.873105237697018e-06,-3.287252548034303e-05,4.943691601511091e-05
-2.5425026251468807e-05,2.1398825992946513e-05,-6.099383881519316e-06,-5.2222552767489105e-05,4.169049861957319e-05
-3.0320032237796113e-05,3.4971617424162105e-05,-9.922347089741379e-06,-8.663396147312596e-05,3.3776068448787555e-05
-2.860369932022877e-05,5.387801502365619e-05,-1.780622551450506e-05,-0.00012563752534333616,2.9739940146100707e-05
-2.4530059818062e-05,5.0321534217800945e-05,-2.8023356207995676e-05,-0.00016008074453566223,3.38499121426139e-05
-2.792206396406982e-05,1.6076266547315754e-05,-3.147140159853734e-05,-0.00020321358169894665,4.205390723655e-05
-3.0772531317779794e-05,-1.8253283997182734e-05,-2.6696168788475916e-05,-0.00024897363618947566,4.83032017655205e-05
-2.0412582671269774e-05,-1.92037859960692e-05,-2.4370716346311383e-05,-0.00023342938220594078,5.5070981034077704e-05
-1.0867781384149566e-05,-1.7011843738146126e-06,-1.988987423828803e-05,-0.00014410655421670526,5.9825866628671065e-05
-1.4430755072680768e-05,-1.7059213632819592e-06,-6.988369023019914e-06,-2.8129992642789148e-05,6.180549826240167e-05
-2.8225571440998465e-05,-1.7761438357410952e-05,5.616312137135537e-06,8.721297490410507e-05,6.344971916405484e-05
-4.681782593252137e-05,-1.4603794625145383e-05,1.6114623576868325e-05,0.00018248781270813197,6.189940177137032e-05
-6.0264908825047314e-05,1.7852582459454425e-05,2.83330100501189e-05,0.00023885829432401806,5.626263373414986e-05
-6.945095810806379e-05,5.353125015972182e-05,4.288723721401766e-05,0.00023651547962799668,5.070909537607804e-05
-7.028162508504465e-05,7.68057070672512e-05,5.40446926606819e-05,0.00019082440121565014,4.963192259310745e-05
-6.0739250329788774e-05,8.913905185181648e-05,5.7862838730216026e-05,0.00013640518591273576,4.7691064537502825e-05
-4.410143810673617e-05,9.408283949596807e-05,5.6600743846502155e-05,0.00010325335460947827,4.611734766513109e-05
-2.720587326621171e-05,8.975384116638452e-05,5.023440098739229e-05,8.456363866571337e-05,4.7522593376925215e-05
-1.0189378372160718e-05,8.034326310735196e-05,3.502612162264995e-05,6.19281709077768e-05,5.44877620995976e-05
1.3619021956401411e-05,6.927004142198712e-05,1.562021680001635e-05,3.6834295315202326e-05,6.577874592039734e-05
3.748128074221313e-05,5.872924157301895e-05,4.263850314600859e-06,1.7616022887523286e-05,7.383418414974585e-05
4.4013104343321174e-05,4.4869171688333154e-05,3.4180325201305095e-06,-7.015502774265769e-07,7.599352829856798e-05
2.981290890602395e-05,1.527963650005404e-05,5.837982371303951e-06,-2.211908758908976e-05,7.619445386808366e-05
7.267204637173563e-06,-3.1185227271635085e-05,6.979680165386526e-06,-3.2857555197551847e-05,7.525887485826388e-05
-1.3782975656795315e-05,-6.474224210251123e-05,7.72639577917289e-06,-3.135189035674557e-05,7.292022200999781e-05
-2.7814414352178574e-05,-5.58112224098295e-05,7.5417119660414755e-06,-2.5770379579626024e-05,7.096836634445935e-05
-3.8098267395980656e-05,-1.1773413461924065e-05,6.361055056913756e-06,-2.2420917957788333e-05,6.870912329759449e-05
-4.458966213860549e-05,3.961682887165807e-05,3.7673505630664295e-06,-1.8400553017272614e-05,6.785486039007083e-05
-4.656453165807761e-05,6.6345528466627e-05,3.44058889822918e-06,-1.4288339116319548e-05,6.588725227629766e-05
-4.5450138713931665e-05,5.883444828214124e-05,6.831467544543557e-06,-1.2096157661289908e-05,6.2264793086797e-05
-3.7921392504358664e-05,4.71083476440981e-05,1.1190345503564458e-05,-1.4538774848915637e-05,6.0166188632138073e-05
-2.0946907170582563e-05,5.8737306972034276e-05,1.0213419045612682e-05,-1.805980173230637e-05,5.609536310657859e-05
-5.115665317134699e-06,7.93223298387602e-05,8.398729733016808e-06,-1.6318756024702452e-05,4.6675544581376016e-05
8.346768481715117e-06,9.222318476531655e-05,1.502880513726268e-05,-1.0434104297019076e-05,4.05262217100244e-05
2.0303870769566856e-05,9.451780351810157e-05,1.642212191654835e-05,-1.0591516002023127e-05,3.89706801797729e-05
1.9337676349096e-05,8.523562428308651e-05,1.017805243463954e-05,-2.0491952454904094e-05,4.188891762169078e-05
6.420557838282548e-06,6.690779264317825e-05,6.908554496476427e-06,-3.330374602228403e-05,5.0141115934820846e-05
-5.147161573404446e-06,5.092826540931128e-05,7.241458661155775e-06,-4.610922769643366e-05,6.825609307270497e-05
-1.1596851436479483e-05,5.8156037994194776e-05,6.054992354620481e-06,-6.503959593828768e-05,9.073240653378889e-05
-1.2898269233119208e-05,7.347392238443717e-05,6.516036705761508e-07,-8.207870268961415e-05,9.937564755091444e-05
-3.4181371120212134e-06,7.432250276906416e-05,-4.530803039415332e-07,-8.557632099837065e-05,8.957704267231748e-05
1.3334310096979607e-05,5.431671525002457e-05,3.7700360735470895e-06,-7.422939233947545e-05,7.418563473038375e-05
2.724750629568007e-05,3.0240531486924738e-05,5.610631433228264e-06,-5.003103433409706e-05,6.621227657888085e-05
2.4663371732458472e-05,1.3973723980598152e-05,3.7277837350302434e-07,-1.7200465663336217e-05,6.567517266375944e-05
3.895988356816815e-06,4.239971531205811e-06,-6.679478701698827e-06,1.4446026398218237e-05,6.723286060150713e-05
-2.5249033569707535e-05,1.215406518895179e-05,-7.824452950444538e-06,3.0396449801628478e-05,6.582064816029742e-05
-4.933536911266856e-05,4.3312822526786476e-05,-4.895738925370097e-07,2.8512666176538914e-05,6.236354965949431e-05
-6.454798858612776e-05,8.210004307329655e-05,9.435349966224749e-06,1.7265256246901117e-05,5.8156314480584115e-05
-7.745482434984297e-05,0.00010664814908523113,1.4092550372879487e-05,8.636716302135028e-06,5.4692056437488645e-05
-8.93597025424242e-05,0.00010837899026228115,1.1994965461781248e-05,6.077079888200387e-06,5.255542419035919e-05
-9.625687380321324e-05,9.256952034775168e-05,8.486824299325235e-06,3.874117737723282e-06,5.206452260608785e-05
-9.214242891175672e-05,6.906176713528112e-05,7.745122275082394e-06,-4.818589786736993e-06,5.585340841207653e-05
-7.523563544964418e-05,3.0412171327043325e-05,3.7372822134784656e-06,-2.3620212232344784e-05,6.130108522484079e-05
-5.360539580578916e-05,-3.2603613362880424e-05,-6.8626027314167e-06,-5.039580355514772e-05,6.241285154828802e-05
-3.357413879712112e-05,-0.00010448573448229581,-1.7908898371388204e-05,-6.922362808836624e-05,6.249790749279782e-05
-1.561878525535576e-05,-0.00014756948803551495,-2.3311731638386846e-05,-6.993228453211486e-05,7.038273906800896e-05
-5.9155690905754454e-06,-0.00013869046233594418,-2.3451781089534052e-05,-6.017609121045098e-05,8.006388816284016e-05
5.151006732262431e-08,-9.615688031772152e-05,-2.185167613788508e-05,-4.7638353862566873e-05,8.121870632749051e-05
7.332260793191381e-06,-3.703095717355609e-05,-2.175408008042723e-05,-3.0209703254513443e-05,7.621682016178966e-05
1.1167203410877846e-05,3.705791095853783e-05,-2.125044193235226e-05,-1.213095492857974e-05,6.933642725925893e-05
2.0772517018485814e-05,9.162177593680099e-05,-1.560973032610491e-05,-1.2753173450619215e-06,6.06188659730833e-05
