-3.865931284963153e-05,3.686449053930119e-05,-5.917057023907546e-06,-2.0493933334364556e-05,6.050433512427844e-05
-2.576925908215344e-05,2.3977812816156074e-05,-9.747013791638892e-06,-2.3912509277579375e-05,6.914221739862114e-05
-6.434250281017739e-06,2.0465688066906296e-05,-1.3725586541113444e-05,-2.5805949917412363e-05,7.354922126978636e-05
1.046203851728933e-05,1.886215432023164e-05,-1.542995414638426e-05,-3.176642712787725e-05,7.645818550372496e-05
2.3681326638325118e-05,4.814639851247193e-06,-1.6367454009014182e-05,-3.8305806810967624e-05,7.619571260875091e-05
2.5326151444460265e-05,-1.1155079846503213e-05,-1.4091554476181045e-05,-4.497128975344822e-05,7.106223347363994e-05
1.2049881661369e-05,-1.3223017276686733e-06,-1.2850549865106586e-05,-4.687707041739486e-05,6.49697904009372e-05
-1.058904490491841e-05,2.432102155580651e-05,-1.5432760847033933e-05,-4.093832103535533e-05,6.383868458215147e-05
-3.357231616973877e-05,4.051658834214322e-05,-1.684388189460151e-05,-3.077317887800746e-05,6.499050505226478e-05
-5.46094415767584e-05,4.056928082718514e-05,-1.71665487869177e-05,-2.376787415414583e-05,6.642351945629343e-05
-7.017331517999992e-05,3.24028696923051e-05,-1.598865674168337e-05,-2.206017052230891e-05,6.91798486514017e-05
-7.173146877903491e-05,2.604139081086032e-05,-1.5277300917659886e-05,-2.3944427084643394e-05,7.121730595827103e-05
-6.047380156815052e-05,2.3851211153669283e-05,-1.4001007002661936e-05,-2.776074325083755e-05,6.860517896711826e-05
-4.525011536316015e-05,2.4765027774265036e-05,-8.999440069601405e-06,-2.7756032068282366e-05,6.605590169783682e-05
-3.545271829352714e-05,2.4751765522523783e-05,-3.2125321922649164e-06,-2.1183161152293906e-05,6.789985491195694e-05
-3.112081321887672e-05,2.6695603082771413e-05,-1.809930040508334e-06,-6.844764811830828e-06,7.047928374959156e-05
-2.818208304233849e-05,3.0310362490126863e-05,-2.811973445204785e-06,8.054877071117517e-06,7.166263094404712e-05
-2.7552985557122156e-05,3.5025266697630286e-05,-2.040496156041627e-06,1.5390651242341846e-05,6.943240441614762e-05
-3.185656896675937e-05,4.600006650434807e-05,3.1903869057714473e-07,1.4724703760293778e-05,6.646068504778668e-05
-3.798038596869446e-05,6.437872798414901e-05,2.2309266114461934e-06,1.3115775800542906e-05,6.622540968237445e-05
-3.972323247580789e-05,7.894636655692011e-05,3.528989054757403e-06,1.5250643627950922e-05,6.357786332955584e-05
-3.197055048076436e-05,7.402439950965345e-05,4.528007593762595e-06,2.186408164561726e-05,5.588010390056297e-05
-1.819831959437579e-05,4.5130844227969646e-05,7.390897735604085e-06,2.6732022888609208e-05,4.872315184911713e-05
-6.771340395061998e-06,-3.548970823885611e-07,9.820812010730151e-06,2.471975312801078e-05,4.705429819296114e-05
-4.502643605519552e-06,-3.201827348675579e-05,6.776714144507423e-06,1.8715050828177482e-05,5.081054041511379e-05
-3.4147678888984956e-06,-2.8921616831212305e-05,-6.920430450918502e-07,1.0635517355694901e-05,5.519503974937834e-05
-8.197692409339652e-07,-1.1665474630717654e-05,-4.0828394958225545e-06,-7.646799105032187e-08,5.648961086990312e-05
-2.8815202313126065e-06,1.524298340882524e-06,-2.548021484471974e-06,-9.27016299101524e-06,5.7184162869816646e-05
-1.1996174180239905e-05,1.2247097401996143e-05,5.843425583407225e-07,-1.206290653499309e-05,5.426858479040675e-05
-2.17705328395823e-05,2.273557402077131e-05,4.4326998249744065e-06,-1.3884507097827736e-05,4.9850183131638914e-05
-2.8606606065295637e-05,3.775595541810617e-05,4.996362349629635e-06,-1.6253576177405193e-05,5.158718704478815e-05
-3.32430936396122e-05,5.3549458243651316e-05,2.5303954771516146e-06,-1.933784005814232e-05,5.4611424275208265e-05
-3.0988401704235e-05,6.662072701146826e-05,1.4995869150880026e-06,-2.247873999294825e-05,5.835270349052735e-05
-2.5948229449568316e-05,7.641753472853452e-05,2.4532289444323396e-06,-1.8909311620518565e-05,5.959501868346706e-05
-1.76920548256021e-05,8.381832594750449e-05,7.595220722578233e-06,-1.4296339031716343e-05,5.925916411797516e-05
-1.6046533346525393e-05,8.861366950441152e-05,1.54121735249646e-05,-1.2309756129980087e-05,6.138028402347118e-05
-2.6904637707048096e-05,9.295942436438054e-05,2.145290818589274e-05,-1.0127226232725661e-05,6.225184915820137e-05
-4.6224209654610604e-05,9.35743737500161e-05,2.429546475468669e-05,-9.421645700058434e-06,5.956644599791616e-05
-6.460284203058109e-05,8.887791773304343e-05,2.395837327640038e-05,-1.0765061233541928e-05,5.422965841717087e-05
-7.60738694225438e-05,7.657255628146231e-05,2.3010867153061554e-05,-1.2098612387489993e-05,5.105830859974958e-05
-7.646557060070336e-05,6.296954961726442e-05,2.341214712942019e-05,-1.2836287169193383e-05,5.185975896893069e-05
-6.87629944877699e-05,5.9589685406535864e-05,2.6248275389662012e-05,-1.359430007141782e-05,5.379778303904459e-05
-6.133352144388482e-05,6.517772999359295e-05,3.0139952286845073e-05,-1.2834719200327527e-05,5.6272718211403117e-05
-5.679174137185328e-05,6.465303886216134e-05,3.002872472279705e-05,-1.0457879398018122e-05,6.0481386753963307e-05
-5.381142909754999e-05,4.675169111578725e-05,2.404339647910092e-05,-8.518717550032306e-06,6.274667975958437e-05
-4.522113886196166e-05,2.4945657060015947e-05,1.5964800695655867e-05,-9.560685612086672e-06,6.25145694357343e-05
-3.052056490560062e-05,1.0743277925939765e-05,9.491510354564525e-06,-1.2623926522792317e-05,6.146117084426805e-05
-1.664119008637499e-05,4.376418587526132e-07,8.818198693916202e-06,-1.5641706340829842e-05,5.9220241382718086e-05
-1.5723189790151082e-05,-9.154558028967585e-06,1.2955184502061456e-05,-1.6083929949672893e-05,5.40131950401701e-05
-2.5113931769737974e-05,-1.673995029705111e-05,1.318019894824829e-05,-1.729456926113926e-05,4.9441627197666094e-05
-2.8895296054542996e-05,-2.1537785869440995e-05,6.956089237064589e-06,-2.1098261640872806e-05,5.081487324787304e-05
-2.021264299401082e-05,-1.9113131202175282e-05,2.481214323779568e-06,-2.2846084902994335e-05,5.4078216635389253e-05
-1.2883006093034055e-05,-1.035746572597418e-05,3.0107912607491016e-06,-2.2210360839380883e-05,5.53627687622793e-05
-1.5763967894599773e-05,-4.708226697403006e-07,4.9039417717722245e-06,-1.8676731997402385e-05,5.603553290711716e-05
-2.4499031496816315e-05,6.721365025441628e-06,6.580979516002117e-06,-1.5653296941309236e-05,5.780899664387107e-05
-2.4095401386148296e-05,1.5410532796522602e-05,5.446507657325128e-06,-1.9195789718651213e-05,6.161736382637173e-05
-1.3676779417437501e-05,2.1524325347854756e-05,5.279907782096416e-06,-2.3106289518182166e-05,6.317081715678796e-05
-4.140602413826855e-06,1.7929665773408487e-05,8.568953489884734e-06,-2.2281103156274185e-05,5.941193376202136e-05
2.0062145722477e-06,1.4118312719801906e-05,1.0341919733036775e-05,-1.6482823411934078e-05,5.2946514188079163e-05
1.4605901696995716e-06,2.4474808014929295e-05,6.8525287133525126e-06,-1.2244475328770932e-05,4.7775200073374435e-05
-3.81217341782758e-06,3.916455534636043e-05,3.0815763807368057e-07,-1.2555519788293168e-05,4.256271859048866e-05
-1.2074283404217567e-05,4.567868018057197e-05,-4.979489176548668e-07,-1.3342904821911361e-05,3.9665323129156604e-05
-2.124999627994839e-05,4.361374885775149e-05,3.118450194961042e-06,-1.1436119166319259e-05,4.285403701942414e-05
-3.0156714274198748e-05,3.854025635519065e-05,3.4467875593691133e-06,-5.268832410365576e-06,4.603261186275631e-05
-3.6470282793743536e-05,3.3177173463627696e-05,-5.369998348214722e-07,2.1803043637191877e-07,4.5770506403641775e-05
-3.408264819881879e-05,2.8674243367277086e-05,-1.9592296212067595e-06,3.1078909614734584e-06,4.609574534697458e-05
-2.590494477772154e-05,3.051632666029036e-05,-8.993315532279667e-07,1.417533894709777e-06,5.096512541058473e-05
-1.900917231978383e-05,3.676372944028117e-05,9.005578363030509e-07,-4.269557393854484e-06,5.5668111599516124e-05
-2.1099360310472548e-05,4.2092357034562156e-05,3.5319881135364994e-06,-9.462111847824417e-06,5.632105239783414e-05
-3.1220090022543445e-05,4.4462951336754486e-05,8.443832484772429e-06,-1.1327762877044734e-05,5.4495365475304425e-05
-4.129292938159779e-05,4.4589018216356635e-05,1.4379695130628534e-05,-1.2667872397287283e-05,5.356059409677982e-05
-4.809068559552543e-05,4.08281157433521e-05,1.823438287829049e-05,-1.4996570826042444e-05,5.2352035709191114e-05
-4.875414742855355e-05,3.9049202314345166e-05,2.080027843476273e-05,-1.6418631275882944e-05,5.336279355105944e-05
-3.9675844163866714e-05,4.128186628804542e-05,2.0872228560619988e-05,-1.5799256289028563e-05,5.982094444334507e-05
-1.912521111080423e-05,3.997154635726474e-05,1.8957431166199967e-05,-1.256936138815945e-05,6.561236659763381e-05
4.303281002648873e-06,3.2716281566536054e-05,1.5458883353858255e-05,-7.801073479640763e-06,6.63899554638192e-05
1.752515345287975e-05,2.4045664758887142e-05,1.2381169653963298e-05,-6.575330189662054e-06,6.430022767744958e-05
1.541824713058304e-05,1.835403782024514e-05,9.805451554711908e-06,-9.208026312990114e-06,6.241322262212634e-05
3.9213709612795355e-08,1.9304756278870627e-05,6.6998663896811195e-06,-1.3301732906256802e-05,6.178162584546953e-05
-1.449421324650757e-05,2.5591589292162098e-05,7.365238616330316e-06,-1.9308085029479116e-05,6.163683428894728e-05
-2.1868696421734057e-05,2.7930887881666422e-05,1.1775599887187127e-05,-2.304091685800813e-05,6.000251596560702e-05
-2.704246981011238e-05,2.403607140877284e-05,1.664992123551201e-05,-2.269283140776679e-05,5.782772495876998e-05
-2.53848047577776e-05,2.0056982975802384e-05,1.8631300918059424e-05,-1.9557459381758235e-05,5.8487439673626795e-05
-1.6224845239776187e-05,2.0208592104609124e-05,1.481440085626673e-05,-1.703653651929926e-05,6.0532187490025535e-05
-9.598342330718879e-06,2.325377681700047e-05,1.0240063602395821e-05,-1.6744594176998362e-05,6.386599852703512e-05
-9.929263796948362e-06,2.17174383578822e-05,7.736356565146707e-06,-1.5595129298162647e-05,6.244204269023612e-05
-1.5900461221463047e-05,1.7250302335014567e-05,5.7445918173471e-06,-1.4004816875967663e-05,5.55880724277813e-05
-1.9753533706534654e-05,1.5534262274741195e-05,3.975002982770093e-06,-1.2685633009823505e-05,5.670944301527925e-05
-1.6687758034095168e-05,1.979161606868729e-05,3.744780769920908e-06,-9.610714187147096e-06,6.324303103610873e-05
-1.3508893061953131e-05,2.2613576220464893e-05,4.2080668549715483e-07,-7.90023750596447e-06,6.637670594500378e-05
-8.020810128073208e-06,2.1355212084017694e-05,-5.712484380637761e-06,-9.68423319136491e-06,6.46331172902137e-05
-5.354868790163891e-06,1.980417982849758e-05,-7.356378773692995e-06,-1.259186137758661e-05,6.37944249319844e-05
-9.63089769356884e-06,1.717305713100359e-05,-4.083654857822694e-06,-1.3094646419631317e-05,6.41530059510842e-05
-1.8024820747086778e-05,1.1653639376163483e-05,-1.5379469004983548e-06,-1.3186438081902452e-05,6.4082931203302e-05
-2.4666867830092087e-05,6.264059265959077e-06,1.8407307322831912e-07,-1.339083337370539e-05,6.326100992737338e-05
-2.9892575184931047e-05,4.572134002955863e-06,2.497799187040073e-06,-1.0464313163538463e-05,6.000692883390002e-05
-3.326715886942111e-05,7.969112630235031e-06,3.919549726560945e-06,-8.962326319306158e-06,5.704576688003726e-05
-3.3398569939890876e-05,2.2238749807002023e-05,5.897440132685006e-06,-1.187016641779337e-05,5.7231372920796275e-05
-3.309395469841547e-05,4.027338945888914e-05,9.300173587689642e-06,-1.348293517366983e-05,5.8536435972200707e-05
-3.3347798307659104e-05,5.319039337337017e-05,1.1602465747273527e-05,-9.72984253166942e-06,5.947826139163226e-05
-3.1616837077308446e-05,5.904106728849001e-05,1.3895981282985304e-05,-4.253143288224237e-06,6.14863820374012e-05
-2.8092075808672234e-05,5.543830047827214e-05,1.7880252926261164e-05,-1.663082684899564e-06,6.215707253431901e-05
-3.0472736398223788e-05,4.521556184045039e-05,1.869906009233091e-05,-4.011032615380827e-06,6.104154454078525e-05
-3.9709790144115686e-05,3.736900180228986e-05,1.6193251212826e-05,-6.622288310609292e-06,5.615976624540053e-05
-4.665895176003687e-05,2.9312524929991923e-05,1.4296530025603715e-05,-5.7626898524176795e-06,5.0330476369708776e-05
-4.176707807346247e-05,1.6214979041251354e-05,1.690259887254797e-05,-1.1334811915730825e-06,5.0994782213820145e-05
-3.120064138784073e-05,-3.7050140235805884e-06,1.944362338690553e-05,2.501305971236434e-06,5.640002200379968e-05
-2.2812118913861923e-05,-3.394687155378051e-05,1.7629317881073803e-05,-3.7059164696984226e-06,5.8883375459117815e-05
-1.84882155735977e-05,-5.811419396195561e-05,1.5579533283016644e-05,-1.1000405720551498e-05,5.835122283315286e-05
-1.4225940503820311e-05,-4.9077927542384714e-05,1.118396994570503e-05,-8.660397725179791e-06,5.486067311721854e-05
-1.0340069820813369e-05,-1.5188460565696005e-05,8.066034752118867e-06,-6.854797902633436e-06,5.2995408623246476e-05
-9.008923370856792e-06,1.678184162301477e-05,8.477430128550623e-06,-5.2464965847320855e-06,5.730736302211881e-05
-1.0158749319089111e-05,3.059436130570248e-05,7.061610176606337e-06,-4.649489255825756e-06,6.067160575184971e-05
-1.2062921086908318e-05,3.3290805731667206e-05,6.8977733462816104e-06,-8.399641046707984e-06,6.320772808976471e-05
-1.3576207493315451e-05,4.328468276071362e-05,7.788299626554362e-06,-7.6215142144064885e-06,6.363086868077517e-05
-1.604918907105457e-05,5.4934880608925596e-05,7.210285730252508e-06,-4.656458713725442e-06,6.37764751445502e-05
-2.2335952962748706e-05,5.84836961934343e-05,7.044811809464591e-06,-6.854950697743334e-06,6.34396928944625e-05
-3.241213198634796e-05,5.9141286328667775e-05,6.515977474919055e-06,-1.3018202480452601e-05,6.298028165474534e-05
-4.564871414913796e-05,6.0531110648298636e-05,2.507920044081402e-06,-1.4106036360317376e-05,6.398918048944324e-05
-5.453993799164891e-05,5.974133455310948e-05,-2.247066504423856e-06,-1.089849047275493e-05,6.27857371000573e-05
-5.444849011837505e-05,5.2772036724491045e-05,-3.5925472730014008e-06,-7.046717655612156e-06,6.106160435592756e-05
-4.7604971769033e-05,4.1911363950930536e-05,-1.770783001120435e-06,-6.031646535120672e-06,6.119535828474909e-05
-3.8935333577683195e-05,3.2780000765342265e-05,-5.554939548346738e-07,-6.371197287080577e-06,6.393776857294142e-05
-3.4691114706220105e-05,2.918668178608641e-05,-8.396974635616061e-07,-6.11000996286748e-06,6.511827814392745e-05
-3.6690580600406975e-05,3.25058244925458e-05,-1.6417155848102993e-06,-6.923489763721591e-06,6.300746463239193e-05
-3.7745729059679434e-05,3.9057948015397415e-05,-1.9304281977383653e-06,-9.205135029333178e-06,5.7411703892285004e-05
-2.8319491320871748e-05,4.655428710975684e-05,-3.905487119482132e-06,-1.0289360034221318e-05,5.232877447269857e-05
-2.0369096091599204e-05,5.2701259846799076e-05,-8.743023499846458e-06,-1.1289797839708626e-05,5.216915451455861e-05
-2.2780848667025566e-05,5.2472347306320444e-05,-1.1565794920898043e-05,-1.400329165335279e-05,5.801339284516871e-05
-2.195725028286688e-05,4.450079723028466e-05,-1.0910388482443523e-05,-1.2403899745550007e-05,6.463868339778855e-05
-1.1519161489559337e-05,3.4504366340115666e-05,-9.821716957958415e-06,-9.05486558622215e-06,6.79010190651752e-05
3.0408566544792848e-06,2.285629670950584e-05,-1.0314282917534001e-05,-1.1545830602699425e-05,6.749413296347484e-05
1.7684218619251624e-05,1.1011248716386035e-05,-1.2150555448897649e-05,-1.8922295566881076e-05,6.636318721575662e-05
2.2035525034880266e-05,8.093827091215644e-06,-1.173107921204064e-05,-2.675410723895766e-05,6.861928704893216e-05
1.696073195489589e-05,1.0824909622897394e-05,-7.707798431511037e-06,-3.130963887088001e-05,7.02302495483309e-05
1.4001315321365837e-05,1.1541459571162704e-05,-7.400668437185232e-06,-3.1432256946573034e-05,7.068272680044174e-05
8.928614988690242e-06,1.5511275705648586e-05,-1.6007174053811468e-05,-3.801709317485802e-05,7.26113939890638e-05
-5.095640744912089e-07,1.8866743630496785e-05,-2.84345296677202e-05,-4.990077650290914e-05,7.244778680615127e-05
-8.114100637612864e-06,1.964323382708244e-05,-3.537968950695358e-05,-6.0222551837796345e-05,7.14770721970126e-05
-1.9018967577721924e-05,2.4769973606453277e-05,-3.6089910281589255e-05,-6.133239367045462e-05,7.160426321206614e-05
-3.3192885894095525e-05,3.0985869670985267e-05,-3.0442688512266614e-05,-5.405731644714251e-05,7.071400614222512e-05
-4.010152770206332e-05,3.6487657780526206e-05,-1.989976954064332e-05,-4.5600147132063285e-05,6.89359731040895e-05
-4.097255805390887e-05,4.089456342626363e-05,-9.72866837400943e-06,-3.517653385642916e-05,6.416610267478973e-05
-4.453021756489761e-05,4.10847133025527e-05,-2.694257545954315e-06,-2.2436961444327608e-05,6.09005983278621e-05
-4.749815343529917e-05,3.8726448110537603e-05,7.103944881237112e-07,-7.727063348283991e-06,6.166170351207256e-05
-4.840489418711513e-05,3.3499818528071046e-05,3.346472794873989e-06,1.0757999916677363e-05,6.334065983537585e-05
-4.5552624214906245e-05,2.9333772545214742e-05,1.08654903669958e-05,3.415202081669122e-05,6.347760790959e-05
-3.992750134784728e-05,2.7219295589020476e-05,2.536875217629131e-05,5.286119267111644e-05,6.224864046089351e-05
-3.195441604475491e-05,2.1734531401307322e-05,4.2137027776334435e-05,6.091150862630457e-05,6.284323171712458e-05
-2.5021639885380864e-05,1.0904571354330983e-05,5.424861956271343e-05,5.974958185106516e-05,6.325103458948433e-05
-2.3650027287658304e-05,2.7522735308593838e-06,5.8047222410095856e-05,5.6709770433371887e-05,6.0507005400722846e-05
-2.484013202774804e-05,2.42881333178957e-06,5.809532376588322e-05,5.293705180520192e-05,5.674971907865256e-05
-2.4539254809496924e-05,8.473908565065358e-06,5.870214954484254e-05,4.506844561547041e-05,5.466369475470856e-05
-2.2350543076754548e-05,1.8967488358612172e-05,6.0577531257877126e-05,3.336514419061132e-05,5.406991112977266e-05
-2.193459658883512e-05,2.811971353366971e-05,6.070972449379042e-05,1.9459523173281923e-05,5.3792246035300195e-05
-2.579029751359485e-05,3.4488242818042636e-05,5.457862062030472e-05,6.55583426123485e-06,5.471735858009197e-05
-3.479671067907475e-05,3.769998511415906e-05,4.420368350110948e-05,-2.1533944618568057e-06,5.482701089931652e-05
-4.114271723665297e-05,3.855559407384135e-05,3.569763430277817e-05,-4.884801455773413e-06,5.183406756259501e-05
-4.1223156586056575e-05,3.8159712858032435e-05,2.90800253424095e-05,-5.676055479852948e-06,4.932228330289945e-05
-3.7841546145500615e-05,3.761883999686688e-05,2.4087275960482657e-05,-8.690787581144832e-06,4.892126889899373e-05
-3.975344225182198e-05,3.960805406677537e-05,1.9205876014893875e-05,-1.1124537195428275e-05,5.092703577247448e-05
-4.571782847051509e-05,4.117920252610929e-05,1.221515685756458e-05,-1.2278226677153725e-05,5.391800368670374e-05
-5.1976450777146965e-05,4.5931021304568276e-05,2.16142234421568e-06,-1.8291773812961765e-05,5.444535054266453e-05
-5.386505290516652e-05,5.3154148190515116e-05,-7.433799964928767e-06,-2.6478692234377377e-05,5.792490628664382e-05
-4.8166682972805575e-05,5.4935520893195644e-05,-8.529365004505962e-06,-3.256336640333757e-05,6.194133311510086e-05
-4.245919990353286e-05,5.714721555705182e-05,-7.221420219138963e-06,-3.368983743712306e-05,6.17466212133877e-05
-3.8291083910735324e-05,5.9371952374931425e-05,-6.815715551056201e-06,-3.143053254461847e-05,6.108341767685488e-05
-3.402675429242663e-05,5.911858897889033e-05,-5.96692689214251e-06,-3.038576505787205e-05,5.924012293689884e-05
-2.7126794520881958e-05,5.9926249377895147e-05,-1.0146040949621238e-05,-3.32824420183897e-05,5.980794594506733e-05
-2.054752258118242e-05,6.65789921185933e-05,-2.391920133959502e-05,-3.762575579457916e-05,6.079865124775097e-05
-1.875569978437852e-05,6.706795102218166e-05,-3.6511588405119255e-05,-3.462731547188014e-05,5.720411354559474e-05
-1.8285145415575244e-05,4.946569970343262e-05,-3.894031760864891e-05,-2.9786811865051277e-05,5.070283077657223e-05
-1.4614374777011108e-05,1.0890282283071429e-05,-3.609288251027465e-05,-2.8892140107927844e-05,4.71727762487717e-05
-8.991146387415938e-06,-2.9246471967780963e-05,-3.057278445339762e-05,-2.6035426344606094e-05,4.7948367864592e-05
-4.6952245611464605e-06,-4.318501305533573e-05,-2.11174956348259e-05,-1.7068816305254586e-05,4.893316145171411e-05
-3.4152460557379527e-06,-3.235324766137637e-05,-9.626240171201061e-06,-1.0908415788435377e-05,4.999900556867942e-05
-5.374807642510859e-06,-1.5765974239911884e-05,-1.3059946013527224e-06,-1.0001798727898858e-05,5.1465096476022154e-05
-1.2063500435033347e-05,-2.9365942282311153e-06,2.7263863557891455e-06,-9.74365229922114e-06,5.2207826229278e-05
-2.2230788090382703e-05,5.450444405141752e-06,1.6989623645713436e-06,-7.293907401617616e-06,4.881399217993021e-05
-3.295443093520589e-05,9.467206837143749e-06,-1.369939127471298e-06,-3.2561329135205597e-06,4.3258896766928956e-05
-3.820538040599786e-05,1.6200030586333014e-05,-7.067642968650034e-07,-1.1877815495608957e-06,4.175158028374426e-05
-3.7171812437009066e-05,2.5793304303078912e-05,3.0194967166607967e-06,-2.7442672489996767e-06,4.437067764229141e-05
-3.746950096683577e-05,3.462932727416046e-05,2.5325941805931507e-06,-5.804087322758278e-06,4.6111275878502056e-05
-4.0447725041303784e-05,4.1154646169161424e-05,-3.079112502746284e-06,-6.870273409731453e-06,4.688716944656335e-05
-4.122988320887089e-05,4.4115113269072026e-05,-1.0067024049931206e-05,-9.81856464932207e-06,4.8504763981327415e-05
-3.921118695870973e-05,3.807420580415055e-05,-1.533810791443102e-05,-1.5204053852357902e-05,5.2435592806432396e-05
-3.5522025427781045e-05,3.110063698841259e-05,-1.469356084271567e-05,-1.8880431525758468e-05,5.966252138023265e-05
-2.214953929069452e-05,3.110501347691752e-05,-1.002543285721913e-05,-1.712365155981388e-05,6.505927012767643e-05
-5.6365461205132306e-06,2.851558747352101e-05,-6.048944214853691e-06,-1.3069502529106103e-05,6.581220804946497e-05
-9.927895007422194e-06,2.7879432309418917e-05,-1.9766728200920625e-06,-1.3346661944524385e-05,6.204517558217049e-05
-3.12633128487505e-05,4.042402724735439e-05,1.3469172017721576e-06,-1.3013014722673688e-05,5.539031917578541e-05
-4.7234225348802283e-05,5.216020144871436e-05,1.2988303979000193e-06,-9.046702871273737e-06,5.518350735655986e-05
-5.431273893918842e-05,5.104342199047096e-05,1.3271586567498161e-06,-7.95590767665999e-06,5.6118042266462e-05
-5.2621304348576814e-05,4.1939623770304024e-05,7.518381607951596e-06,-6.907745955686551e-06,5.2456507546594366e-05
-4.9992322601610795e-05,3.3314772736048326e-05,1.2677182894549333e-05,-5.517943918675883e-06,5.0943457608809695e-05
-4.734371032100171e-05,3.45608132192865e-05,1.4882761206536088e-05,-2.712054310904932e-06,5.401121234172024e-05
-4.097123019164428e-05,4.052386793773621e-05,2.048885107797105e-05,-1.3182773273001658e-06,5.627994687529281e-05
-3.6483441363088787e-05,3.4741377021418884e-05,2.582350316515658e-05,-4.692507445724914e-06,5.5797303502913564e-05
-3.441537046455778e-05,2.00540162040852e-05,2.587164271972142e-05,-1.1241458196309395e-05,5.704147042706609e-05
-3.121120244031772e-05,4.001307388534769e-06,2.036869955190923e-05,-1.6769779904279858e-05,5.8726476709125564e-05
-2.481743649696e-05,-7.476355222024722e-06,1.3677933566214051e-05,-1.7389915228704922e-05,6.19469938101247e-05
-1.7175025277538225e-05,-1.0047591786133125e-05,8.11237987363711e-06,-1.4082683264859952e-05,6.433447560993955e-05
-7.943031050672289e-06,-7.786882633809e-06,6.483465313067427e-06,-1.1511525372043252e-05,6.387503526639193e-05
7.815162916813279e-07,-6.413522896764334e-06,8.038321539061144e-06,-1.4561752323061228e-05,5.8584635553415865e-05
5.785294888482895e-06,-6.311223842203617e-06,6.51830396236619e-06,-2.0352179490146227e-05,5.377271008910611e-05
5.6063504416670185e-06,-1.082087010217947e-06,-5.489354037990779e-08,-2.231275175290648e-05,5.369109203456901e-05
-7.339176590903662e-07,1.2366657756501809e-05,-5.768775281467242e-06,-1.7177908375742845e-05,5.490393232321367e-05
-1.0996740456903353e-05,3.091774124186486e-05,-8.75143723533256e-06,-1.0059939995699096e-05,5.3639534598914906e-05
-1.5900417565717362e-05,4.426534360391088e-05,-1.1909528438991401e-05,-4.872253157373052e-06,5.0500064389780164e-05
-1.4006059245730285e-05,4.6244411350926384e-05,-1.4005448065290693e-05,-4.450627329788404e-06,4.961922240909189e-05
-1.1298201570753008e-05,4.150225504417904e-05,-1.2787215382559225e-05,-6.836610282334732e-06,5.129936835146509e-05
-8.710796464583836e-06,3.5358974855626e-05,-7.959433787618764e-06,-5.889183739782311e-06,5.506475645233877e-05
-5.916984719078755e-06,3.1127259717322886e-05,-2.924767613876611e-06,-4.759362127515487e-06,5.993625381961465e-05
-6.342238975776127e-06,4.148174775764346e-05,-1.525037077954039e-06,-6.889731594128534e-06,6.162912177387625e-05
-1.1395418368920218e-05,6.555825530085713e-05,-5.152986432221951e-06,-9.008026609080844e-06,5.8874942624242976e-05
-2.1723404643125832e-05,7.784684567013755e-05,-6.794827186240582e-06,-1.1601880942180287e-05,5.739912376157008e-05
-3.0369428714038804e-05,7.040791388135403e-05,-3.4513677746872418e-06,-1.5326004358939826e-05,5.797480480396189e-05
-3.2642190490150824e-05,5.404768671724014e-05,-3.2635819025017554e-06,-1.947331656992901e-05,5.927507299929857e-05
-3.488544825813733e-05,4.079249265487306e-05,-6.373090855049668e-06,-2.0480980310821906e-05,6.0016493080183864e-05
-3.7175628676777706e-05,3.3357628126395866e-05,-3.7663635339413304e-06,-2.2970270947553217e-05,6.087490692152642e-05
-3.916061541531235e-05,1.9192040781490505e-05,3.2082889447337948e-06,-2.7627871531876735e-05,6.141357152955607e-05
-4.087425986654125e-05,3.3808505577326287e-06,4.847329819313018e-06,-2.6971165425493382e-05,6.234135798877105e-05
-3.932176696253009e-05,1.1001790198861272e-06,4.157244802627247e-06,-2.349794340261724e-05,6.17747355136089e-05
-3.4645956475287676e-05,1.2626381248992402e-05,6.16860370428185e-06,-2.031873373198323e-05,6.026162736816332e-05
-2.7740212317439727e-05,2.3434186005033553e-05,1.0604734598018695e-05,-1.799110214051325e-05,6.241765368031338e-05
-2.538599983381573e-05,3.041950913029723e-05,1.15082666525268e-05,-1.6913458239287138e-05,6.577666499651968e-05
-2.9696358978981152e-05,3.7181758671067655e-05,1.0661661690392066e-05,-1.386628264299361e-05,6.989062239881605e-05
-3.0090921427472495e-05,4.4930613512406126e-05,1.4542697499564383e-05,-7.930152605695184e-06,7.226758316392079e-05
-2.8559805286931805e-05,5.627919381367974e-05,1.978405998670496e-05,-1.1430504400777863e-06,6.954192213015631e-05
-2.9416594770736992e-05,7.093199383234605e-05,1.9955979951191694e-05,1.7638736835579039e-06,6.625829701079056e-05
-2.832321661117021e-05,7.910576823633164e-05,1.8458567865309305e-05,-1.7632677327128476e-06,6.583808863069862e-05
-2.375485928496346e-05,7.769639341859147e-05,2.0274310372769833e-05,-6.993990609771572e-06,6.661385850748047e-05
-2.3253067411133088e-05,7.694839587202296e-05,2.253374805150088e-05,-1.0112506060977466e-05,6.654552998952568e-05
-3.092134284088388e-05,7.745764742139727e-05,1.9685890947584994e-05,-1.4305331205832772e-05,6.553951243404299e-05
-4.332710159360431e-05,7.31578838895075e-05,1.1518125575094018e-05,-2.2662865376332775e-05,6.369398033712059e-05
-5.6149783631553873e-05,6.166292587295175e-05,3.838180873572128e-06,-2.8062695491826162e-05,6.240056245587766e-05
-6.487835344159976e-05,4.8784189857542515e-05,3.7969807635818142e-06,-2.5907687813742086e-05,6.268402648856863e-05
-6.71818561386317e-05,3.805499000009149e-05,1.1691801773849875e-05,-1.9657143639051355e-05,6.440736615331843e-05
-6.020225919201039e-05,2.9357375751715153e-05,1.9193163097952493e-05,-1.4141435713099781e-05,6.344843131955713e-05
-5.183956818655133e-05,2.4934077373472974e-05,2.4350571038667113e-05,-1.059581609297311e-05,5.967464312561788e-05
-4.6336925151990727e-05,2.5423121769563295e-05,2.611665695440024e-05,-6.2034073380345944e-06,5.5843585869297385e-05
-3.5802815546048805e-05,2.1495327018783428e-05,2.4057435439317487e-05,-1.7898797466386895e-07,5.3462998039321974e-05
-2.447223596391268e-05,5.878633146494394e-06,2.0528925233520567e-05,7.016184554231586e-06,5.4859126976225525e-05
-1.8991815522895195e-05,-1.7354730516672134e-05,1.8705473848967813e-05,1.3775060324405786e-05,5.378663627197966e-05
-1.917995723488275e-05,-2.894884346460458e-05,1.8817805539583787e-05,1.797311779228039e-05,5.136917025083676e-05
-1.836906812968664e-05,-1.5763218470965512e-05,1.9635155695141293e-05,1.951365811692085e-05,5.222377149038948e-05
-4.661503226088826e-06,5.003504611522658e-06,1.6511359717696905e-05,1.2474019058572594e-05,5.471915937960148e-05
1.3935816241428256e-05,9.229531315213535e-06,1.2124703971494455e-05,1.3323249277163995e-06,5.6600329116918147e-05
2.532941653043963e-05,9.417892215424217e-06,9.022503036248963e-06,-4.589910986396717e-06,5.852662798133679e-05
3.329100218252279e-05,1.897702895803377e-05,4.316731065046042e-06,-5.122583388583735e-06,6.0120029957033694e-05
3.562165511539206e-05,2.727565515669994e-05,-3.4996537578990683e-06,-2.648785539349774e-06,5.822608000016771e-05
2.976092218887061e-05,2.9449520297930576e-05,-1.265391256310977e-05,-2.8449219371395884e-06,5.496199446497485e-05
2.0790030248463154e-05,3.2160965929506347e-05,-1.7455400666221976e-05,-3.62647347174061e-06,5.2844887250103056e-05
1.3531262084143236e-05,3.9004269638098776e-05,-1.2592873645189684e-05,7.344189043578808e-07,5.31549594597891e-05
8.883472219167743e-06,4.157780495006591e-05,-3.671002559713088e-06,6.322060016827891e-06,5.469284224091098e-05
-2.2131968080429942e-07,3.985121293226257e-05,-4.450022288438049e-07,8.383242857235018e-06,5.7397268392378464e-05
-1.6645928553771228e-05,3.918317815987393e-05,-2.26210704568075e-06,8.998000339488499e-06,5.723479262087494e-05
-3.355938315507956e-05,3.8983595004538074e-05,-1.109542040467204e-06,9.85466340353014e-06,5.126855103299022e-05
-4.5026445150142536e-05,3.5468110581859946e-05,4.068075213581324e-06,8.680594874022063e-06,4.496101610129699e-05
-5.01293980050832e-05,2.8140051654190756e-05,7.319690666918177e-06,4.822582923225127e-06,4.491713480092585e-05
-4.757424903800711e-05,1.7185111573780887e-05,5.629649876937037e-06,1.777645024958474e-06,4.8169658839469776e-05
-3.984385693911463e-05,9.649666935729329e-06,4.927711870550411e-06,3.0269725357356947e-06,5.108203913550824e-05
-3.405832467251457e-05,1.3605399544758257e-05,1.0849794307432603e-05,7.4457930168136954e-06,5.2164774388074875e-05
-3.602089054766111e-05,2.2155318220029585e-05,1.7618269339436665e-05,8.998131306725554e-06,4.963296669302508e-05
-4.334977347753011e-05,2.861146640498191e-05,2.0374402083689347e-05,2.965978183055995e-06,4.686606553150341e-05
-4.9193396989721805e-05,3.272592948633246e-05,1.806317231967114e-05,-6.139060133136809e-06,4.7224890295183286e-05
-4.82898649352137e-05,2.8831038434873335e-05,1.4803373233007733e-05,-1.1180190995219164e-05,5.218058140599169e-05
-4.2914813093375415e-05,1.9947496184613556e-05,1.3164956726541277e-05,-1.3202607078710571e-05,5.9508751292014495e-05
-4.230218837619759e-05,1.845578481152188e-05,1.0941206710413098e-05,-1.5050603906274773e-05,6.136921001598239e-05
-4.572453326545656e-05,2.3765260266372934e-05,4.641373379854485e-06,-1.6712692740838975e-05,5.806154149468057e-05
-5.0525017286418006e-05,2.6244384571327828e-05,3.5192661584915186e-07,-1.7709056919557042e-05,5.664641139446758e-05
-4.619694664143026e-05,2.5299717890447937e-05,-3.278193617006764e-06,-1.6755195247242227e-05,5.978770423098467e-05
-3.506780558382161e-05,2.7241583666182123e-05,-4.4983107727603056e-06,-1.3582734936790075e-05,6.726496940245852e-05
-2.7313162718201056e-05,2.6911100576398894e-05,-6.681467823455023e-08,-1.1898439879587386e-05,7.347283099079505e-05
-2.0524077626760118e-05,2.356109871470835e-05,5.4389397519116756e-06,-1.5686820916016586e-05,7.62599884183146e-05
-2.1316938727977686e-05,2.138549643859733e-05,8.63602508616168e-06,-2.503028736100532e-05,7.223577267723158e-05
-2.48490377998678e-05,2.468171987857204e-05,9.183650945487898e-06,-3.36566154146567e-05,6.591758574359119e-05
-2.5228089725715108e-05,3.420149732846767e-05,1.400477958668489e-05,-3.797496174229309e-05,6.33348390692845e-05
-2.559840322646778e-05,3.830125933745876e-05,1.890505700430367e-05,-4.161352990195155e-05,6.744321581209078e-05
-2.5503077267785557e-05,3.705473864101805e-05,1.725901529425755e-05,-4.651544804801233e-05,7.47796511859633e-05
-2.4201748601626605e-05,3.34809155901894e-05,9.503402907284908e-06,-4.8013771447585896e-05,7.923843077151105e-05
-2.217198743892368e-05,2.9835689929313958e-05,5.30404622622882e-06,-4.2653711716411635e-05,7.697024557273835e-05
-1.8025453755399212e-05,2.6883784812525846e-05,7.833808922441676e-06,-3.455065962043591e-05,6.996737647568807e-05
-1.4707700756844133e-05,2.7176693038200028e-05,1.2885878277302254e-05,-2.7428424800746143e-05,6.43208040855825e-05
-1.5580350009258837e-05,3.0126955607556738e-05,2.0421564840944484e-05,-2.1741467207903042e-05,6.078873047954403e-05
-1.9554632672225125e-05,3.181417196174152e-05,3.0409586543100886e-05,-1.5591393093927763e-05,5.6685243180254474e-05
-2.5669020033092238e-05,3.197545447619632e-05,3.833172013401054e-05,-5.745861926698126e-06,5.190383308217861e-05
-3.535723953973502e-05,3.286662104073912e-05,4.0366838220506907e-05,4.346555670053931e-06,4.6996101445984095e-05
-4.2947547626681626e-05,3.65246414730791e-05,3.9062200812622905e-05,1.1478680789878126e-05,4.429692489793524e-05
-4.0674938645679504e-05,3.9048154576448724e-05,3.6286452086642385e-05,1.977775536943227e-05,4.5312277507036924e-05
-3.324440694996156e-05,3.6148590879747644e-05,3.447669587330893e-05,3.1348470656666905e-05,4.5089342165738344e-05
-2.7338759537087753e-05,3.0215865990612656e-05,3.131454286631197e-05,4.0248291043099016e-05,4.4788099330617115e-05
-2.4809118258417584e-05,2.82652435998898e-05,2.236568798252847e-05,2.9880349757149816e-05,4.6331071644090116e-05
-2.464137287461199e-05,2.9906772397225723e-05,9.803783541428857e-06,-3.4240113109262893e-06,4.862834248342551e-05
-2.2260270270635374e-05,3.115892832283862e-05,6.883310987859659e-08,-3.0216697268770076e-05,5.226019857218489e-05
-1.2572263585752808e-05,2.073313771688845e-05,-4.147612798988121e-06,-3.299293166492134e-05,5.672120096278377e-05
-6.368739377649035e-06,-3.4426216188876424e-06,-2.6784684905578615e-06,-3.095094143645838e-05,5.73686629650183e-05
-9.25415770325344e-06,-2.285339178342838e-05,8.01257783678011e-07,-3.374073639861308e-05,5.9155157941859215e-05
-2.0099421817576513e-05,-2.7649015464703552e-05,1.735128080326831e-06,-3.6539746361086145e-05,6.738729280186817e-05
-3.373594881850295e-05,-2.4955206754384562e-05,-2.537212822062429e-07,-3.421446308493614e-05,8.058270032051951e-05
-4.1506460547680035e-05,-2.1740479496656917e-05,-2.6415111733513186e-06,-2.8598704375326633e-05,8.76148187671788e-05
-4.2321611545048654e-05,-1.8129068848793395e-05,-2.5941499188775197e-06,-2.6351137421443127e-05,8.529128535883501e-05
-3.942039256799035e-05,-4.650408300221898e-06,-8.399173339057597e-07,-2.5262832423322834e-05,7.673139771213755e-05
-3.450660369708203e-05,1.7622494851821102e-05,-2.061783789031324e-06,-2.655536627571564e-05,6.550207763211802e-05
-3.225117325200699e-05,3.6232275306247175e-05,-4.095065378351137e-06,-2.687384585442487e-05,5.883946505491622e-05
-3.342475974932313e-05,4.387859007692896e-05,-2.8331267003522953e-06,-2.2745665773982182e-05,5.738876643590629e-05
-3.2832864235388115e-05,4.7447814722545445e-05,-1.2440362979759811e-06,-1.9000961401616223e-05,5.7041761465370655e-05
-2.8859098165412433e-05,5.3470728744287044e-05,9.966686320694862e-07,-2.0502775441855192e-05,5.596345727099106e-05
-1.8984199414262548e-05,5.9696409152820706e-05,4.259102752257604e-06,-2.3605345631949604e-05,5.4893789638299495e-05
-6.243747066037031e-06,5.654366032104008e-05,5.58355895918794e-06,-2.396936724835541e-05,5.355296889320016e-05
5.416380190581549e-06,3.524002022459172e-05,4.2722185753518716e-06,-2.1616027879645117e-05,5.198767394176684e-05
1.0739311619545333e-05,5.807346951769432e-06,2.413204128970392e-06,-1.4271444342739414e-05,5.1282837375765666e-05
7.753193131065927e-06,-5.314733698469354e-06,-1.1436579825385706e-06,-3.258917558923713e-06,5.362331648939289e-05
-5.810089987789979e-06,1.0461199053679593e-05,-4.804360287380405e-06,4.623458607966313e-06,5.81085987505503e-05
-2.5854315026663244e-05,3.3686828828649595e-05,-5.350900210032705e-06,5.315866019373061e-06,6.277256034081802e-05
-4.062506923219189e-05,5.383151801652275e-05,-6.3188604144670535e-06,3.021503289346583e-06,6.777256930945441e-05
-4.480766074266285e-05,7.034667942207307e-05,-1.0881130037887488e-05,-2.8760433679053676e-07,7.258983532665297e-05
-4.156570867053233e-05,7.782088505337015e-05,-1.5238840205711313e-05,-4.812515726371203e-06,7.513441960327327e-05
-3.4814278478734195e-05,7.325649494305253e-05,-1.661529859120492e-05,-9.124798452830873e-06,7.479629130102694e-05
-3.1106472306419164e-05,5.9615478676278144e-05,-1.735200385155622e-05,-1.6764601241447963e-05,7.076802285155281e-05
-2.9092310796841048e-05,3.81387653760612e-05,-1.884482117020525e-05,-3.154919249936938e-05,6.624932575505227e-05
-2.134354508598335e-05,1.1258212907705456e-05,-1.743184111546725e-05,-5.2784784202231094e-05,6.10727583989501e-05
-1.6977759514702484e-05,-8.266160875791684e-06,-1.1298285244265571e-05,-7.509008719353005e-05,5.6341432355111465e-05
-2.3791510102455504e-05,-1.4122134416538756e-05,-2.157455355700222e-06,-6.997999298619106e-05,5.706730735255405e-05
-2.7745341867557727e-05,-1.4119489605946e-05,1.9357921701157466e-06,-3.6925623135175556e-05,6.429668428609148e-05
-1.566799619467929e-05,-1.2365874681563582e-05,-1.3016809816690511e-06,-1.4531024135067128e-05,7.412250124616548e-05
2.254396122225444e-06,-1.1971903404628392e-05,7.79601350586745e-07,-9.454594874114264e-06,7.866696250857785e-05
1.3667785424331669e-05,-1.1369467756594531e-05,6.7895452957600355e-06,-1.1325993000355083e-05,7.268040644703433e-05
7.643775461474434e-06,-8.047784831433091e-06,5.890586180612445e-06,-1.3616892829304561e-05,6.404003215720877e-05
-6.332852535706479e-06,1.896768708320451e-06,4.938657980346761e-07,-1.1306770829833113e-05,6.418169505195692e-05
-1.041632640408352e-05,2.2307931430987082e-05,-2.735070438575349e-06,-6.681688319076784e-06,6.565897638211027e-05
-1.0040892448159866e-05,4.68711914436426e-05,-4.854891813010909e-06,-3.977836968260817e-06,6.096611832617782e-05
-1.4825454854872078e-05,5.893801790080033e-05,-6.633107659581583e-06,-9.042314559337683e-06,5.495444929692894e-05
-2.2252628696151078e-05,6.198823393788189e-05,-8.923734640120529e-06,-2.095668787660543e-05,5.2573592256521806e-05
-2.629816299304366e-05,6.272916652960703e-05,-1.4890363672748208e-05,-3.521493636071682e-05,5.51627526874654e-05
-2.8233296688995324e-05,6.0767193645006046e-05,-1.9896124285878614e-05,-4.622244887286797e-05,5.878607043996453e-05
-2.857484832929913e-05,5.6324246543226764e-05,-1.8254455426358618e-05,-4.806526339962147e-05,6.173226574901491e-05
-2.5473778805462644e-05,4.885839734924957e-05,-1.3615422176371794e-05,-4.065372922923416e-05,6.339791434584185e-05
-2.031382973655127e-05,4.157708463026211e-05,-1.1490611541375984e-05,-2.8009100788040087e-05,6.088176087359898e-05
-1.6158561265910976e-05,3.6580313462764025e-05,-1.0565954653429799e-05,-1.4937862943043001e-05,5.6720356951700523e-05
-1.5151793377299327e-05,3.5088276490569115e-05,-1.1172234735568054e-05,-3.694946371979313e-06,5.688555393135175e-05
-2.0195784600218758e-05,3.313786146463826e-05,-1.5188544239208568e-05,6.195946752995951e-06,5.842340033268556e-05
-3.053766704397276e-05,3.1209707231028005e-05,-1.8042610463453457e-05,1.7777671018848196e-05,5.85291491006501e-05
-3.770629700738937e-05,2.866165232262574e-05,-1.4955839105823543e-05,3.227884371881373e-05,5.7226319768233225e-05
-3.9201400795718655e-05,2.6029947548522614e-05,-7.538025329267839e-06,4.516198896453716e-05,5.6230626796605065e-05
-3.889482104568742e-05,2.8852567993453704e-05,3.151844339299714e-06,4.8934871301753446e-05,5.793504533357918e-05
-3.691281017381698e-05,3.571840716176666e-05,1.4760858903173357e-05,4.5108066842658445e-05,6.112262781243771e-05
-3.640170325525105e-05,3.059835944441147e-05,2.13940493267728e-05,3.558128810254857e-05,5.955385131528601e-05
-3.9484915760112926e-05,1.5776835425640456e-05,2.0679199224105105e-05,2.584238609415479e-05,5.176771082915366e-05
-3.9501479477621615e-05,1.0857348570425529e-05,1.8621758499648422e-05,1.99673195311334e-05,4.4994209019932896e-05
-3.6283261579228565e-05,1.4377059414982796e-05,1.8011149222729728e-05,1.4686377653561067e-05,4.248524783179164e-05
-3.3066382457036525e-05,7.89011664892314e-06,1.8184629880124703e-05,1.2489687833294738e-05,4.418930984684266e-05
-3.214343814761378e-05,4.5522085656557465e-07,1.896998037409503e-05,1.1263832675467711e-05,4.8017889639595523e-05
-3.476711208350025e-05,8.178310054063331e-06,1.758716462063603e-05,8.303806680487469e-06,5.2789349865633994e-05
-3.1050116376718506e-05,2.7294267056277022e-05,1.6157910067704506e-05,2.120493036272819e-06,5.7621953601483256e-05
-2.4776183636276983e-05,4.5280452468432486e-05,1.5406118109240197e-05,-4.434877155290451e-06,5.983348091831431e-05
-2.2428110241889954e-05,4.7874134907033294e-05,1.7148278857348487e-05,-7.950265171530191e-06,5.580924334935844e-05
-2.349984242755454e-05,4.187509694020264e-05,2.0597479306161404e-05,-9.50706635194365e-06,5.079695984022692e-05
-2.366796979913488e-05,3.965094219893217e-05,2.5574243409209885e-05,-9.27848850551527e-06,4.732667002826929e-05
-2.0560471966746263e-05,4.128548243897967e-05,3.0555260309483856e-05,-7.844792889954988e-06,4.482804797589779e-05
-1.8735259800450876e-05,4.6000874135643244e-05,3.244549225200899e-05,-5.434262675407808e-06,4.567997166304849e-05
-1.9711904315045103e-05,5.353871893021278e-05,2.9849303246010095e-05,-4.1651128412922844e-06,4.80065900774207e-05
-2.4634331566630863e-05,6.0876049246871844e-05,2.348708949284628e-05,-6.076035333535401e-06,4.6599929191870615e-05
-3.189703420503065e-05,6.766666774637997e-05,1.8696717233979143e-05,-9.703201612865087e-06,4.3332223867764696e-05
-3.7124729715287685e-05,7.313537207664922e-05,1.847419662226457e-05,-1.0491575267224107e-05,4.333628385211341e-05
-3.912574902642518e-05,7.504638051614165e-05,2.1202104107942432e-05,-6.671118171652779e-06,4.672181967180222e-05
-3.868343264912255e-05,7.283117884071544e-05,2.2710040866513737e-05,-8.476224024889234e-07,5.0616483349585906e-05
-3.6430716136237606e-05,6.318747182376683e-05,2.1195497538428754e-05,1.8199490341430646e-06,5.2965813665650785e-05
-3.800992635660805e-05,4.487056139623746e-05,1.9159004295943305e-05,-1.6911207012526575e-07,5.482542110257782e-05
-4.369564339867793e-05,2.7028832846553996e-05,1.8160344552597962e-05,-5.026648977946024e-06,5.763010631198995e-05
-4.5951273932587355e-05,1.24764846987091e-05,1.487032750446815e-05,-1.2041122317896225e-05,5.8850800996879116e-05
-3.9651826227782294e-05,-1.1668578736134805e-05,1.086292013496859e-05,-1.8341606846661307e-05,5.560112913371995e-05
-2.8431999453459866e-05,-3.9256927266251296e-05,8.770413842285052e-06,-1.9809776858892292e-05,5.3412797569762915e-05
-1.911578692670446e-05,-3.6260171327739954e-05,9.890859473671298e-06,-1.7881549865705892e-05,5.5535638239234686e-05
-1.6867652448127046e-05,-5.0551984713820275e-06,1.2000053175142966e-05,-1.58541661221534e-05,6.087093788664788e-05
-2.032332486123778e-05,1.7748172467690893e-05,1.1633632311713882e-05,-1.508611148892669e-05,6.274657062022015e-05
-2.2660666218143888e-05,2.2149208234623075e-05,9.43130817177007e-06,-1.2743807019433007e-05,6.05785935476888e-05
-2.3909971787361428e-05,1.936075568664819e-05,3.1355975806945935e-06,-1.0898338587139733e-05,6.091380419093184e-05
-2.69719948846614e-05,1.4342810572998133e-05,-5.784672339359531e-06,-1.3812557881465182e-05,6.211829895619303e-05
-2.9871322112740017e-05,1.355439508188283e-05,-1.0755039511423092e-05,-1.987557698157616e-05,6.540794129250571e-05
-2.45382670982508e-05,2.198307447542902e-05,-1.51687081597629e-05,-2.2688816898153163e-05,6.87266729073599e-05
-1.809934292396065e-05,3.12521806336008e-05,-1.781944047252182e-05,-2.1953974282951094e-05,6.742632831446826e-05
-2.3450858861906454e-05,3.5696564737008885e-05,-1.2941773093189113e-05,-2.3332246200880036e-05,6.487518840003759e-05
-3.0252436772570945e-05,3.6012868804391474e-05,-6.136965566838626e-06,-2.2285321392701007e-05,6.275648775044829e-05
-3.359659967827611e-05,3.857221963698976e-05,-4.158625415584538e-06,-1.859585063357372e-05,6.448211934184656e-05
-3.70507623301819e-05,4.555232226266526e-05,-7.2977400122908875e-06,-1.4791099602007307e-05,6.839750130893663e-05
-4.242179784341715e-05,5.460119791678153e-05,-7.813997399352957e-06,-1.535844239697326e-05,7.031115092104301e-05
-4.573323894874193e-05,5.86889436817728e-05,-4.977669050276745e-06,-1.9850893295370042e-05,6.912476237630472e-05
-4.644065847969614e-05,4.8412282922072336e-05,-2.4495773232047213e-06,-2.2392810933524743e-05,6.447119085351005e-05
-4.38474744441919e-05,3.0358047297340818e-05,-1.2663342658925103e-06,-1.889224222395569e-05,5.775897079729475e-05
-3.681108137243427e-05,1.8516986528993584e-05,3.474163463579316e-07,-1.1367479601176456e-05,5.1648927183123305e-05
-3.281927638454363e-05,1.6716590835130773e-05,6.883709374960745e-06,-5.3123881116334815e-06,4.8383102694060653e-05
-3.445343827479519e-05,2.0505371139734052e-05,1.4933093552826904e-05,-8.896242320588499e-08,4.785618875757791e-05
-3.785295120906085e-05,3.13345663016662e-05,1.9433176930760965e-05,7.072526386764366e-06,4.680006895796396e-05
-3.9299582567764446e-05,5.087659883429296e-05,2.137703268090263e-05,1.304075794905657e-05,4.605190406437032e-05
-3.851603469229303e-05,7.077060581650585e-05,2.3520304239355028e-05,1.3682468306797091e-05,4.958284989697859e-05
-3.3150929084513336e-05,7.851218833820894e-05,2.4124179617501795e-05,1.1631846973614302e-05,5.684345887857489e-05
-2.4111364837153815e-05,7.212877972051501e-05,2.3573886210215278e-05,9.307798791269306e-06,6.381808634614572e-05
-1.6466130546177737e-05,5.543947554542683e-05,2.5180212105624378e-05,5.91008756600786e-06,6.675157783320174e-05
-1.3883956853533164e-05,3.657392517197877e-05,2.810336991387885e-05,2.6702869604378066e-07,6.647297414019704e-05
-1.5538751540589146e-05,2.326156936760526e-05,2.8220569220138714e-05,-3.983181613875786e-06,6.469851359724998e-05
-1.9060067643295042e-05,1.6131652955664322e-05,2.5282881324528717e-05,-3.559602191671729e-06,6.33495656074956e-05
-1.6705294910934754e-05,1.1275159522483591e-05,2.000459971895907e-05,-2.6062230062962044e-06,6.276938074734062e-05
-3.251020643801894e-06,-3.1890813261270523e-06,1.396796778863063e-05,-3.723978124980931e-06,6.503559416159987e-05
1.0576590284472331e-05,-3.562723213690333e-05,1.171942403743742e-05,-3.6694311802421e-06,6.924965418875217e-05
1.4100608495937195e-05,-6.444242899306118e-05,6.603796009585494e-06,-3.4213355775136733e-06,6.855240644654259e-05
8.282067938125692e-06,-5.251487164059654e-05,-3.028744401945005e-07,-2.7539422262634616e-06,6.447987834690139e-05
-4.8912206693785265e-06,-9.3469370767707e-06,-1.8235323295812123e-06,-4.508212896325858e-06,6.156901508802548e-05
-1.730363874230534e-05,2.8779313652194105e-05,-7.913016588645405e-07,-8.377044650842436e-06,6.091662362450734e-05
-1.6259133190033026e-05,4.197450471110642e-05,1.3225155726104276e-06,-1.1890128917002585e-05,6.247308920137584e-05
-7.5633129199559335e-06,3.36955017701257e-05,2.1642927094944753e-06,-1.3185923307901248e-05,5.9745470935013145e-05
-7.945405741338618e-06,2.830182529578451e-05,-7.54367874833406e-07,-1.2503224752435926e-05,5.294530637911521e-05
-1.5674841051804833e-05,3.574625225155614e-05,-5.631180556520121e-06,-1.33499015646521e-05,4.962893945048563e-05
-2.188116923207417e-05,4.4031516154063866e-05,-9.079657502297778e-06,-1.3365036465984304e-05,5.288719694362953e-05
-2.2708882170263678e-05,4.0528982935938984e-05,-8.041333785513416e-06,-1.1527416063472629e-05,5.7704950449988246e-05
-2.051621413556859e-05,3.110796751570888e-05,-4.182191787549527e-06,-1.106742365664104e-05,6.087449219194241e-05
-1.651351703912951e-05,2.734585177677218e-05,-3.977366759500001e-06,-1.1662596079986542e-05,6.114009011071175e-05
-1.712315861368552e-05,2.868101728381589e-05,-5.7702200138010085e-06,-1.118187174142804e-05,5.6664779549464583e-05
-2.616162055346649e-05,2.581944499979727e-05,-5.887382030778099e-06,-1.1134339729323983e-05,5.05447642353829e-05
-3.908325743395835e-05,1.6490397683810443e-05,-3.2706898309697863e-06,-1.07579671748681e-05,4.6506625949405134e-05
-4.879996777162887e-05,7.5896955422649626e-06,-1.1788265510404017e-06,-9.684107681096066e-06,4.6368862967938185e-05
-4.954360338160768e-05,3.125513558188686e-06,-1.3162297136659618e-06,-8.880577297532e-06,4.8729849368100986e-05
-4.3705058487830684e-05,5.574358056037454e-06,-4.038126007799292e-06,-1.0089523129863665e-05,5.0351380195934325e-05
-3.4577395126689225e-05,2.057636811514385e-05,-7.363441454799613e-06,-1.0700267921492923e-05,5.217683792579919e-05
-2.471049447194673e-05,4.505242395680398e-05,-8.935772711993195e-06,-1.0821761861734558e-05,5.7991182984551415e-05
-1.4525779988616705e-05,5.9280962886987254e-05,-8.591598998464178e-06,-1.41182581501198e-05,6.277643842622638e-05
-9.39333676797105e-06,5.665897697326727e-05,-5.31523937752354e-06,-1.745904955896549e-05,6.176680471980944e-05
-1.35170339490287e-05,5.392207458498888e-05,-4.6936318653933995e-07,-1.9831801182590425e-05,6.0030964959878474e-05
-2.2736941900802776e-05,5.783975575468503e-05,1.2002985840808833e-06,-2.0440909793251194e-05,6.285552080953494e-05
-2.6492727556615137e-05,5.752973083872348e-05,-3.751631311388337e-06,-2.0425370166776702e-05,6.628121627727523e-05
-2.8238240702194162e-05,4.7138517402345315e-05,-8.19982415123377e-06,-2.2583315512747504e-05,6.50577712804079e-05
-2.9405562600004487e-05,3.222225495846942e-05,-8.872184480424039e-06,-2.4297971322084777e-05,6.11260038567707e-05
-2.4734872567933053e-05,2.490681436029263e-05,-5.1585434448497836e-06,-1.9501359929563478e-05,5.75828853470739e-05
-2.2303838704829104e-05,2.9211112632765435e-05,-1.2700111255981028e-06,-1.4280867617344484e-05,5.4207219363888726e-05
-2.2180875021149404e-05,4.0699243982089683e-05,-6.508439582830761e-07,-1.655149389989674e-05,5.42286506970413e-05
-2.1567540898104198e-05,4.592016193782911e-05,-2.501611788829905e-06,-2.0153203877271153e-05,5.530867929337546e-05
-2.496316665201448e-05,4.029993215226568e-05,-2.468033926561475e-06,-2.6868365239351988e-05,5.3344974730862305e-05
-3.256716445321217e-05,4.012433055322617e-05,-1.4249323498916056e-07,-3.2865373214008287e-05,5.376763874664903e-05
-3.355187436682172e-05,4.7589030145900324e-05,3.216937557226629e-06,-3.5453089367365465e-05,5.478165621752851e-05
-1.720375075819902e-05,4.016578895971179e-05,5.202748070587404e-06,-3.490550079732202e-05,5.8243087551090866e-05
-3.9370289073303866e-07,9.23134484764887e-06,4.4113512558396906e-06,-3.226965418434702e-05,6.279523222474381e-05
7.428931212416501e-07,-1.7542712157592177e-05,5.277318450680468e-06,-2.6260659069521353e-05,6.213528104126453e-05
-1.1480704415589571e-05,-1.0974316865031142e-05,6.9028319558128715e-06,-2.0358123947517015e-05,6.0714344726875424e-05
-2.2041482225176878e-05,1.9547727788449265e-05,7.990617632458452e-06,-1.9341981897014193e-05,6.453604146372527e-05
-2.2048199753044173e-05,4.594292477122508e-05,8.916806109482422e-06,-1.926941331475973e-05,7.07818689988926e-05
-1.6964140741038136e-05,5.588599378825165e-05,1.2258520655450411e-05,-1.6099886124720797e-05,7.30185056454502e-05
-1.143282133853063e-05,5.632831380353309e-05,1.5475885447813198e-05,-4.353508302301634e-06,6.952574040042236e-05
-5.445830538519658e-06,5.647374200634658e-05,1.8651886421139352e-05,8.790861102170311e-06,6.263882823986933e-05
9.743461077960092e-07,5.280914410832338e-05,2.3164042431744747e-05,1.835359762480948e-05,5.7594057579990476e-05
5.2449545364652295e-06,4.080889993929304e-05,2.895510260714218e-05,2.3541642804048024e-05,5.5824599257903174e-05
4.371023351268377e-06,2.3027361748972908e-05,3.1280946132028475e-05,2.1855532395420596e-05,5.653225161950104e-05
-1.6690680695319315e-06,1.037949368765112e-05,2.46780582529027e-05,9.92414788925089e-06,5.807859997730702e-05
-1.2591653103299905e-05,9.91223168966826e-06,1.5111447282833979e-05,-2.849972588592209e-06,5.9457401221152395e-05
-3.543499042280018e-05,1.4627887139795348e-05,8.140002137224656e-06,-1.010970663628541e-05,5.905832949792966e-05
-6.494798435596749e-05,1.3848585695086513e-05,1.6648771179461619e-06,-1.595417779753916e-05,5.615809641312808e-05
-8.527268073521554e-05,1.0429988833493553e-05,-5.3517442211159505e-06,-2.0929148377035744e-05,5.4882908443687484e-05
-9.00425438885577e-05,1.0655581718310714e-05,-6.8994154389656615e-06,-2.061462146230042e-05,5.696337757399306e-05
-8.420162339461967e-05,1.6606602002866566e-05,-2.5019685381266754e-06,-1.3837717233400326e-05,5.757242615800351e-05
-7.277035183506086e-05,2.9099588573444635e-05,-2.466194892747353e-08,-8.724904546397738e-06,5.850522211403586e-05
-5.927444726694375e-05,4.006340532214381e-05,3.1690342439105734e-06,-1.1299654943286441e-05,6.0678517911583185e-05
-5.014571797801182e-05,4.441115743247792e-05,9.122714800469112e-06,-1.7399021089659072e-05,6.359508552122861e-05
-4.613554847310297e-05,4.2309628042858094e-05,1.1356794857420027e-05,-2.062612838926725e-05,6.709908484481275e-05
-4.1382972995052114e-05,3.5398788895690814e-05,1.2877464541816153e-05,-1.3898538782086689e-05,6.780391413485631e-05
-3.362982897670008e-05,2.8597047275980003e-05,1.9779732610913925e-05,-3.5758271224040072e-06,6.60680016153492e-05
-2.472182131896261e-05,2.41774305322906e-05,2.9811695640091784e-05,1.7201089121954283e-06,6.81000019540079e-05
-1.98412271856796e-05,2.4829838366713375e-05,3.649119025794789e-05,3.2673247005732264e-06,7.349743827944621e-05
-1.9976952899014577e-05,3.249901419621892e-05,3.840550925815478e-05,7.489496056223288e-06,7.377620204351842e-05
-2.3652855816180818e-05,3.784901127801277e-05,3.576793824322522e-05,1.683783375483472e-05,6.805302837165073e-05
-2.5745612219907343e-05,3.290768654551357e-05,2.8737129468936473e-05,1.989767224586103e-05,5.913725544814952e-05
-2.0450486772460863e-05,2.2157842977321707e-05,2.0158013285254128e-05,1.5856358004384674e-05,5.332360524334945e-05
-6.9712427830381785e-06,1.581797368999105e-05,1.2446118489606306e-05,9.16766202863073e-06,5.3214153012959287e-05
7.658312824787572e-06,1.804968087526504e-05,6.806515102653066e-06,4.05121136282105e-06,5.731666169594973e-05
1.9991732187918387e-05,2.066729030048009e-05,4.0718127820582595e-06,-2.1009850570408162e-07,6.24641397735104e-05
2.4564114937675186e-05,1.6168929505511187e-05,3.6868182178295683e-06,-4.02779869546066e-06,6.570465484401211e-05
1.826299194362946e-05,6.703061444568448e-06,1.6601062498011743e-06,-1.0452276001160499e-05,6.628758274018764e-05
1.9512792732712114e-06,-1.853954358921328e-06,-3.539428234944353e-06,-1.7452179235988297e-05,6.537442823173478e-05
-1.7213955288752913e-05,-7.435655788867734e-06,-8.352220902452245e-06,-2.0145285816397518e-05,6.285439303610474e-05
-2.7399020837037824e-05,-7.895117050793488e-06,-1.0004527212004177e-05,-1.9925464584957808e-05,6.15450699115172e-05
-2.3554694053018466e-05,-1.1982842806901317e-06,-8.579561836086214e-06,-2.1598534658551216e-05,6.245962140383199e-05
-1.6123856767080724e-05,7.087555331963813e-06,-8.011088539205957e-06,-2.425711863907054e-05,6.121062324382365e-05
-1.5830933989491314e-05,1.585520112712402e-05,-6.636230864387471e-06,-2.3448028514394537e-05,5.8630106650525704e-05
-2.1187981474213302e-05,2.3281363610294648e-05,-2.021031377807958e-06,-2.117854637617711e-05,5.718266038456932e-05
-3.222721352358349e-05,2.187958853028249e-05,7.455563491021167e-07,-2.0753743228851818e-05,5.620186129817739e-05
-3.932456820621155e-05,1.977311694645323e-05,-2.333000111320871e-06,-2.332933399884496e-05,5.603417957900092e-05
-3.664631367428228e-05,2.598350511107128e-05,-7.329737400141312e-06,-2.6944733690470457e-05,5.7230172387789935e-05
-3.18627935484983e-05,3.071392347919755e-05,-8.99858059710823e-06,-2.803559800668154e-05,5.9425190556794405e-05
-3.421358997002244e-05,2.467507147230208e-05,-9.113779924518894e-06,-2.254008904856164e-05,6.175680027808994e-05
-3.654389001894742e-05,1.7029833543347195e-05,-9.027250598592218e-06,-1.596403308212757e-05,6.0674639826174825e-05
-3.549547545844689e-05,2.367590059293434e-05,-4.303341484046541e-06,-1.3893023606215138e-05,5.7869143347488716e-05
-3.130828554276377e-05,3.567021485650912e-05,4.505470315052662e-06,-1.3020591723034158e-05,5.5191940191434696e-05
-3.081740578636527e-05,3.8839552871650085e-05,7.337014267250197e-06,-9.94501169770956e-06,5.2654089813586324e-05
-3.712773468578234e-05,3.6996036214986816e-05,2.3078755475580692e-06,-7.22890808901866e-06,5.283995778881945e-05
-3.86803803849034e-05,3.787449168157764e-05,-4.946531589666847e-06,-8.263928975793533e-06,5.536575918085873e-05
-3.4877622965723276e-05,4.4808824895881116e-05,-6.577106432814617e-06,-1.0081518666993361e-05,5.60661283088848e-05
-3.2327450753655285e-05,4.520287984632887e-05,-3.0127339414320886e-06,-1.1544989320100285e-05,5.867852451046929e-05
-3.2681167795090005e-05,3.897959686582908e-05,6.002914574310125e-07,-1.372257884213468e-05,6.1011895013507456e-05
-3.470500814728439e-05,3.5715591366169974e-05,2.2892766082804883e-06,-1.2745292224281002e-05,5.76913334953133e-05
-3.647398261819035e-05,3.846911931759678e-05,1.4236937886380474e-06,-9.694288564787712e-06,5.282947313389741e-05
-3.3553569664945826e-05,4.2669675167417154e-05,-2.475528390277759e-06,-9.460432920604944e-06,4.856405212194659e-05
-2.4511637093382888e-05,4.1950966988224536e-05,-8.042586159717757e-06,-1.2603766663232818e-05,4.590904791257344e-05
-1.3579419828602113e-05,3.668735007522628e-05,-8.392506970267277e-06,-1.411100402037846e-05,4.681783320847899e-05
-5.829950168845244e-06,3.172210563207045e-05,-3.5510101952240802e-06,-1.1387099220883101e-05,4.961213198839687e-05
-5.614609563053818e-06,3.1273328204406425e-05,8.844162948662415e-07,-5.173696990823373e-06,5.009411688661203e-05
-1.204207455884898e-05,3.213413219782524e-05,2.4139985725923907e-06,-6.89841158418858e-07,5.0040205678669736e-05
-1.6888274330995046e-05,3.435985490796156e-05,3.697116426337743e-06,-1.3970698091725353e-06,5.3268657211447135e-05
-1.8668091797735542e-05,3.813728835666552e-05,5.601109023700701e-06,-5.740584128943738e-06,5.7045803259825334e-05
-2.08131896215491e-05,3.8816811866126955e-05,8.92096522875363e-06,-1.1042381629522424e-05,5.673093255609274e-05
-2.3396309188683517e-05,3.3279950002906844e-05,1.168404287454905e-05,-1.4218000615073834e-05,5.3793461120221764e-05
-2.7564028641791083e-05,2.825699993991293e-05,1.1217875908187125e-05,-1.390395664202515e-05,5.157426494406536e-05
-2.9696033379877917e-05,3.1867006327956915e-05,8.238208465627395e-06,-1.2532141226984095e-05,5.1434974011499435e-05
-2.5651976102381013e-05,4.756498310598545e-05,7.304675364139257e-06,-4.532836101134308e-06,5.544401574297808e-05
-2.2457013983512297e-05,6.288370786933228e-05,1.1133251973660663e-05,1.0739722711150534e-05,5.654117921949364e-05
-2.2205555069376715e-05,5.8309262385591865e-05,1.289924966840772e-05,2.0723728084703907e-05,5.503867942024954e-05
-2.6138126486330293e-05,4.305404218030162e-05,1.2638258340302855e-05,2.8404041586327367e-05,5.5676464398857206e-05
-3.022393684659619e-05,4.1365208744537085e-05,1.4235394701245241e-05,3.569087493815459e-05,5.295049777487293e-05
-3.195218232576735e-05,4.514841202762909e-05,1.8269345673616044e-05,3.701330570038408e-05,4.566558345686644e-05
-3.697884676512331e-05,4.266068935976364e-05,1.824250830395613e-05,3.322691554785706e-05,3.8098682125564665e-05
-3.865550388582051e-05,4.0277314838021994e-05,9.890661203826312e-06,2.2361757146427408e-05,3.898153590853326e-05
-3.4708977182162926e-05,3.8554309867322445e-05,3.089355914198677e-06,5.217083071329398e-06,4.263247683411464e-05
-2.762194344541058e-05,3.5328848753124475e-05,4.833555067307316e-07,-1.4866971469018608e-05,4.3957690650131553e-05
-1.955133120645769e-05,2.7531197702046484e-05,3.7690506360377185e-07,-4.164286292507313e-05,4.52170534117613e-05
-1.1151922080898657e-05,1.348569549008971e-05,2.3723785034235334e-06,-6.470624066423625e-05,4.671183705795556e-05
-6.1264086070877966e-06,1.6768299246905372e-06,5.501015948539134e-06,-6.734194175805897e-05,4.811650433111936e-05
-1.16603168862639e-05,-2.5709812234708806e-06,1.0402531188447028e-05,-6.237962952582166e-05,5.287792737362906e-05
-2.2543406885233708e-05,-6.598619961550867e-07,1.3146168384992052e-05,-6.178411422297359e-05,6.11274444963783e-05
-3.0616392905358225e-05,7.032557277852902e-06,1.1778820407926105e-05,-5.81141903239768e-05,6.93095862516202e-05
-3.489165101200342e-05,1.748179056448862e-05,1.0419713362352923e-05,-5.13463128299918e-05,7.516606274293736e-05
-3.604231096687727e-05,2.7347912691766396e-05,1.1784590242314152e-05,-4.536697088042274e-05,7.815269054844975e-05
-3.52617098542396e-05,3.5698089050129056e-05,1.3452126950141974e-05,-4.055875979247503e-05,8.158542914316058e-05
-3.910071973223239e-05,3.761816697078757e-05,1.1527501555974595e-05,-3.547877713572234e-05,8.726385567570105e-05
-4.901721331407316e-05,2.8123531592427753e-05,7.853697752580047e-06,-3.062825635424815e-05,9.162589412881061e-05
-5.538319601328112e-05,1.8368378732702695e-05,5.432978468888905e-06,-2.506918099243194e-05,8.992879884317517e-05
-5.263169441604987e-05,2.1260986613924615e-05,2.6823445296031423e-06,-1.9929919290007092e-05,8.390223229071125e-05
-4.7469718992942944e-05,3.466086491243914e-05,1.0715923508541891e-06,-1.3839799066772684e-05,7.583873230032623e-05
-4.578614971251227e-05,4.497935515246354e-05,1.3845351531927008e-06,-6.679503712803125e-06,6.807529280195013e-05
-4.683947190642357e-05,4.5028984459349886e-05,1.7798239468902466e-06,-8.518152299075155e-07,6.231279257917777e-05
-4.829141835216433e-05,4.227845056448132e-05,2.28599424190179e-06,2.09980976251245e-06,6.088980080676265e-05
-5.0980270316358656e-05,4.5830773160560057e-05,2.1846385607204866e-06,1.903348163523333e-07,6.113253766670823e-05
-5.294887887430377e-05,4.959053694619797e-05,1.9675097462368285e-07,-3.573180038074497e-06,5.910474283155054e-05
-5.2181534556439146e-05,4.415061994222924e-05,-4.7648617851336894e-07,-1.0036527783086058e-05,5.033193519921042e-05
-4.559202352538705e-05,2.478220994817093e-05,-1.3685913700101082e-06,-1.6507910913787782e-05,4.276637264410965e-05
-2.9191420253482647e-05,5.8958744375559036e-06,-3.595330781536177e-06,-1.5643261576769873e-05,4.251874997862615e-05
-1.1170027391926851e-05,6.981718343013199e-06,-6.898497304064222e-06,-9.658579983806703e-06,4.1136569052468985e-05
2.9927307423349703e-06,2.047307134489529e-05,-7.094105058058631e-06,-1.1981460374954622e-05,4.160689786658622e-05
8.126390639517922e-06,3.413892045500688e-05,-2.751450210780604e-06,-2.562748341006227e-05,4.734059257316403e-05
-1.2273308129806537e-06,3.522496626828797e-05,-1.5473674466193188e-06,-4.0457482100464404e-05,5.2857547416351736e-05
-1.759485348884482e-05,2.8422206014511175e-05,-2.4238745481852675e-06,-4.792890831595287e-05,5.618357681669295e-05
-3.231338632758707e-05,2.100731035170611e-05,-5.6950038924696855e-06,-4.975375850335695e-05,5.775534009444527e-05
-4.1022176446858793e-05,1.5290381270460784e-05,-1.0612241567287128e-05,-5.111585051054135e-05,6.0545007727341726e-05
-4.0522751078242436e-05,1.7752903659129515e-05,-1.3265767847769894e-05,-5.09022684127558e-05,6.432017107727006e-05
-2.5348983399453573e-05,2.194749322370626e-05,-1.1370924767106771e-05,-4.511755105340853e-05,6.892548844916746e-05
-2.7148580556968227e-06,2.258566746604629e-05,-8.328956937475596e-06,-3.304686106275767e-05,7.208305760286748e-05
1.133813839260256e-05,1.943225106515456e-05,-4.511846327659441e-06,-2.095094896503724e-05,7.184709829743952e-05
8.432124559476506e-06,1.7273543562623672e-05,1.34537822304992e-06,-1.0407870831841137e-05,6.789435428800061e-05
-4.807037385035073e-06,1.654257175687235e-05,9.369938197778538e-06,1.659136046328058e-06,6.107258377596736e-05
-1.5744666598038748e-05,1.6676274753990583e-05,2.0925854187225923e-05,1.937260640261229e-05,5.507557943928987e-05
-1.8795888536260463e-05,1.318052272836212e-05,3.451555676292628e-05,3.850569555652328e-05,5.074798536952585e-05
-1.6644424249534495e-05,7.5792859206558205e-06,4.7660829295637086e-05,5.3317606216296554e-05,4.901024658465758e-05
-1.439042534912005e-05,1.0493987247173209e-05,5.61579545319546e-05,6.31124567007646e-05,5.106145908939652e-05
-1.3943904377811123e-05,1.895050263556186e-05,6.038143692421727e-05,6.745156133547425e-05,5.542467988561839e-05
-1.549114858789835e-05,2.192658939748071e-05,6.290194869507104e-05,6.390397902578115e-05,5.9554844483500347e-05
-1.2181039892311674e-05,2.254675746371504e-05,6.52311064186506e-05,5.3141753596719354e-05,6.418945122277364e-05
-7.0841488195583224e-06,2.6177218387601897e-05,6.51611844659783e-05,4.229365731589496e-05,6.819178815931082e-05
-1.3869706890545785e-05,2.8180373192299157e-05,5.867948857485317e-05,3.336236841278151e-05,6.943851622054353e-05
-3.9437669329345226e-05,2.997543560923077e-05,4.403406637720764e-05,2.5594921680749394e-05,6.369623588398099e-05
-7.023997022770345e-05,3.3241496566915885e-05,2.9403530788840726e-05,1.8582310076453723e-05,5.3676827519666404e-05
-8.101316052488983e-05,3.230227957828902e-05,2.0926474462612532e-05,1.3379286428971682e-05,4.6881683374522254e-05
-6.956297147553414e-05,2.722560202528257e-05,1.492683804826811e-05,8.82046515471302e-06,4.934430035063997e-05
-5.146309922565706e-05,2.848515214282088e-05,1.1529083167260978e-05,2.7823032269225223e-06,5.5845273891463876e-05
-3.4676941140787676e-05,3.6100780562264845e-05,1.115754548663972e-05,-3.4620177302713273e-06,6.168618710944429e-05
-2.3751215849188156e-05,3.358494723215699e-05,8.486935257678851e-06,-9.250254151993431e-06,6.424920866265893e-05
-1.921651892189402e-05,1.660967245697975e-05,5.970408892608248e-06,-1.268320374947507e-05,6.142033089417964e-05
-1.9307126422063448e-05,1.6544609593438508e-07,6.014662176312413e-06,-1.0235170520900283e-05,5.530675480258651e-05
-2.064767795673106e-05,-5.860738383489661e-06,3.7702602639910765e-06,-8.366157089767512e-06,5.187624628888443e-05
-2.4566501451772638e-05,3.774385049837292e-06,-2.572411972323607e-07,-1.1110608284070622e-05,5.535133823286742e-05
-3.0669558327645063e-05,2.5663835913292132e-05,-1.4766285971745674e-07,-1.3712418876821175e-05,5.752050128648989e-05
-3.518175799399614e-05,4.43986791651696e-05,3.1115255296754185e-06,-1.4452802133746445e-05,5.545618842006661e-05
-4.3065458157798275e-05,4.986662679584697e-05,2.147468649127404e-06,-1.3519069398171268e-05,5.101496208226308e-05
-5.1673599955393e-05,4.70703853352461e-05,-1.7613705267649493e-06,-1.0682679203455336e-05,5.007533764000982e-05
-5.190212687011808e-05,4.577202344080433e-05,-4.181881649856223e-06,-9.818095350055955e-06,5.387757846619934e-05
-4.290877404855564e-05,4.9655493057798594e-05,-4.396841177367605e-06,-1.527474887552671e-05,6.039298386895098e-05
-3.695040140883066e-05,5.7469020248390734e-05,-2.7931901058764197e-06,-2.4548520741518587e-05,6.422716251108795e-05
-4.216714296489954e-05,6.627039692830294e-05,-1.1746279824365047e-06,-3.121881672996096e-05,6.369214679580182e-05
-5.5566273658769205e-05,6.896005652379245e-05,-2.3520892682427075e-06,-3.095870852121152e-05,6.28554989816621e-05
-6.61443336866796e-05,6.457964627770707e-05,-5.995065293973312e-06,-2.7787453291239217e-05,6.334033241728321e-05
-6.514825508929789e-05,6.364113505696878e-05,-1.232609156431863e-05,-2.8732991268043406e-05,6.182938523124903e-05
-5.695475920219906e-05,6.742011464666575e-05,-1.968300603039097e-05,-3.2822656066855416e-05,5.585188409895636e-05
-4.475769674172625e-05,6.950545503059402e-05,-2.0654359104810283e-05,-3.291908069513738e-05,5.0627179007278755e-05
-2.5692108465591446e-05,7.318938878597692e-05,-1.5448986232513562e-05,-2.9118904421920888e-05,5.0877395551651716e-05
-4.907807124254759e-06,7.86640084697865e-05,-1.2175273695902433e-05,-2.4398670575465076e-05,5.430752571555786e-05
9.272616807720624e-06,7.181946421042085e-05,-1.0204903446719982e-05,-1.8350609025219455e-05,5.462085027829744e-05
1.5784651623107493e-05,5.1527527830330655e-05,-5.781385880254675e-06,-1.4517994713969529e-05,5.41314366273582e-05
1.6816456991364248e-05,3.536963413353078e-05,-4.996618372388184e-06,-1.4449505215452518e-05,5.9643836721079424e-05
9.582634447724558e-06,2.6729316232376732e-05,-9.43021586863324e-06,-1.5669409549445845e-05,6.26510227448307e-05
-4.102780621906277e-06,1.767465982993599e-05,-1.1722759154508822e-05,-1.9890923795173876e-05,5.820017395308241e-05
-8.598480235377792e-06,7.464308509952389e-06,-5.132165370014263e-06,-2.069696711259894e-05,5.9343194152461365e-05
6.793199531784921e-07,3.1705656056146836e-06,4.138274107390316e-06,-1.46390966619947e-05,6.749432941433042e-05
1.6589196093264036e-05,8.495515544382215e-07,1.0783700417960063e-05,-1.245901239599334e-05,7.42005868232809e-05
2.6767611416289583e-05,-1.3843527085555252e-05,1.3225592738308478e-05,-1.8414069927530363e-05,7.407322846120223e-05
2.396899799350649e-05,-3.136117447866127e-05,8.118408914015163e-06,-2.66499919234775e-05,7.309788634302095e-05
1.1456909305707086e-05,-3.078435838688165e-05,3.0371486445801565e-06,-2.777133158815559e-05,7.104747783159837e-05
-5.603407316812081e-06,-1.3941355973656755e-05,4.910574347150032e-08,-2.4008673790376633e-05,6.190364365465939e-05
-2.5145029212580994e-05,2.167623961213394e-06,1.49007249206079e-07,-2.2220936443773098e-05,4.961350714438595e-05
-3.8755191781092435e-05,1.366296419291757e-05,-1.592868784427992e-06,-2.161556767532602e-05,4.482650547288358e-05
-4.089852518518455e-05,2.5980669306591153e-05,-3.507052952045342e-06,-2.1096797354402952e-05,4.7266985347960144e-05
-3.969284443883225e-05,3.8446571124950424e-05,1.6070066521933768e-07,-2.288393079652451e-05,5.191931268200278e-05
-3.965056748711504e-05,4.745124897453934e-05,7.190330507000908e-06,-2.4055732865235768e-05,5.397606946644373e-05
-4.233026993460953e-05,4.688935950980522e-05,1.2031929145450704e-05,-2.1527552235056646e-05,5.329684790922329e-05
-4.3545904190978035e-05,3.9386759453918785e-05,1.1076367627538275e-05,-1.8645774616743438e-05,5.345610043150373e-05
-4.105770494788885e-05,3.337597081554122e-05,7.276332326000556e-06,-1.5198193068499677e-05,5.2913801482645795e-05
-3.7734582292614505e-05,2.865869646484498e-05,4.61848594568437e-06,-9.422748917131685e-06,5.317449904396199e-05
-3.5110355383949354e-05,2.0800076526938938e-05,4.027310296805808e-06,-5.0681555876508355e-06,5.623437391477637e-05
-3.000201832037419e-05,1.2330637218838092e-05,3.511059503580327e-06,-3.790021310123848e-06,6.25361644779332e-05
-2.2851823814562522e-05,9.893649803416338e-06,3.373294475750299e-06,-3.605173560572439e-06,6.832240615040064e-05
-1.6308478734572418e-05,1.4386625480256043e-05,3.2469154120917665e-06,-3.472699063422624e-06,7.215199002530426e-05
-1.187898396892706e-05,2.0729306925204583e-05,4.330148385633947e-06,-2.7019352728530066e-06,7.203578570624813e-05
-1.1415776498324703e-05,2.2832609829492867e-05,4.441754299477907e-06,-4.549341610982083e-06,6.534286512760445e-05
-1.6632753613521345e-05,2.0291072360123508e-05,3.842455498670461e-06,-9.524723282083869e-06,5.6394645071122795e-05
-2.2596186681766994e-05,1.2503535799623933e-05,-1.7991019376495387e-06,-1.9878500097547658e-05,5.161641092854552e-05
-2.2052203348721378e-05,3.1200061130221e-06,-1.0129238035005983e-05,-3.297391231171787e-05,4.809742313227616e-05
-2.1623794964398257e-05,4.400109219204751e-07,-1.252037054655375e-05,-3.75112758774776e-05,4.6361594286281615e-05
-1.6816824427223764e-05,7.760013431834523e-06,-8.313052603625692e-06,-3.3894302760018036e-05,4.773683758685365e-05
-9.371604392072186e-06,1.4801973520661704e-05,-6.11617087997729e-06,-2.7485311875352636e-05,5.154449536348693e-05
-1.0898661457758863e-05,1.4339840163302142e-05,-6.376620149239898e-06,-2.4367776859435253e-05,5.443399277282879e-05
-1.653794606681913e-05,1.3197663975006435e-05,-5.28313648828771e-06,-2.399750883341767e-05,5.3736683184979483e-05
-1.6675476217642426e-05,1.2629117918550037e-05,-4.285340764909051e-06,-1.6594032786088064e-05,5.249112655292265e-05
-1.3454793588607572e-05,1.210527443618048e-05,-1.8119012565875892e-06,-5.5018595048750285e-06,5.497876554727554e-05
-1.4153878510114737e-05,1.704552778392099e-05,-2.2558042473974638e-06,2.5597682906663977e-06,5.8095622080145404e-05
-1.9075023374170996e-05,2.840235538315028e-05,-2.1289999949658522e-06,8.2560636656126e-06,5.9127727581653744e-05
-2.707768726395443e-05,3.62930259143468e-05,3.91123194276588e-06,1.5511608580709435e-05,5.828539724461734e-05
-3.335147266625427e-05,3.344242213643156e-05,9.186362149193883e-06,2.1484494936885312e-05,5.6288870837306604e-05
-3.643817763077095e-05,3.0934126698412e-05,8.682670340931509e-06,2.515564119676128e-05,5.381691153161228e-05
-3.581850614864379e-05,3.701419700519182e-05,6.053086963220267e-06,2.4538776415283792e-05,5.2047700592083856e-05
-3.4963897633133456e-05,4.336285564932041e-05,3.0273156426119385e-06,1.6471576600451954e-05,5.3938638302497566e-05
-3.2484600524185225e-05,4.549536242848262e-05,2.597468665044289e-06,4.325910595071036e-06,5.6185519497375935e-05
-2.8091984859202057e-05,5.0197031669085845e-05,6.713513357681222e-06,-5.7729516811377835e-06,5.719527689507231e-05
-2.661340477061458e-05,6.192758883116767e-05,1.3645347280544229e-05,-1.014373901853105e-05,5.809616777696647e-05
-2.9093311241012998e-05,6.476848648162559e-05,1.8640528651303612e-05,-1.1138815352751408e-05,6.164448132039979e-05
-3.126653245999478e-05,4.376960714580491e-05,1.8733982869889587e-05,-1.0806858881551307e-05,6.384000880643725e-05
-3.0876628443365917e-05,1.5852401702431962e-05,1.6046265955083072e-05,-1.1258565791649744e-05,6.25697648501955e-05
-2.8544980523292907e-05,5.743137535318965e-06,1.3880551705369726e-05,-1.4225884115148801e-05,6.055615085642785e-05
-2.3064032575348392e-05,1.0636228580551688e-05,1.2076796338078566e-05,-1.7341386410407722e-05,6.212297012098134e-05
-2.127106381522026e-05,1.4937143532733899e-05,9.580451660440303e-06,-1.2771957699442282e-05,6.597534957109019e-05
-2.3328972019953653e-05,1.3442483577819075e-05,7.335941972996807e-06,-3.0390783649636433e-06,6.868533819215372e-05
-2.7970980227109976e-05,1.1710116268659476e-05,6.274583483900642e-06,8.820736184134148e-06,6.890294753247872e-05
-3.2599258702248335e-05,1.215213069372112e-05,1.0416287295811344e-05,1.8938577341032214e-05,6.595116428798065e-05
-3.350201586727053e-05,1.271415749215521e-05,1.5366669686045498e-05,2.3466203856514767e-05,6.22505322098732e-05
-2.924657383118756e-05,1.7472350009484217e-05,1.706895636743866e-05,2.289477015438024e-05,5.9793292166432366e-05
-1.8754264601739123e-05,2.9882630769861862e-05,1.945978328876663e-05,1.2394511941238306e-05,6.144572398625314e-05
-5.348154445528053e-06,4.396856820676476e-05,1.844188773247879e-05,2.765422095762915e-06,6.286946154432371e-05
1.4379855883817072e-06,4.8878006055019796e-05,1.41277487273328e-05,-5.660571787302615e-06,6.13343800068833e-05
-5.132282240083441e-06,4.298278872738592e-05,9.149087418336421e-06,-2.17397519008955e-05,5.8716981584439054e-05
-1.702240842860192e-05,3.557275340426713e-05,-1.5240568984609126e-07,-4.589853415382095e-05,5.615794361801818e-05
-3.0343097023433074e-05,2.7122592655359767e-05,-1.444416557205841e-05,-7.02789839124307e-05,5.2890984079567716e-05
-4.227486715535633e-05,1.5932066162349656e-05,-2.7608701202552766e-05,-6.911796663189307e-05,4.7412690037162974e-05
-3.949903475586325e-05,1.4056276995688677e-05,-2.9057440769975074e-05,-4.286972762201913e-05,4.846636511501856e-05
-2.3592254365212284e-05,2.2876900402479805e-05,-2.0377858163556084e-05,-1.2181478268757928e-05,5.9035282902186736e-05
-9.788311217562295e-06,2.6853513190872036e-05,-1.1007840839738492e-05,6.937803391338093e-06,7.280271529452875e-05
-7.64487685955828e-06,1.8696846382226795e-05,-7.757110324746463e-06,1.5574625649605878e-05,8.115742821246386e-05
-1.4828998246230185e-05,8.4190915004001e-06,-9.010328540171031e-06,2.059736470982898e-05,7.716029358562082e-05
-2.2032185370335355e-05,-6.448696581173863e-07,-1.4844509678368922e-05,2.8383812605170533e-05,6.609306001337245e-05
-2.4104640033328906e-05,-1.0185161045228597e-05,-1.9221255570300855e-05,3.9129161450546235e-05,5.551369395107031e-05
-2.469588980602566e-05,-1.2379307008814067e-05,-1.7584949091542512e-05,4.160014577792026e-05,4.9384823796572164e-05
-3.201049912604503e-05,4.893785785498039e-07,-1.3276837307785172e-05,2.7894899176317267e-05,4.961974627804011e-05
-4.4315082050161436e-05,2.1778905647806823e-05,-1.0220243893854786e-05,3.0898718250682577e-06,5.533076182473451e-05
-5.1224185881437734e-05,3.8026930269552395e-05,-7.165941951825516e-06,-1.7602480511413887e-05,5.954950029263273e-05
-4.873285797657445e-05,4.412011548993178e-05,-1.3570993360190187e-06,-2.8695270884782076e-05,5.936035086051561e-05
-4.252008875482716e-05,4.915019599138759e-05,4.796097982762149e-06,-3.457427374087274e-05,5.778227205155417e-05
-3.374227526364848e-05,5.553649316425435e-05,8.859428817231674e-06,-4.4261920265853405e-05,6.0023245168849826e-05
-2.2783940949011594e-05,5.2713043260155246e-05,1.0734068382589612e-05,-5.330979547579773e-05,6.690651207463816e-05
-1.6320362192345783e-05,4.320888911024667e-05,1.3244003639556468e-05,-4.810138125321828e-05,7.136483327485621e-05
-1.8548844309407286e-05,4.2444647988304496e-05,1.3838680388289504e-05,-3.1800056603970006e-05,7.244474545586854e-05
-2.9741971957264468e-05,5.508015237865038e-05,1.0018651664722711e-05,-1.9234268620493822e-05,7.245141750900075e-05
-4.323649045545608e-05,6.698530341964215e-05,1.3968854091217509e-06,-1.4116451893642079e-05,6.835193926235661e-05
-4.3667154386639595e-05,5.9151680034119636e-05,-3.063009216930368e-06,-1.7203372408403084e-05,6.36011827737093e-05
-2.3387783585349098e-05,1.8843255020328797e-05,-1.5566176898573758e-06,-2.2025948055670597e-05,6.274419138208032e-05
-2.6493107725400478e-06,-2.000999666051939e-05,1.3323593748282292e-06,-1.8397044186713174e-05,6.61170925013721e-05
7.121366252249572e-07,-1.987324867513962e-05,5.845819032401778e-06,-1.0983474567183293e-05,6.644302629865706e-05
-6.969607511564391e-06,1.1423596333770547e-05,1.167715890915133e-05,-7.536473731306614e-06,6.175271846586838e-05
-1.0938078048639e-05,4.768543294630945e-05,1.227229859068757e-05,-5.507004971150309e-06,6.12970907241106e-05
-9.213133125740569e-06,6.731876783305779e-05,9.58466171141481e-06,-6.797979494876927e-06,6.478007708210498e-05
-6.961111012060428e-06,7.231567724375054e-05,9.55840187089052e-06,-1.1587180779315531e-05,6.506923818960786e-05
-9.473244062974118e-06,6.966397631913424e-05,9.3149265012471e-06,-1.4033108527655713e-05,5.993880040477961e-05
-1.9479992261040024e-05,6.874810060253367e-05,8.819523827696685e-06,-1.2615483683475759e-05,5.561236685025506e-05
-2.7045171009376645e-05,7.224684668472037e-05,1.1238909792155027e-05,-1.0706135981308762e-05,5.468339440994896e-05
-3.2148960599442944e-05,7.211729098344222e-05,1.430354495823849e-05,-9.763400157680735e-06,5.661457180394791e-05
-3.670927617349662e-05,7.087830454111099e-05,1.2497750503825955e-05,-8.113466719805729e-06,5.786133260698989e-05
-3.921875395462848e-05,6.917654536664486e-05,6.378740636137081e-06,-7.924048077256884e-06,5.829453220940195e-05
-3.9979098801268265e-05,6.02361214987468e-05,3.5305076835356886e-06,-1.0430634574731812e-05,5.701383270206861e-05
-3.784431464737281e-05,4.3322605051798746e-05,8.89521834324114e-06,-1.3654661415785085e-05,5.366580808185972e-05
-3.2980497053358704e-05,3.198649574187584e-05,1.6468138710479252e-05,-1.1474556231405586e-05,5.166888877283782e-05
-2.6891251764027402e-05,3.056402056245133e-05,1.9525623429217376e-05,-4.8267111196764745e-06,5.4526601161342114e-05
-1.9831632016575895e-05,3.0310819056467153e-05,1.940384754561819e-05,-1.2340270814092946e-06,5.8888130297418684e-05
-1.4592900697607547e-05,3.16933001158759e-05,2.2669933969154954e-05,-3.4869310638896422e-06,6.078997103031725e-05
-1.4238028597901575e-05,4.3457115680212155e-05,2.541310641390737e-05,-7.842858394724317e-06,5.923616481595673e-05
-1.6270232663373463e-05,6.269787263590842e-05,1.8615342924022116e-05,-1.161676937044831e-05,5.655907079926692e-05
-1.898890877782833e-05,7.49208265915513e-05,8.472850822727196e-06,-1.0900135748670436e-05,5.550477726501413e-05
-2.1947696950519457e-05,7.033823931124061e-05,7.002407073741779e-06,-4.705208993982524e-06,5.317959585227072e-05
-2.3722532205283642e-05,4.899734631180763e-05,1.2026845979562495e-05,1.8026122816650059e-09,5.443542977445759e-05
-2.322456202819012e-05,2.049683826044202e-05,1.6226722436840646e-05,3.2516803116777737e-07,5.7168326748069376e-05
-2.304252120666206e-05,1.0183799759033718e-06,1.680914283497259e-05,-3.370226750121219e-06,5.528658221010119e-05
-2.6385992896393873e-05,6.703224642023997e-08,1.8639637346495874e-05,-1.3946892067906447e-05,4.985706618754193e-05
-3.242350067012012e-05,1.4962679415475577e-05,1.9264269212726504e-05,-2.4709717763471417e-05,4.518886635196395e-05
-4.076887489645742e-05,3.133032441837713e-05,1.6477069948450662e-05,-2.2534351955982856e-05,4.231238199281506e-05
-4.71606181235984e-05,4.446845196071081e-05,1.4373536032508127e-05,-1.3555013538280036e-05,4.337858626968227e-05
-5.023970516049303e-05,5.139262430020608e-05,1.371184680465376e-05,-1.0330045370210428e-05,4.789998638443649e-05
-5.180530570214614e-05,3.766472582356073e-05,1.5108420484466478e-05,-1.0604878298181575e-05,4.907165202894248e-05
-5.1283677748870105e-05,1.5745923519716598e-05,1.6145422705449164e-05,-1.0521096555748954e-05,4.7266210458474234e-05
-4.9244659749092534e-05,4.054387318319641e-06,1.4988282600825187e-05,-1.0376633326814044e-05,4.748194623971358e-05
-4.4730095396516845e-05,6.978314104344463e-06,1.2989725291845389e-05,-1.2553528904390987e-05,4.942045052303001e-05
-4.1874962334986776e-05,1.3497887266566977e-05,1.3728458725381643e-05,-1.231425630976446e-05,5.163352034287527e-05
-3.7819041608599946e-05,1.3713142834603786e-05,1.4008210200699978e-05,-6.989801931922557e-06,5.511225390364416e-05
-2.695283546927385e-05,7.245645520015387e-06,1.418302781530656e-05,-3.815221589320572e-06,6.0399193898774683e-05
-1.2414740012900438e-05,1.4224749378399792e-08,1.3005386790609919e-05,-5.889938165637432e-06,6.644867244176567e-05
-5.219944341661176e-06,3.164331374705398e-08,1.084156974684447e-05,-8.956136298365891e-06,6.930942618055269e-05
-1.2161933227616828e-05,9.89367163128918e-06,9.067989594768733e-06,-8.888727279554587e-06,6.829661288065836e-05
-2.6743116904981434e-05,2.1528090655920096e-05,1.0687869689718354e-05,-8.033940503082704e-06,6.68283537379466e-05
-3.233522875234485e-05,2.5399411242688075e-05,1.5639681805623695e-05,-8.251594408648089e-06,6.754172500222921e-05
-2.4502061933162622e-05,2.1549609300564043e-05,2.1949737856630236e-05,-1.0159553312405478e-05,6.961498729651794e-05
-1.5456278561032377e-05,1.591797627042979e-05,2.7112047973787412e-05,-1.1180392903042957e-05,7.035356247797608e-05
-1.5482572052860633e-05,1.4028096302354243e-05,2.740684612945188e-05,-1.0917128747678362e-05,6.765041325706989e-05
-2.028420021815691e-05,1.398293625243241e-05,2.5216988433385268e-05,-9.594933544576634e-06,6.320786633295938e-05
-1.750537376210559e-05,1.3509557902580127e-05,2.6377692847745493e-05,-8.615723345428705e-06,5.981508729746565e-05
-6.044980182196014e-06,1.4040629139344674e-05,3.1901319744065404e-05,-7.242745141411433e-06,5.750489071942866e-05
-1.4443052123169764e-06,1.545259146951139e-05,3.267859574407339e-05,-1.3838039194524754e-06,5.451238030218519e-05
-1.3455908629111946e-05,1.7267677321797237e-05,2.8850450689787976e-05,4.73101044917712e-06,5.0281305448152125e-05
-2.8237447622814216e-05,2.4648194084875286e-05,2.3537548258900642e-05,4.677856850321405e-06,5.0145168643211946e-05
-3.40282276738435e-05,2.976256473630201e-05,1.8216171156382188e-05,1.4979385696278769e-06,5.3329426009440795e-05
-3.0368244551937096e-05,2.8419410227797925e-05,1.680100103840232e-05,-2.5309659577033017e-06,5.1854214689228684e-05
-2.5152985472232103e-05,3.0018354664207436e-05,1.6245383449131623e-05,-9.757210136740468e-06,4.606474612955935e-05
-3.397723048692569e-05,3.9846163417678326e-05,1.2065458577126265e-05,-1.3168923032935709e-05,4.143160185776651e-05
-5.3449235565494746e-05,5.3290361393010244e-05,8.432723006990273e-06,-1.027518192131538e-05,4.2056006350321695e-05
-6.65364132146351e-05,5.511568087968044e-05,5.88933698963956e-06,-9.518340448266827e-06,4.809899837709963e-05
-6.493282853625715e-05,4.1067331039812416e-05,6.252539606066421e-06,-1.334670014330186e-05,5.163119931239635e-05
-5.015625720261596e-05,2.526175376260653e-05,7.3339842856512405e-06,-2.4491391741321422e-05,5.150663128006272e-05
-3.234014002373442e-05,2.6658575734472834e-05,6.003150247124722e-06,-3.294614361948334e-05,5.1813996833516285e-05
-1.3019834113947581e-05,4.5461420086212456e-05,2.2698554857925046e-06,-3.014055073435884e-05,5.376760600483976e-05
2.344336280657444e-06,5.793354648631066e-05,7.533459438491263e-07,-2.8543772714328952e-05,5.8880646975012496e-05
1.088063891074853e-05,5.19682107551489e-05,2.056812945738784e-06,-3.025863043149002e-05,6.908384966664016e-05
1.0725429092417471e-05,3.432666926528327e-05,3.4066717944369884e-06,-3.218814526917413e-05,8.294897270388901e-05
-7.169305717980023e-07,1.7279526218771935e-05,4.216658453515265e-06,-2.9969987735967152e-05,9.450866491533816e-05
-2.108175067405682e-05,4.122759946767474e-06,5.003665137337521e-06,-2.5088089387281798e-05,9.875236719381064e-05
-3.88415101042483e-05,-1.6903873074625153e-06,4.511041424848372e-06,-2.1478505004779436e-05,9.489720832789317e-05
-4.5676100853597745e-05,-1.732782720864634e-06,2.633178382893675e-06,-1.7493668565293774e-05,8.518878894392401e-05
-4.154729322181083e-05,-5.360371702067823e-09,2.513540948712034e-06,-1.1086123777204193e-05,7.365249621216208e-05
-3.720114546013065e-05,-5.689321938007197e-07,4.5024444261798635e-06,-3.990301138401264e-06,6.619920168304816e-05
-4.303062814869918e-05,-8.909893040254246e-06,6.722851594531676e-06,2.568773425082327e-07,6.273651524679735e-05
-5.03262308484409e-05,-2.4631377527839504e-05,6.540076356031932e-06,-7.43734105412841e-08,6.0887756262673065e-05
-5.125928146298975e-05,-3.068407022510655e-05,4.587743660522392e-06,-2.1613968783640303e-06,6.033519093762152e-05
-5.114964005770162e-05,-1.527334279671777e-05,3.463865368757979e-06,-5.694344054063549e-06,6.0666410718113184e-05
-5.498070822795853e-05,1.1554872116903425e-06,3.4374531878711423e-06,-9.647824299463537e-06,5.9085894463350996e-05
-5.1476527005434036e-05,-4.114053353987401e-06,-7.520059739363205e-07,-9.287774446420372e-06,5.6703604059293866e-05
-3.756823207368143e-05,-2.6787425667862408e-05,-3.4832057735911803e-06,-8.150786925398279e-06,5.546442116610706e-05
-2.1415420633275062e-05,-3.621958239818923e-05,-2.1456544345710427e-06,-5.985879852232756e-06,5.137812331668101e-05
-5.8866462495643646e-06,-2.7743639293476008e-05,-4.3630711843434256e-06,-3.391032578292652e-06,4.6592736907768995e-05
9.424587005923968e-06,-4.550789071799954e-06,-7.4840954766841605e-06,-1.767805088093155e-06,4.765481935464777e-05
2.27231539611239e-05,2.601099549792707e-05,-5.2922732720617205e-06,-4.474036359169986e-06,5.3760573791805655e-05
2.754781598923728e-05,3.9694969018455595e-05,-4.263239588908618e-06,-7.722296686552e-06,5.629177758237347e-05
1.826285370043479e-05,4.881829227088019e-05,-2.613095375636476e-06,-6.563150691363262e-06,5.7407050917390734e-05
9.568200766807422e-06,5.799195423605852e-05,1.062636414417284e-07,-5.804152351629455e-06,6.154752190923318e-05
1.2443625564628746e-05,5.706740921596065e-05,7.642133255103545e-07,-4.235523192619439e-06,6.508091610157862e-05
1.5126127436815295e-05,4.691834328696132e-05,-1.697198854344606e-06,-7.168952151914709e-07,6.501456664409488e-05
7.882958925620187e-06,3.713039041031152e-05,-7.417964752676198e-06,1.6018833548514522e-06,6.06198918831069e-05
2.1994612779963063e-06,4.018393883598037e-05,-1.2325861462159082e-05,8.373022808427777e-08,5.601247539743781e-05
-5.715510837944748e-07,4.719008938991465e-05,-1.7331347407889552e-05,-3.7846152736165095e-06,5.176341801416129e-05
-7.5832767834072e-06,5.566387335420586e-05,-2.0340939954621717e-05,-7.1546182880410925e-06,5.0169463065685704e-05
-1.754184631863609e-05,5.727821189793758e-05,-2.0076317014172673e-05,-8.80672268976923e-06,4.9627760745352134e-05
-2.226043216069229e-05,5.4290379921440035e-05,-1.636200067878235e-05,-1.0055297934741247e-05,5.2088831580476835e-05
-1.6472618881380185e-05,5.242285260464996e-05,-1.356516258965712e-05,-1.320470983046107e-05,5.588662315858528e-05
-5.54560301679885e-06,5.0186710723210126e-05,-1.5697161870775744e-05,-1.4968465620768256e-05,5.897682785871439e-05
1.9100077679468086e-06,4.713762245955877e-05,-1.7292242773692124e-05,-1.2667805094679352e-05,6.0873058828292415e-05
3.1281299470720114e-06,4.49428080173675e-05,-1.2819606126868166e-05,-8.838289431878366e-06,5.820675505674444e-05
-9.499532325207838e-07,4.434068614500575e-05,-7.132926384656457e-06,-6.762270004401216e-06,5.234930358710699e-05
-1.0742540325736627e-05,4.278837877791375e-05,-7.385148819594178e-06,-8.693538802617695e-06,4.6239805669756606e-05
-1.9160332158207893e-05,3.824256418738514e-05,-1.1041003745049238e-05,-1.3504753951565363e-05,4.4520118535729125e-05
-2.1888188712182455e-05,3.203209053026512e-05,-1.0549063517828472e-05,-1.4427290807361715e-05,4.768666622112505e-05
-2.52990830631461e-05,2.3804072043276392e-05,-6.070918516343227e-06,-9.127268640440889e-06,5.392776438384317e-05
-3.377785469638184e-05,1.2588722711370792e-05,-4.214289219817147e-06,7.807887527633284e-07,5.971691643935628e-05
-3.952228507841937e-05,6.2053459259914234e-06,-5.00682972415234e-06,1.3782881069346331e-05,6.407566252164543e-05
-3.8367761590052396e-05,7.758030733384658e-06,-4.856047780776862e-06,2.4337794457096606e-05,6.446749466704205e-05
-3.394929808564484e-05,2.1325080524547957e-05,-1.1151203125336906e-06,3.183477747370489e-05,6.200528878252953e-05
-2.9500013624783605e-05,4.0556988096795976e-05,2.47609818870842e-06,4.1157385567203164e-05,6.122008198872209e-05
-2.7083413442596793e-05,5.2212471928214654e-05,4.427810836205026e-06,4.389429523143917e-05,6.130048859631643e-05
-1.8092707250616513e-05,5.681180482497439e-05,4.641125997295603e-06,3.7642603274434805e-05,6.293805199675262e-05
-8.42599092720775e-06,5.90091513004154e-05,2.1980758901918307e-06,3.3889489714056253e-05,6.38720957795158e-05
-1.209700985782547e-05,5.50290169485379e-05,1.1409384796934319e-06,2.200872404500842e-05,5.6983120884979144e-05
-2.8074968213331886e-05,6.945867789909244e-05,9.729232033350854e-07,6.54005248179601e-07,5.1895716751459986e-05
-5.299494296195917e-05,9.886301995720714e-05,2.74273770628497e-06,-3.0945255275582895e-05,5.482411143020727e-05
-7.374636334134266e-05,0.00011241129686823115,5.643030362989521e-06,-5.764114757766947e-05,5.828078792546876e-05
-8.09096745797433e-05,0.00010243373253615573,8.67649941937998e-06,-5.0677266699494794e-05,5.598419738817029e-05
-6.832418876001611e-05,7.732089579803869e-05,1.3299357306095771e-05,-3.148201358271763e-05,5.281825360725634e-05
-5.1839851948898286e-05,5.649375088978559e-05,1.5658735719625838e-05,-2.934238364105113e-05,5.5303786211879924e-05
-4.7143221308942884e-05,4.4175445509608835e-05,1.1666290447465144e-05,-4.6728782763238996e-05,6.103811756474897e-05
-5.649204831570387e-05,3.0465133022516966e-05,7.841961632948369e-06,-6.248764111660421e-05,6.350675539579242e-05
-6.656800542259589e-05,5.929230155743426e-06,1.0724324056354817e-05,-6.680992373730987e-05,5.998009874019772e-05
-6.28151829005219e-05,-1.7277998267672956e-05,1.4718807506142184e-05,-6.22962397756055e-05,5.606999548035674e-05
-4.673935836763121e-05,-2.5162527890643105e-05,1.4300969269243069e-05,-5.579551725531928e-05,5.643191616400145e-05
-3.027634920726996e-05,-2.216482062067371e-05,1.1185987204953562e-05,-5.091638377052732e-05,5.5667707783868536e-05
-2.401541314611677e-05,-2.077688623103313e-05,9.311122084909584e-06,-4.6002573071746156e-05,5.30264551343862e-05
-2.891485382860992e-05,-2.0388431948958896e-05,1.0442762686579954e-05,-4.2737257899716496e-05,5.518346370081417e-05
-4.12084991694428e-05,-1.1781023204093799e-05,1.2862255971413106e-05,-4.102103412151337e-05,6.051427772035822e-05
-5.172791497898288e-05,4.166559392615454e-06,1.1826452464447357e-05,-3.7457106373040006e-05,6.436274270527065e-05
-5.660862734657712e-05,1.0401794497738592e-05,8.823233656585217e-06,-2.5497505703242496e-05,6.241876690182835e-05
-5.538183540920727e-05,-1.8180820688940003e-06,8.021685061976314e-06,-1.0756118172139395e-05,5.703377610188909e-05
-5.207692811382003e-05,-2.1582241970463656e-05,9.40611062105745e-06,-2.2393310246116016e-06,5.385644908528775e-05
-4.613267446984537e-05,-3.601588832680136e-05,1.1143332812935114e-05,-1.8820511513695237e-06,5.562027217820287e-05
-4.068589987582527e-05,-3.5140790714649484e-05,1.0001179362006951e-05,-2.2981621441431344e-06,5.837128992425278e-05
-3.398063563508913e-05,-1.3717150068259798e-05,5.817060355184367e-06,-3.534588017828355e-07,5.8502700994722545e-05
-2.3385740860248916e-05,1.0146713066205848e-05,3.5332557217770955e-06,6.471161668741843e-06,5.583951497101225e-05
-1.2989134120289236e-05,1.1258908671152312e-05,6.013565325702075e-06,1.9388757209526375e-05,5.282872371026315e-05
-1.9978171621914953e-05,4.795555923919892e-06,1.329176393483067e-05,2.830372795870062e-05,5.115666499477811e-05
-4.273215381545015e-05,1.927469202200882e-05,1.72738145920448e-05,2.3749798856442794e-05,4.9538772145751864e-05
-5.3576728532789275e-05,4.9816146201919764e-05,1.5821506167412736e-05,8.891367542673834e-06,4.950734000885859e-05
-4.844419163418934e-05,7.686249591642991e-05,1.3535023754229769e-05,-3.256305944887572e-06,4.904626257484779e-05
-4.410240944707766e-05,9.53751296037808e-05,9.747593139763921e-06,-5.77371929466608e-06,4.773801629198715e-05
-4.444131627678871e-05,0.00010117117199115455,5.740094820794184e-06,-6.491552085208241e-06,4.822603295906447e-05
-4.7097513743210584e-05,0.0001000437987386249,1.6158032849489246e-06,-9.504031368123833e-06,4.876289676758461e-05
-5.2618652262026444e-05,9.379756374983117e-05,1.0959286100842291e-06,-1.3203348316892516e-05,4.928513226332143e-05
-5.4458374506793916e-05,8.392623567488045e-05,3.21115931001259e-06,-1.7597769328858703e-05,5.295529990689829e-05
-5.2365357987582684e-05,7.921293581603095e-05,2.525952595533454e-06,-2.1459720301209018e-05,5.64378933631815e-05
-4.8504512960789725e-05,8.685198554303497e-05,-5.884482590090556e-08,-2.0737485101562925e-05,5.438051448436454e-05
-3.903053220710717e-05,0.00010970033326884732,7.697302635278902e-07,-1.2827184036723338e-05,5.530496491701342e-05
-2.0379180568852462e-05,0.0001332226675003767,1.0433391253172886e-06,-4.852752681472339e-06,6.128823588369414e-05
3.2686286886018934e-06,0.00012650118151213974,-1.6490361076648696e-06,-2.8499232485046377e-06,6.555959407705814e-05
2.2171025193529204e-05,6.558344466611743e-05,-2.8173021746624727e-06,-5.737350875278935e-06,6.37990960967727e-05
3.430404103710316e-05,-2.5357183403684758e-05,-3.6120843560638605e-07,-8.706614607945085e-06,6.0364152886904776e-05
4.230569538776763e-05,-8.551710925530642e-05,2.591943712104694e-06,-1.0592916623863857e-05,6.262403621803969e-05
5.044703357270919e-05,-8.001576497917995e-05,3.201329263902153e-06,-1.046550187311368e-05,6.915017729625106e-05
5.9118206991115585e-05,-4.1503244574414566e-05,2.383518449278199e-06,-8.552246072213165e-06,7.249939517350867e-05
6.309346645139158e-05,-1.8592474589240737e-05,1.9120129763905425e-06,-6.604302143387031e-06,6.886145274620503e-05
5.496120866155252e-05,-1.7813672457123175e-05,2.779961278065457e-06,-5.552055881707929e-06,6.350495095830411e-05
3.7509045796468854e-05,-1.8163484128308482e-05,5.548471563088242e-06,-7.2265015660377685e-06,6.0073871281929314e-05
1.689358032308519e-05,-2.0909019440296106e-05,9.036243682203349e-06,-9.22139315662207e-06,5.809607318951748e-05
-4.039990926685277e-06,-2.4960992959677242e-05,7.280568752321415e-06,-1.0621326509863138e-05,5.697086817235686e-05
-1.856695416790899e-05,-9.201812645187601e-06,2.425940010652994e-06,-1.4805306818743702e-05,5.423887705546804e-05
-2.2003150661475956e-05,2.0524948922684416e-05,-6.996579600127006e-07,-1.7009941075230017e-05,4.9058988224714994e-05
-1.8548555090092123e-05,3.508956069708802e-05,-1.5827160950721009e-06,-1.6904345102375373e-05,4.5231779949972406e-05
-2.1257974367472343e-05,3.132422352791764e-05,1.686226028141391e-06,-2.074896838166751e-05,4.419565084390342e-05
-2.7830634280689992e-05,2.4420591216767207e-05,3.4628831144800643e-06,-1.9831139070447534e-05,4.413528222357854e-05
-2.99475941574201e-05,1.847421663114801e-05,-1.0909907359746285e-06,-1.4632175407314207e-05,4.7045425162650645e-05
-2.589426912891213e-05,1.3540186046157032e-05,-3.3749540762073593e-06,-1.018343391478993e-05,5.0560680392663926e-05
-2.4499897335772403e-05,1.2072036952304188e-05,6.740016260664561e-07,-7.941383046272676e-06,4.904572051600553e-05
-3.23849635606166e-05,1.878758666862268e-05,6.14437522017397e-06,-7.591177109134151e-06,4.818093293579295e-05
-3.822014696197584e-05,3.0046552637941204e-05,8.312785212183371e-06,-4.77750791105791e-06,5.0669084885157645e-05
-4.044657907797955e-05,4.073589661857113e-05,1.1576426004467066e-05,-1.7059699075616663e-06,5.7182001910405234e-05
-4.5362161472439766e-05,4.414764407556504e-05,1.4848957107460592e-05,-5.419047397481336e-07,6.097280129324645e-05
-4.485019962885417e-05,4.26733422500547e-05,1.713562051008921e-05,-5.015825081500225e-06,5.6533994211349636e-05
-3.828950866591185e-05,3.986412048107013e-05,1.8537948562880047e-05,-8.534074368071742e-06,5.105734817334451e-05
-3.469149305601604e-05,3.4538392355898395e-05,1.810575668059755e-05,-5.262581453280291e-06,5.365073957364075e-05
-3.527175431372598e-05,3.2088140869745985e-05,1.456854533898877e-05,-1.959139126483933e-06,5.891372711630538e-05
-3.5415912861935794e-05,3.5939101508120075e-05,1.0069851668959018e-05,-5.195950961933704e-06,6.111088441684842e-05
-3.497834404697642e-05,4.2771211155923083e-05,7.8555203799624e-06,-7.447805728588719e-06,6.298298831097782e-05
-3.280711462139152e-05,4.8910518671618775e-05,7.186405127868056e-06,-3.731140395757393e-06,6.467500497819856e-05
-3.079213638557121e-05,5.468104427563958e-05,6.667338311672211e-06,3.8105245181441205e-08,6.477732677012682e-05
-3.4303237043786794e-05,5.4793556046206504e-05,6.411824870156124e-06,-6.492878696917614e-07,6.157383904792368e-05
-4.022803113912232e-05,4.699050623457879e-05,8.186900231521577e-06,-7.996476597327273e-06,5.839344521518797e-05
-4.4706452172249556e-05,3.903074684785679e-05,9.157675776805263e-06,-1.924524076457601e-05,5.628510916722007e-05
-5.038010567659512e-05,3.7968351534800604e-05,1.0899078006332275e-05,-2.4493465389241464e-05,5.471069016493857e-05
-5.6643686548341066e-05,4.342508327681571e-05,1.3287175534060225e-05,-1.924882053572219e-05,5.680720278178342e-05
-5.671788676409051e-05,4.8227037041215226e-05,1.4901877875672653e-05,-1.4503507372864988e-05,6.263448449317366e-05
-4.928045746055432e-05,4.2239651520503685e-05,1.544347651361022e-05,-1.4114193618297577e-05,6.84812621329911e-05
-3.676253982121125e-05,2.9654751415364444e-05,1.3666266568179708e-05,-1.1864834959851578e-05,7.231193740153685e-05
-2.3367381800198928e-05,2.4717410269659013e-05,1.0206455954175908e-05,-4.012707449874142e-06,7.333971734624356e-05
-1.6748288544476964e-05,2.6498550141695887e-05,1.307950969930971e-05,3.1243916964740492e-06,7.33516935724765e-05
-1.767813773767557e-05,1.8508031644159928e-05,2.0657109416788444e-05,1.264821776203462e-06,7.275874668266624e-05
-1.927089579112362e-05,4.324314431869425e-06,2.2126194380689412e-05,-5.089670594315976e-06,7.042360812192783e-05
-1.9046690795221366e-05,-7.579341740893142e-07,1.568519655847922e-05,-1.264250840904424e-05,6.678087811451405e-05
-1.6853335182531737e-05,6.055966537132917e-07,8.81351934367558e-06,-1.5739226000732742e-05,6.796740490244702e-05
-1.8564145648269914e-05,6.510233561130008e-06,3.617415131884627e-06,-6.977093107707333e-06,7.433597784256563e-05
-2.985673927469179e-05,1.3578092875832226e-05,-1.2087328968846123e-06,6.525780918309465e-06,7.944719982333481e-05
-4.540434019872919e-05,1.67404577950947e-05,-3.7978852560627274e-06,1.566831451782491e-05,7.59308531996794e-05
-5.591738590737805e-05,2.0728493836941198e-05,-4.823388735530898e-06,1.466475168854231e-05,6.859171116957441e-05
-6.23327141511254e-05,2.8154167011962272e-05,-4.640598490368575e-06,6.809972092014505e-06,6.20042483205907e-05
-7.013251888565719e-05,3.846910476568155e-05,-1.8372529666521586e-06,-5.260930720396573e-06,5.708200842491351e-05
-7.711510988883674e-05,4.660014747059904e-05,1.7401426930518937e-06,-1.895128116302658e-05,5.454077836475335e-05
-7.406856457237154e-05,4.67451500298921e-05,9.580826372257434e-07,-2.730942469497677e-05,5.443501868285239e-05
-5.932087515247986e-05,4.049117342219688e-05,-3.597615659600706e-06,-2.6485678972676396e-05,5.6354019761784e-05
-4.03505218855571e-05,3.2910906156757846e-05,-5.325572146830382e-06,-2.30272544285981e-05,5.5714732297929004e-05
-2.416118331893813e-05,2.706135273911059e-05,6.473997586908808e-07,-2.3493361368309706e-05,5.359393617254682e-05
-1.4143456610327121e-05,2.3732225599815138e-05,1.0415918950457126e-05,-2.4641007257741876e-05,5.215467172092758e-05
-8.485546459269244e-06,2.3836706532165408e-05,1.5583442291244864e-05,-2.6455898478161544e-05,5.468590461532585e-05
-1.5258403607276705e-07,2.3736860384815373e-05,1.392544527334394e-05,-3.046232450287789e-05,5.873902409803122e-05
9.626296559872571e-06,2.3433178284903988e-05,1.0187453881371766e-05,-2.99934054055484e-05,6.217223562998697e-05
1.2778406926372554e-05,2.8318081604084e-05,1.0102982741955202e-05,-2.0184814275125973e-05,6.535821739817038e-05
7.533005828008754e-06,3.764973735087551e-05,1.37208444357384e-05,-7.94706375017995e-06,6.953362753847614e-05
-3.700356273839134e-06,4.574575723381713e-05,1.5667112165829167e-05,1.291240778300562e-06,7.006044324953109e-05
-1.1043145605071913e-05,4.9918369768420234e-05,1.4406961781787686e-05,4.765892754221568e-06,6.578741886187345e-05
-8.060837899392936e-06,5.080760092823766e-05,1.072850682248827e-05,4.6727063818252645e-07,6.177488103276119e-05
-3.3896903914865106e-06,4.804772470379248e-05,9.717672583064996e-06,-5.486919235409005e-06,5.7782268413575366e-05
-1.3727270015806425e-05,4.3781525164376944e-05,1.2167857676104177e-05,-5.461677119455999e-06,4.94699488626793e-05
-3.623983866418712e-05,4.382373663247563e-05,1.014845838653855e-05,-7.789522896928247e-06,4.2692154238466173e-05
-5.087183308205567e-05,4.4688717025564983e-05,9.95274240267463e-06,-1.3498563930625096e-05,3.885136902681552e-05
-5.205017077969387e-05,4.101157173863612e-05,1.4112020835455041e-05,-1.6480065823998302e-05,3.639446367742494e-05
-4.6342305722646415e-05,4.4886557589052245e-05,1.2434578820830211e-05,-1.507000342826359e-05,4.053633165312931e-05
-4.363580956123769e-05,5.151281220605597e-05,6.773116183467209e-06,-1.2541297110146843e-05,4.4909862481290475e-05
-4.505705874180421e-05,4.325157351559028e-05,3.508220061121392e-06,-2.3296650397242047e-05,4.702447768067941e-05
-4.38889728684444e-05,2.9697113859583624e-05,6.649125339208695e-07,-3.815268792095594e-05,4.7588466259185225e-05
-4.2512387153692544e-05,1.5046824955788907e-05,-1.9081635400652885e-06,-3.7348327168729156e-05,5.01272406836506e-05
-4.3823954911204055e-05,-1.632253088246216e-06,-2.0693444184871623e-06,-2.7991391107207164e-05,5.3725809266325086e-05
-3.949075471609831e-05,-1.305063869949663e-05,-6.372829943757097e-07,-2.047453381237574e-05,5.994896491756663e-05
-2.550579301896505e-05,-1.6513427908648737e-05,2.752370278358285e-07,-1.7053262126864865e-05,7.092975283740088e-05
-1.6091405996121466e-05,-1.8432865545037203e-05,-1.744042606333096e-06,-2.155462425434962e-05,8.263936615549028e-05
-1.9614373741205782e-05,-1.7978969481191598e-05,-4.361232186056441e-06,-2.9775868824799545e-05,8.987334149423987e-05
-2.7132378818350844e-05,-7.100384664227022e-06,-4.799057023774367e-06,-3.1273055355995893e-05,8.748032996663824e-05
-2.5672836272860877e-05,1.2671386684814934e-05,1.1133688531117514e-06,-2.059095277218148e-05,8.118305413518101e-05
-1.6690562915755436e-05,2.310151103301905e-05,9.445935575058684e-06,-2.0976137875550194e-06,7.59956383262761e-05
-9.114313797908835e-06,1.7359450794174336e-05,1.2943281035404652e-05,1.2438562407623976e-05,7.290777284651995e-05
-5.7750985433813184e-06,1.5194304069154896e-05,1.2790257642336655e-05,1.9672133930725977e-05,6.895904516568407e-05
-5.863173100806307e-06,2.5660501705715433e-05,1.2189461813250091e-05,2.263090391352307e-05,6.35085380054079e-05
-6.967490662646014e-06,3.723278859979473e-05,1.032966156344628e-05,2.3512317056884058e-05,5.956085806246847e-05
-7.760280823276844e-06,4.157401781412773e-05,8.292719030578155e-06,2.2325421014102176e-05,5.796977347927168e-05
-5.19650802743854e-06,4.078526399098337e-05,9.079229130293243e-06,1.7939330064109527e-05,5.6806893553584814e-05
2.8744324254148523e-07,3.848817868856713e-05,1.0603303053358104e-05,5.415393388830125e-06,5.421236710390076e-05
2.056115363302524e-06,4.280232678866014e-05,9.866433174465783e-06,-1.7796308384276927e-05,5.070488259661943e-05
-3.6337694382382324e-06,5.7875575294019654e-05,5.8234345488017425e-06,-4.985920895705931e-05,4.840449764742516e-05
-1.246303872903809e-05,8.022302790777758e-05,-3.8841986338411516e-07,-6.709411536576226e-05,4.962904131389223e-05
-1.84355831152061e-05,9.507313370704651e-05,-5.3553849284071475e-06,-4.922735024592839e-05,4.933112359140068e-05
-2.5658169761300087e-05,9.494015830568969e-05,-4.132496087549953e-06,-2.4497552658431232e-05,4.407217784319073e-05
-3.8167079765116796e-05,9.12325267563574e-05,1.5580789067826117e-06,-1.4563587683369406e-05,4.1251852962886915e-05
-3.800536796916276e-05,8.832692401483655e-05,3.789160700762295e-06,-1.929585232574027e-05,4.686358442995697e-05
-1.8485709006199613e-05,7.280372665263712e-05,4.3450595512695145e-06,-2.5781922886380926e-05,5.350114588509314e-05
7.446730592164386e-07,4.6561988710891455e-05,6.4576847762509715e-06,-2.7384881832404062e-05,5.612453605863266e-05
1.517056489319657e-06,2.6478541258256882e-05,4.510223789111478e-06,-2.6857158445636742e-05,5.742653229390271e-05
-1.7158579794340767e-05,1.7518621461931616e-05,6.343843779177405e-07,-2.2591333618038334e-05,5.473073906614445e-05
-2.8770004064426757e-05,1.7169926650240086e-05,-1.948337455814908e-07,-1.82750682142796e-05,5.3286181355360895e-05
-2.349303031223826e-05,2.4151084289769642e-05,3.705300059664296e-06,-1.1460745554359164e-05,5.864449485670775e-05
-1.2827264981751796e-05,3.250406007282436e-05,9.776436854735948e-06,-3.0193893962859875e-06,6.575226143468171e-05
-2.7169376153324265e-06,2.9399101549643092e-05,1.4273806300479919e-05,5.1035585784120485e-06,6.898481660755351e-05
2.497040441085119e-06,1.1384601748432033e-05,1.402500674885232e-05,1.2140629223722499e-05,7.072608423186466e-05
2.7059704734710976e-06,-1.7292991287831683e-06,9.403086551174056e-06,1.957173844857607e-05,7.414365973090753e-05
-9.358921033708612e-07,1.1741984735635924e-06,5.302940280671464e-06,2.9829347113263793e-05,7.633511995663866e-05
-5.890138254471822e-06,6.21172057435615e-06,2.0229501842550235e-06,3.9496913814218715e-05,7.627750164829195e-05
-6.244972155400319e-06,4.673330749938032e-06,-1.1968373883064487e-06,4.003926369477995e-05,7.431096310028806e-05
-2.1382743398135062e-06,3.3671387882350245e-06,-3.395617568457965e-06,2.8546191970235668e-05,7.17628063284792e-05
-4.597796305461088e-06,5.102226623421302e-06,-4.8306965254596435e-06,1.1680634088406805e-05,6.80842058500275e-05
-1.56449677888304e-05,1.0950568139378447e-05,-7.3699202403076924e-06,-3.5886694149667164e-06,6.195492460392416e-05
-2.7874864827026613e-05,2.2227743102121167e-05,-9.83680092758732e-06,-1.2075493032170925e-05,5.8143992646364495e-05
-3.4175933251390234e-05,2.79892556136474e-05,-9.594076800567564e-06,-1.5865509340073913e-05,5.733504076488316e-05
-3.542720514815301e-05,1.9383165636099875e-05,-5.824398613185622e-06,-1.8543278201832436e-05,5.502186104422435e-05
-3.912390457116999e-05,3.169561978211277e-06,3.1654078469500746e-08,-1.849799809860997e-05,5.201373642194085e-05
-4.601628097589128e-05,-5.359420924833103e-07,4.830549187317956e-06,-1.36647231556708e-05,4.936598634230904e-05
-4.944668398820795e-05,1.2717037861875724e-05,6.429763288906543e-06,-8.673453521623742e-06,4.9151014536619186e-05
-5.404216790338978e-05,2.235413558082655e-05,4.6476811803586315e-06,-7.439596174663166e-06,5.0274276873096824e-05
-6.045207555871457e-05,2.3069338567438535e-05,2.019350858972757e-06,-1.0307780939911027e-05,5.0999897212022915e-05
-5.9779518778668717e-05,2.0746201698784716e-05,4.192653705104021e-06,-1.142047858593287e-05,5.4173822718439624e-05
-5.021055767429061e-05,1.877002250694204e-05,9.438176675757859e-06,-1.0219436262559611e-05,6.0344202211126685e-05
-4.3295247451169416e-05,2.3307427909458056e-05,1.0265675882692449e-05,-1.0280214155500289e-05,6.665420369245112e-05
-4.3779749830719084e-05,2.730968117248267e-05,8.298783541249577e-06,-1.0447775821376126e-05,6.605667294934392e-05
-4.427517342264764e-05,2.3943375708768144e-05,5.700725523638539e-06,-1.2717621757474262e-05,5.941694325883873e-05
-4.214958244119771e-05,2.0887664504698478e-05,2.1156238290132023e-06,-1.4875999113428406e-05,5.6813732953742146e-05
-3.8395370211219415e-05,2.2483647626359016e-05,5.7092830019200846e-08,-1.6032303392421454e-05,5.612288077827543e-05
-3.606774771469645e-05,2.1382889826782048e-05,-3.582850922612124e-07,-1.1382550837879535e-05,5.3374318667920306e-05
-3.9087768527679145e-05,2.122060141118709e-05,1.3825305131831556e-06,-5.663016509060981e-06,4.90373931825161e-05
-4.498370617511682e-05,2.0710944227175787e-05,3.693464805110125e-06,-6.902898803673452e-06,4.761177842738107e-05
-4.1482569940853864e-05,1.6238811440416612e-05,3.1917111300572287e-06,-1.0378288607171271e-05,4.9458714784123003e-05
-3.5320856113685295e-05,8.013957085495349e-06,1.3383782970777247e-07,-1.2351775694696698e-05,5.361044895835221e-05
-2.652101102285087e-05,4.8007123041315936e-06,-3.0969740691944025e-06,-1.3234302059572656e-05,5.788485213997774e-05
-1.4152181393001229e-05,9.331284672953188e-06,-6.42701752440189e-06,-1.189617432828527e-05,5.839051300426945e-05
-2.9563741463789484e-06,1.3297199075168464e-05,-8.902845365810208e-06,-6.103579835325945e-06,5.836494528921321e-05
1.0055236998596229e-06,1.455581332265865e-05,-5.724848506361013e-06,4.3433868768261163e-07,5.9058114857180044e-05
-5.858846634509973e-06,1.8240714780404232e-05,2.1667258351953933e-06,3.1843865144765005e-06,5.871621397091076e-05
-1.6685782611602917e-05,2.6026260457001626e-05,8.320301276398823e-06,3.085048319917405e-06,5.8441932196728885e-05
-2.6129380785278045e-05,3.256649142713286e-05,9.010081157612149e-06,3.624184500949923e-06,5.945819793851115e-05
-3.442290471866727e-05,3.6984740290790796e-05,5.655432232742896e-06,2.3361992873560666e-07,6.06935063842684e-05
-4.268810880603269e-05,4.1572584450477734e-05,1.032993054650433e-06,-6.095188382460037e-06,6.15665121586062e-05
-4.8872465413296595e-05,4.594110214384273e-05,1.0143502322534914e-06,-7.870302397350315e-06,6.238481000764295e-05
-5.0372469559079036e-05,4.300049477024004e-05,6.9041216192999855e-06,-5.849324224982411e-06,6.343000859487802e-05
-4.7980061935959384e-05,3.742939588846639e-05,1.4982849279476795e-05,-6.433300768549088e-06,6.392243813024834e-05
-5.135592073202133e-05,3.6319161154096946e-05,1.9272596546215937e-05,-1.127019822888542e-05,6.419987039407715e-05
-5.366100594983436e-05,3.880111034959555e-05,1.5855759556870908e-05,-1.5784375136718154e-05,6.318703526630998e-05
-4.6926063077989966e-05,4.405419895192608e-05,1.5040205653349403e-05,-1.7440506780985743e-05,6.131415284471586e-05
-3.739414023584686e-05,5.0458056648494676e-05,1.9215742213418707e-05,-1.8089620425598696e-05,5.5614535085624084e-05
-3.53759023710154e-05,5.3188152378425e-05,1.9689457985805348e-05,-1.7302831111010164e-05,5.256195436231792e-05
-3.355159060447477e-05,5.436189894680865e-05,1.098909524444025e-05,-1.3367906831263099e-05,5.6424043577862903e-05
-2.2870686734677292e-05,5.1444807468215004e-05,4.966900633007754e-06,-1.2667607734329067e-05,6.170484994072467e-05
-1.510800575488247e-05,4.9040998419513926e-05,2.5959113827411784e-06,-1.6738460544729605e-05,6.267562275752425e-05
-1.920577597047668e-05,4.69730184704531e-05,-5.412176051322604e-06,-1.5881183571764268e-05,6.076780118746683e-05
-2.8968397600692697e-05,4.209216058370657e-05,-8.394550604862161e-06,-8.938861356000416e-06,6.207282422110438e-05
-3.500730235828087e-05,4.203074058750644e-05,-7.121690941858105e-06,-1.6850534620971303e-06,6.204204692039639e-05
-3.220204962417483e-05,4.022256689495407e-05,-6.2839662859914824e-06,-3.96353607357014e-06,5.8454301324673e-05
-2.7557816792977974e-05,2.6756191800814122e-05,-7.0452806539833546e-06,-1.5116012946236879e-05,5.6806027714628726e-05
-2.678792407095898e-05,1.4704218301631045e-05,-7.205391284514917e-06,-2.2997553969617002e-05,5.6968208809848875e-05
-2.502065217413474e-05,1.935207546921447e-05,-5.383248662838014e-06,-2.3805429009371437e-05,5.7217061112169176e-05
-2.052844865829684e-05,3.279410884715617e-05,-7.750601866973739e-07,-2.0153727746219374e-05,5.880754179088399e-05
-1.9869412426487543e-05,4.1000395867740735e-05,4.6715690587006975e-06,-1.7055252101272345e-05,6.168056279420853e-05
-2.5876001018332317e-05,3.772648051381111e-05,7.872359674365725e-06,-1.6626063370495103e-05,6.332190241664648e-05
-3.2587460736976936e-05,2.9354361686273478e-05,1.0785393897094764e-05,-1.684660674072802e-05,5.963230432826094e-05
-3.527133594616316e-05,2.3648392016184516e-05,1.2451750080799684e-05,-1.4700571227876935e-05,5.283509744913317e-05
-3.393253791728057e-05,2.1246049072942697e-05,1.0387124348198995e-05,-1.3803663023281842e-05,5.0046299293171614e-05
-2.7148558729095384e-05,1.6889272956177592e-05,7.39544520911295e-06,-1.41709933814127e-05,5.193453034735285e-05
-1.3227559065853711e-05,9.956250323739368e-06,7.001639914960833e-06,-1.1535227713466156e-05,5.314522059052251e-05
-1.5970455251590465e-06,5.2057703214813955e-06,6.111088168836432e-06,-2.6994373456545873e-06,5.294946822687052e-05
-6.120812940935139e-07,2.0704649159597466e-06,6.511257197416853e-06,8.823495591059327e-06,5.3637533710571006e-05
-4.843292572331848e-06,-2.601655353373644e-07,8.445614184893202e-06,1.3470242265611887e-05,5.534356751013547e-05
-4.87661782244686e-06,2.4442715584882535e-06,9.064357072929852e-06,6.025861239322694e-06,5.6614302593516186e-05
-3.421539531700546e-06,4.4356957005220465e-06,6.898118044773582e-06,-4.333224751462694e-06,5.640955350827426e-05
-5.241111466602888e-06,-2.086282165691955e-06,4.999060820409795e-06,-6.876326096971752e-06,5.3514933824772015e-05
-4.468923179956619e-06,-7.100145012373105e-06,9.561762453813571e-06,-2.097242713716696e-06,5.213054100750014e-05
7.142769504753232e-07,1.4119285651759128e-06,1.7990803826251067e-05,1.7980270285988809e-06,5.4444539273390546e-05
-3.3355458981532138e-06,1.037530728353886e-05,2.0878869690932333e-05,2.1535374798986595e-06,5.667511504725553e-05
-1.7955093426280655e-05,9.884284736472182e-06,1.3566930647357367e-05,4.171900854998967e-06,5.40184264536947e-05
-2.2940270355320536e-05,1.7871860109153204e-05,6.101837698224699e-06,4.989592525816988e-06,4.6307894081110135e-05
-2.0899093215120956e-05,3.023493081855122e-05,4.296533916203771e-06,6.041899723641109e-06,4.2688887333497405e-05
-2.2720156266586855e-05,2.5161511075566523e-05,4.8849842642084695e-06,5.540736765397014e-06,4.846831507165916e-05
-2.6898420401266776e-05,9.906857485475484e-06,7.024874776107026e-06,-5.491853244166123e-06,6.111736729508266e-05
-2.8519731131382287e-05,1.1034991985070519e-05,8.633494871901348e-06,-2.4909117200877517e-05,7.407148223137483e-05
-2.190301711380016e-05,3.622887015808374e-05,1.2391246855258942e-05,-4.035078745801002e-05,7.606059079989791e-05
-1.1570583410502877e-05,6.648311682511121e-05,1.2981511645193677e-05,-4.362284380476922e-05,6.887389463372529e-05
7.842351834597139e-08,8.493436325807124e-05,1.0438192475703545e-05,-3.9714996091788635e-05,6.380079867085442e-05
2.164896386602777e-06,8.402418461628258e-05,9.181325367535464e-06,-4.013814759673551e-05,6.423643208108842e-05
-8.412896022491623e-06,7.097775232978165e-05,1.0655099686118774e-05,-4.1185041482094675e-05,6.51754962746054e-05
-2.3656426492379978e-05,5.78591825615149e-05,8.856774002197199e-06,-3.652473242254928e-05,6.393522198777646e-05
-3.021321026608348e-05,4.524711039266549e-05,4.657177214539843e-06,-3.037993701582309e-05,6.374942313414067e-05
-2.6975645596394315e-05,2.9650213036802597e-05,3.379409236003994e-06,-2.6955089197144844e-05,6.482329627033323e-05
-2.2844613340566866e-05,1.2776402400049847e-05,3.077219616898219e-06,-2.54600090556778e-05,6.497483263956383e-05
-2.514945481379982e-05,3.0285382308647968e-06,3.4331528695474844e-06,-2.172715903725475e-05,6.261149246711284e-05
-3.127057061647065e-05,5.779653292847797e-06,4.792132131115068e-06,-1.800217251002323e-05,5.91541756875813e-05
-3.415137325646356e-05,1.665637500991579e-05,4.305415586713934e-06,-1.988368239835836e-05,5.6239321565954015e-05
-3.655023101600818e-05,2.5192948669428006e-05,1.230113412020728e-06,-2.262832276755944e-05,5.352852531359531e-05
-3.7211168091744184e-05,2.70830059889704e-05,5.888455234526191e-07,-2.109491288138088e-05,5.382816743804142e-05
-3.8978228985797614e-05,2.956978823931422e-05,2.5595895749574993e-06,-1.8571410691947676e-05,5.7800421927822754e-05
-4.368687223177403e-05,3.647770790848881e-05,6.043687790224794e-06,-1.7916223441716284e-05,6.090841634431854e-05
-4.40570802311413e-05,3.778990139835514e-05,4.58095064459485e-06,-1.9214903659303673e-05,6.385123560903594e-05
-3.5228938941145316e-05,3.862111407215707e-05,-1.8141314228614647e-07,-1.813720155041665e-05,6.434845272451639e-05
-2.7518271963344887e-05,4.594563870341517e-05,-2.443594667056459e-06,-1.9004131900146604e-05,6.40924263279885e-05
-2.720992597460281e-05,4.540417648968287e-05,1.4760612430109177e-06,-2.23663191718515e-05,6.663397653028369e-05
-3.211551302229054e-05,3.883834870066494e-05,7.351352451223647e-06,-2.144965219486039e-05,6.637626938754693e-05
-3.3209485991392285e-05,4.282631925889291e-05,8.86691668711137e-06,-1.3706472600460984e-05,6.371329800458625e-05
-3.130446566501632e-05,5.884754136786796e-05,7.511149306083098e-06,-6.332157681754325e-06,6.0394500906113535e-05
-2.9472585083567537e-05,7.697705586906523e-05,5.077064088254701e-06,-6.686424967483617e-06,5.565480387303978e-05
-2.960875463031698e-05,9.025818872032687e-05,2.3850468551245285e-06,-1.063741001416929e-05,5.105380841996521e-05
-3.285338243586011e-05,9.249144204659387e-05,6.335195621431922e-07,-1.3402544027485419e-05,4.8897109081735834e-05
-3.513904084684327e-05,7.82299175625667e-05,-2.614741561046685e-06,-1.0131838280358352e-05,4.850976984016597e-05
-3.881459269905463e-05,5.686355507350527e-05,-5.504551609192276e-06,-5.970861820969731e-06,4.848697790293954e-05
-3.900597948813811e-05,4.8039830289781094e-05,-2.7813198357762303e-06,-6.319041858660057e-06,5.0362938054604456e-05
-3.674952677101828e-05,5.1421502575976774e-05,3.0113042157609016e-06,-8.22428319224855e-06,5.333762237569317e-05
-3.440832006162964e-05,5.1100487326039e-05,4.810985046788119e-06,-9.653399501985405e-06,5.3510604629991576e-05
-2.6907622668659315e-05,4.320487641962245e-05,3.352229896336212e-06,-8.012477337615564e-06,5.175990372663364e-05
-1.961693851626478e-05,2.9784347134409472e-05,8.649096230328723e-07,-3.9287228901230264e-06,5.270030305837281e-05
-1.7967575331567787e-05,1.412091023667017e-05,-1.6743969126764569e-06,-1.6926220496316091e-06,5.5947697546798736e-05
-1.8054577594739385e-05,-3.4362471978965914e-06,-2.6321731638745405e-06,-2.7731819045584416e-06,5.8132045523962006e-05
-1.494280786573654e-05,-1.9145360056427307e-05,-3.4780779856191657e-07,-2.6707889446697664e-06,5.67415299883578e-05
-1.4369709788297769e-05,-2.543434311519377e-05,1.647309318286716e-06,4.8855608838493936e-06,5.3107502026250586e-05
-2.0516232325462624e-05,-2.0553643480525352e-05,1.9116468763513694e-07,1.989359407161828e-05,4.9098780436906964e-05
-2.572912853793241e-05,-1.4276790352596436e-05,-1.4756126347492682e-06,3.6121833545621485e-05,4.74280932394322e-05
-2.1223168005235493e-05,-1.3617014701594599e-05,-1.9081191737768677e-07,4.638186510419473e-05,4.557469947030768e-05
-1.4322490642371122e-05,-7.96773747424595e-06,3.704478331201244e-06,4.778017682838254e-05,4.256379179423675e-05
-1.1975075722148176e-05,1.3430245417112019e-05,4.282811460143421e-06,4.2731157009257004e-05,4.3034535337937996e-05
-1.1620897566899657e-05,3.708407894009724e-05,1.6435656107205432e-06,3.283682235633023e-05,4.8198980948654935e-05
-1.4664153241028544e-05,4.146652281633578e-05,-1.0865041986107826e-06,1.9426437575020827e-05,5.4533153161173686e-05
-1.924816933751572e-05,3.113309503532946e-05,-6.545093356180587e-07,8.784249985183123e-06,5.924311699345708e-05
-2.518594919820316e-05,2.6771018383442424e-05,1.74347007941833e-06,-3.89024035030161e-06,6.20290738879703e-05
-2.983733247674536e-05,3.534994175424799e-05,4.12886765843723e-06,-2.909581053245347e-05,6.43565654172562e-05
