-2.0932113329763524e-05,2.1623787688440643e-05,-2.2258086573856417e-06,-3.231455775676295e-05,5.913710265303962e-05
-2.6311907276976854e-05,1.466186859033769e-05,-2.050619059446035e-06,-2.3798045731382445e-05,5.365244214772247e-05
-3.3562901080586016e-05,9.018465789267793e-06,-3.4410497846693033e-06,-1.0022663445852231e-05,4.9861613661050797e-05
-3.8472713640658185e-05,9.785065230971668e-06,6.786162430216791e-06,5.902697921555955e-06,4.555868508759886e-05
-4.0415827243123204e-05,1.3891681192035321e-05,2.6162411813857034e-05,1.7974834918277338e-05,4.6395231038331985e-05
-3.872784509439953e-05,1.1835197256004903e-05,3.743533306987956e-05,2.5262832423322834e-05,4.956307020620443e-05
-2.9040262234047987e-05,8.657896614749916e-06,2.888520248234272e-05,2.8427850338630378e-05,5.39736429345794e-05
-1.5453193555003963e-05,1.4136619938653894e-05,1.4945486327633262e-05,2.3651142328162678e-05,6.007690171827562e-05
-9.2812742877868e-06,2.3471626263926737e-05,8.58560269989539e-06,1.4055234714760445e-05,6.439969729399309e-05
-1.0732137525337748e-05,3.274311529821716e-05,1.024471021082718e-05,6.366322395479074e-06,6.5710955823306e-05
-1.6489797417307273e-05,4.054546661791392e-05,1.4029506928636692e-05,5.340424650057685e-06,6.354865763569251e-05
-2.450635474815499e-05,3.9759976061759517e-05,1.606993464520201e-05,6.877072337374557e-06,6.0074595239711925e-05
-3.272791582276113e-05,3.275978087913245e-05,1.814109600672964e-05,5.200374289415777e-06,5.8325662394054234e-05
-3.8877667975611985e-05,2.7086016416433267e-05,1.9695839000632986e-05,-9.658152748670545e-07,6.104204658186063e-05
-4.014069781987928e-05,2.021746513491962e-05,1.896993489935994e-05,-7.178654868766898e-06,6.439177377615124e-05
-3.53746727341786e-05,1.2830553714593407e-05,1.3649158063344657e-05,-1.0755370567494538e-05,6.576063606189564e-05
-2.8735201340168715e-05,8.187781531887595e-06,7.270822607097216e-06,-1.2713391697616316e-05,6.58442877465859e-05
-2.683393358893227e-05,1.2060804692737292e-05,4.691264621214941e-06,-1.5592184354318306e-05,6.414796371245757e-05
-2.7996649805572815e-05,2.7750082153943367e-05,3.557958962119301e-06,-1.5828178220544942e-05,6.085644417908043e-05
-2.7976704586762935e-05,4.316557169659063e-05,1.1439003628765931e-06,-1.1187587915628683e-05,5.995982064632699e-05
-2.8358375857351348e-05,4.437059033080004e-05,2.3972461349330842e-06,-6.987506367295282e-06,6.0293277783785015e-05
-3.139042019029148e-05,3.2952924811979756e-05,6.558493168995483e-06,-6.974123152758693e-06,5.8787980378838256e-05
-3.434769678278826e-05,1.6433179553132504e-05,9.012494047055952e-06,-7.630345862708054e-06,5.767298353021033e-05
-2.9598229957628064e-05,7.578684630971111e-07,7.814231139491312e-06,-6.270322955970187e-06,5.598073767032474e-05
-2.0951103579136543e-05,-1.1508277566463221e-05,3.6601688861992443e-06,-5.495447567227529e-06,5.318719195201993e-05
-1.7179216229123995e-05,-1.7107207895605825e-05,-1.4644942893937696e-06,-5.7570500757719856e-06,5.106410026201047e-05
-1.770506423781626e-05,-1.650587910262402e-05,-1.8661559124666383e-06,-8.160736797435675e-06,5.2250634325901046e-05
-1.9337196135893464e-05,-7.788854418322444e-06,-3.6605558761948487e-07,-1.031094234349439e-05,5.595251059276052e-05
-1.8424121662974358e-05,6.153790764074074e-06,-3.355369926794083e-06,-1.3254955774755217e-05,5.616581256617792e-05
-1.7176511391880922e-05,1.883459117379971e-05,-7.648284736205824e-06,-1.4867356185277458e-05,5.170889926375821e-05
-8.935652658692561e-06,3.383279909030534e-05,-1.0413608833914623e-05,-1.0790902706503402e-05,4.870112024946138e-05
-2.7448488708614605e-06,4.7026409447425976e-05,-9.831057468545623e-06,-7.92317405284848e-06,5.155251346877776e-05
-1.108680407924112e-05,4.893461300525814e-05,-5.680999947799137e-06,-1.0186076906393282e-05,5.5107993830461055e-05
-2.0852057787124068e-05,3.789029869949445e-05,-5.547012733586598e-06,-1.3003933418076485e-05,5.617727219942026e-05
-2.2361426090355963e-05,2.652052899065893e-05,-7.670012564631179e-06,-1.2966136637260206e-05,5.4916166845941916e-05
-2.0483770640566945e-05,2.599952495074831e-05,-5.154167865839554e-06,-1.0687889698601793e-05,5.3336592827690765e-05
-2.2513426301884465e-05,3.855166141875088e-05,-1.2758375760313356e-06,-9.906975719786715e-06,5.267767846817151e-05
-2.2822265236754902e-05,5.240315294940956e-05,-1.854908759924001e-06,-1.3173113984521478e-05,5.3977419156581163e-05
-1.8255681425216608e-05,6.07273614150472e-05,-4.9122245400212705e-06,-1.8949856894323602e-05,5.59696345590055e-05
-1.7108950487454422e-05,6.40807265881449e-05,-5.136909749126062e-06,-2.149634383386001e-05,5.684835559804924e-05
-1.873795554274693e-05,6.465195474447682e-05,-8.161214850588294e-07,-2.0255849449313246e-05,5.831114685861394e-05
-1.844783400883898e-05,6.361892883433029e-05,2.879409066736116e-06,-1.8595370420371182e-05,5.926826997892931e-05
-1.6980493455776013e-05,6.0175432736286893e-05,3.164948111589183e-06,-1.6395579223171808e-05,5.883567064302042e-05
-1.821302794269286e-05,5.196988786337897e-05,2.7662431421049405e-06,-1.360591977572767e-05,5.9597139625111595e-05
-2.312445576535538e-05,4.184104182058945e-05,4.3132131395395845e-06,-1.1974071639997419e-05,6.301402027020231e-05
-2.6227235139231198e-05,3.766889130929485e-05,5.996082109049894e-06,-1.1734257896023337e-05,6.633901648456231e-05
-2.8831142117269337e-05,3.8009231502655894e-05,3.502955223666504e-06,-1.4184161045704968e-05,6.630342977587134e-05
-3.380817361176014e-05,3.6780897062271833e-05,9.211207157022727e-07,-1.8701084627537057e-05,6.443444726755843e-05
-3.453446697676554e-05,3.006920996995177e-05,2.5788253878999967e-06,-2.1504614778677933e-05,6.585686060134321e-05
-3.128201933577657e-05,2.115524694090709e-05,4.629940576705849e-06,-2.14475021493854e-05,6.838610715931281e-05
-3.586734237615019e-05,1.8919879948953167e-05,2.241957645310322e-06,-1.7319642211077735e-05,7.06002683728002e-05
-4.285739851184189e-05,2.4874718292267062e-05,9.940501755067999e-09,-1.2878782399639022e-05,7.221898704301566e-05
-4.0977029129862785e-05,2.567811134213116e-05,2.362091890972806e-06,-1.0113075404660776e-05,7.33073684386909e-05
-3.438335261307657e-05,2.007136026804801e-05,8.26870837045135e-06,-1.0665065929060802e-05,7.182649278547615e-05
-2.5748979169293307e-05,1.579985473654233e-05,1.0552224921411835e-05,-1.3432569176075049e-05,6.921985186636448e-05
-1.5221521607600152e-05,1.9351053197169676e-05,7.798837032169104e-06,-9.561522347212303e-06,7.130848825909197e-05
-1.3805383787257597e-05,2.5174012989737093e-05,9.534721357340459e-06,-6.0601246332225855e-06,7.6178832387086e-05
-2.106706415361259e-05,3.1107370887184516e-05,1.6028390746214427e-05,-6.482175649580313e-06,7.760863081784919e-05
-2.3795610104571097e-05,3.305628342786804e-05,1.4131427633401472e-05,-6.4977380134223495e-06,7.644023571629077e-05
-2.2499154511024244e-05,2.840641354850959e-05,3.574159791241982e-06,-5.4426368478743825e-06,7.339292642427608e-05
-2.3513402993557975e-05,2.825722549459897e-05,-6.382059837051202e-06,-6.007044248690363e-06,6.897989806020632e-05
-2.1730700609623455e-05,3.5193177609471604e-05,-1.1608958629949484e-05,-8.896842700778507e-06,6.543994095409289e-05
-1.740881816658657e-05,4.3433949031168595e-05,-1.3586493878392503e-05,-1.2263632925169077e-05,6.112123082857579e-05
-1.2557114132505376e-05,4.503957097767852e-05,-1.4907662261975929e-05,-2.1481604562723078e-05,5.4758991609560326e-05
-9.277987373934593e-06,3.701262903632596e-05,-1.653349318075925e-05,-3.20872750307899e-05,4.9341804697178304e-05
-9.274489457311574e-06,2.705777842493262e-05,-1.4268249287852086e-05,-4.0301529224961996e-05,4.945900582242757e-05
-8.071062438830268e-06,2.457621303619817e-05,-6.484926416305825e-06,-4.297180930734612e-05,5.193127071834169e-05
-9.342429621028714e-06,2.0788025722140446e-05,-1.4494791003016871e-06,-3.756617661565542e-05,5.3410745749715716e-05
-1.220474860019749e-05,7.2574107434775215e-06,4.320260700296785e-07,-2.550271528889425e-05,5.169495125301182e-05
-1.5667952538933605e-05,-1.020846229948802e-05,5.309252628649119e-06,-1.3293850315676536e-05,4.9679019866744056e-05
-2.0230541849741712e-05,-2.091601345455274e-05,1.3563876564148813e-05,-4.663333129428793e-06,5.1579689170466736e-05
-2.5960292987292632e-05,-2.117115946020931e-05,2.1485813704202883e-05,1.3104531149110699e-07,5.524896187125705e-05
-2.8873662813566625e-05,-1.6449825125164352e-05,2.5487770471954718e-05,2.8399279017321533e-06,5.683570998371579e-05
-2.847101495717652e-05,-1.7263617337448522e-05,2.521656824683305e-05,8.244101991294883e-06,5.7123808801406994e-05
-3.0435772714554332e-05,-2.0439529180293903e-05,2.6127405362785794e-05,1.4178748642734718e-05,5.7710854889592156e-05
-3.0794672056799755e-05,-1.3831485375703778e-05,2.740664240263868e-05,1.595767571416218e-05,5.857030191691592e-05
-2.6479805455892347e-05,-1.0425363825561362e-06,2.4500935978721827e-05,1.2461807273211889e-05,5.859369412064552e-05
-2.4614484573248774e-05,6.076548288547201e-06,1.80905972229084e-05,1.0812633263412863e-05,5.804974716738798e-05
-2.64117079495918e-05,8.978829100669827e-06,1.6157966456376016e-05,1.4216243471310008e-05,5.442360634333454e-05
-3.2990807085298e-05,1.8012908185482956e-05,2.1763466065749526e-05,1.5546173017355613e-05,4.868922405876219e-05
-4.90495513076894e-05,3.288711013738066e-05,2.0621570001821965e-05,1.0353513062000275e-05,4.6477616706397384e-05
-6.126347579993308e-05,4.228221587254666e-05,1.3945106729806866e-05,-4.277841071598232e-06,4.706360778072849e-05
-5.882930418010801e-05,3.679024302982725e-05,1.2222648365423083e-05,-1.888294173113536e-05,5.142758891452104e-05
-4.903782610199414e-05,2.7090545700048096e-05,1.2299573427299038e-05,-1.9557099221856333e-05,5.5039883591234684e-05
-3.9542421291116625e-05,2.423681871732697e-05,8.921441803977359e-06,-1.2953084478795063e-05,5.2373499784152955e-05
-3.441115404712036e-05,3.0163801056914963e-05,5.271016107144533e-06,-7.781910426274408e-06,4.532857201411389e-05
-3.3275282476097345e-05,4.0049762901617214e-05,3.1133590709941927e-06,-7.063389602990355e-06,4.1698098357301205e-05
-3.2355983421439305e-05,5.0728602218441665e-05,-8.053616511460859e-07,-5.704998329747468e-06,4.227597310091369e-05
-3.2655647373758256e-05,6.25502725597471e-05,7.970221105324526e-08,1.0504913916520309e-06,4.5188324293121696e-05
-3.336702866363339e-05,7.416025619022548e-05,3.94772087020101e-06,9.79912692855578e-06,4.8496007366338745e-05
-3.045470657525584e-05,8.307502139359713e-05,6.5668382376316e-06,9.172119462164119e-06,5.195876656216569e-05
-2.4290142391691916e-05,8.408572466578335e-05,8.478647941956297e-06,-3.595425823732512e-08,5.733754733228125e-05
-1.4928598830010742e-05,8.273996354546398e-05,8.434890332864597e-06,-7.285609626705991e-06,6.0559294070117176e-05
-6.283528364292579e-06,8.178869757102802e-05,4.587627699947916e-06,-8.95908033271553e-06,6.0536527598742396e-05
-2.628040874697035e-06,7.553045725217089e-05,3.2242412544292165e-06,-9.98641462501837e-06,5.9660083934431896e-05
-3.764343773582368e-06,6.696994387311861e-05,5.928631708229659e-06,-1.5009363778517582e-05,5.957575922366232e-05
-9.6722242233227e-06,6.07922556810081e-05,7.0325640990631655e-06,-2.0914420019835234e-05,5.874183989362791e-05
-1.8758471924229525e-05,4.931247531203553e-05,5.092240826343186e-06,-2.404433507763315e-05,5.87447575526312e-05
-2.682119702512864e-05,3.706120696733706e-05,1.5379489468614338e-06,-2.1617468519252725e-05,5.87564027227927e-05
-2.9025881303823553e-05,3.793658106587827e-05,-3.1783372378413333e-06,-1.4512632333207875e-05,5.8923906181007624e-05
-3.032820859516505e-05,4.649959009839222e-05,-7.077323061821517e-06,-7.78465619077906e-06,5.914535722695291e-05
-3.3952765079448e-05,5.0871592975454405e-05,-5.496283392858459e-06,-8.533095751772635e-06,5.8263165556127205e-05
-3.459597428445704e-05,5.2653453167295083e-05,-4.610301402863115e-06,-1.4708860362588894e-05,5.742290159105323e-05
-3.210649447282776e-05,5.273150964058004e-05,-8.37481002236018e-06,-1.7435861082049087e-05,5.7169301726389676e-05
-3.4651260648388416e-05,4.771666499436833e-05,-8.536482710042037e-06,-1.3788221622235142e-05,5.638509173877537e-05
-3.473501783446409e-05,3.8039950595702976e-05,-2.073180894512916e-06,-1.3454933650791645e-05,5.738249092246406e-05
-2.525055970181711e-05,2.7214238798478618e-05,4.991105925000738e-06,-1.9802220776909962e-05,6.002075315336697e-05
-2.293205398018472e-05,1.5006778994575143e-05,1.1626227205852047e-05,-2.355255128350109e-05,6.014684186084196e-05
-2.7137693905388005e-05,1.7967121266337926e-06,1.2186336789454799e-05,-2.6612273359205574e-05,5.659848466166295e-05
-2.7795071218861267e-05,-7.4110425885010045e-06,1.1383349374227691e-05,-2.4362658223253675e-05,5.2563387725967914e-05
-2.3903079636511393e-05,-9.143032912106719e-06,1.4179216123011429e-05,-1.8314703993382864e-05,5.659120870404877e-05
-2.07608645723667e-05,-9.124997632170562e-06,1.7526899682707153e-05,-1.8067350538331084e-05,6.189366831677034e-05
-2.6204106688965112e-05,-1.6734018572606146e-05,1.684701237536501e-05,-2.1038666091044433e-05,6.0432390455389395e-05
-3.4797354601323605e-05,-2.1337222278816625e-05,8.728734428586904e-06,-2.394692273810506e-05,5.723111826227978e-05
-3.6274956073611975e-05,-9.606226740288548e-06,4.309555151849054e-06,-2.0840458091697656e-05,5.74257064727135e-05
-3.356246816110797e-05,1.2625758245121688e-05,6.7513105932448525e-06,-2.0213185052853078e-05,5.867873187526129e-05
-3.547370943124406e-05,2.4574996132287197e-05,7.754572834528517e-06,-2.2173884644871578e-05,6.146701343823224e-05
-4.021035783807747e-05,2.619046972540673e-05,5.330250587576302e-06,-2.3567616153741255e-05,6.718214717693627e-05
-4.6973436838015914e-05,2.575929647719022e-05,5.1403717407083604e-06,-2.205906275776215e-05,7.000008918112144e-05
-4.8843983677215874e-05,2.4534054318792187e-05,8.090542905847542e-06,-1.898307164083235e-05,7.036878378130496e-05
-4.728336716652848e-05,2.491484337951988e-05,1.1412970707169734e-05,-1.9327024347148836e-05,7.012986316112801e-05
-4.8559264541836455e-05,2.8547719921334647e-05,1.1211952369194478e-05,-2.146190126950387e-05,6.988001405261457e-05
-4.970182271790691e-05,3.605978417908773e-05,8.231661013269331e-06,-2.1203301002969965e-05,6.727691652486101e-05
-4.5180557208368555e-05,4.116836134926416e-05,5.206020887271734e-06,-1.8323329641134478e-05,6.266419950406998e-05
-3.395605381228961e-05,4.138280564802699e-05,4.627896487363614e-06,-1.5940890079946257e-05,6.0135127569083124e-05
-2.256154220958706e-05,3.8744583434890956e-05,8.526700185029767e-06,-1.143343160947552e-05,6.089413000154309e-05
-1.773974872776307e-05,3.635691246017814e-05,1.3264404515211936e-05,-7.330932930926792e-06,6.269992445595562e-05
-2.3347747628577054e-05,3.7046873330837116e-05,1.3125526493240613e-05,-7.64865217206534e-06,6.232371379155666e-05
-3.153906800434925e-05,4.171766704530455e-05,9.991413207899313e-06,-9.73979967966443e-06,6.092404873925261e-05
-3.1161860533757135e-05,4.542426540865563e-05,7.756578270345926e-06,-5.4995684877212625e-06,6.054389086784795e-05
-2.288768155267462e-05,4.5662352931685746e-05,3.636026349340682e-06,4.206702669762308e-06,5.840527228428982e-05
-1.7577522157807834e-05,3.999279215349816e-05,-1.9761002931772964e-06,1.1804920177382883e-05,5.467688606586307e-05
-1.0691220268199686e-05,3.403376103960909e-05,-6.941433184692869e-06,1.2348850759735797e-05,5.340929783415049e-05
3.195193301053223e-07,3.8113928894745186e-05,-8.268199962913059e-06,6.1210339481476694e-06,5.351645086193457e-05
6.590103566850303e-06,3.620691131800413e-05,-6.004438091622433e-06,-1.5003054159024032e-06,5.575243994826451e-05
8.25362621981185e-06,2.0617615518858656e-05,-4.305380571167916e-06,-5.861185400135582e-06,5.747175600845367e-05
7.958201422297861e-06,9.907808816933539e-06,-4.411636382428696e-06,-9.293363291362766e-06,5.403200339060277e-05
5.950508239038754e-06,1.1666074897220824e-05,-6.047542342457746e-07,-1.0192417903454043e-05,4.6053384721744806e-05
4.6243785618571565e-06,1.875411362561863e-05,7.4265553848817945e-06,-9.221120308211539e-06,4.2565759940771386e-05
5.272972884995397e-06,2.0675521227531135e-05,1.315854569838848e-05,-6.312706318567507e-06,4.902330329059623e-05
1.148768023995217e-05,1.3276528989081271e-05,1.4161555554892402e-05,-4.212704425299307e-06,5.734513615607284e-05
1.6451405826956034e-05,4.2112296796403825e-06,8.01296755525982e-06,-6.0986758398939855e-06,6.25368338660337e-05
1.056678593158722e-05,3.5094205941277323e-06,4.740108749956562e-07,-1.2106605936423875e-05,6.345485599013045e-05
-1.826202037591429e-06,5.88193461226183e-06,-3.0727471767022507e-06,-1.6842115655890666e-05,6.198140181368217e-05
-1.1550040653673932e-05,8.848035577102564e-06,-3.984381692134775e-06,-1.657992834225297e-05,6.069526352803223e-05
-2.0404271708684973e-05,8.688843990967143e-06,-2.0887489426968386e-06,-1.2314322702877689e-05,5.676731598214246e-05
-3.377098619239405e-05,7.413725143123884e-06,-2.422791283152037e-07,-8.943491593527142e-06,5.1919760153396055e-05
-4.2407758883200586e-05,1.424708534614183e-05,1.0985169183186372e-06,-8.486362276016735e-06,5.2746356232091784e-05
-4.3206837290199474e-05,2.448232589813415e-05,2.14043075175141e-06,-9.48668548517162e-06,6.034941179677844e-05
-4.442396675585769e-05,2.7680704079102725e-05,5.363928721635602e-06,-1.1988686310360208e-05,6.620412023039535e-05
-4.744581019622274e-05,2.5577402993803844e-05,7.667924364795908e-06,-1.2596189662872348e-05,6.43525127088651e-05
-4.789165177498944e-05,2.662694350874517e-05,8.332044671988115e-06,-1.0464197657711338e-05,5.9341717133065686e-05
-4.734931280836463e-05,2.9859615096938796e-05,9.2297186711221e-06,-6.362044132401934e-06,5.6040589697659016e-05
-4.6302840928547084e-05,3.2332365663023666e-05,7.871285561122932e-06,-4.382035058370093e-06,5.59184372832533e-05
-4.07236693718005e-05,3.2249379728455096e-05,3.46954220731277e-06,-3.1148624657362234e-06,5.7734996516956016e-05
-3.408588963793591e-05,2.8432841645553708e-05,-7.60169712066272e-07,-1.218136844727269e-06,5.6254742958117276e-05
-3.258603101130575e-05,2.161995871574618e-05,3.8323815942931105e-07,4.074361640959978e-06,5.101787974126637e-05
-3.7163608794799075e-05,1.9421579054323956e-05,5.335269179340685e-06,1.0923207810265012e-05,4.7986064600991085e-05
-4.346448986325413e-05,2.064065120066516e-05,5.961160240985919e-06,1.521458943898324e-05,4.779909795615822e-05
-4.5629643864231184e-05,1.9082664948655292e-05,2.608155227790121e-06,1.3052153917669784e-05,4.872825957136229e-05
-4.03344638471026e-05,2.01803650270449e-05,1.589106432220433e-06,7.66544235375477e-06,5.0444108637748286e-05
-2.933233008661773e-05,2.509088699298445e-05,2.9985492346895626e-06,3.709249995154096e-06,5.30865290784277e-05
-2.6698686269810423e-05,2.6408946723677218e-05,5.1006427383981645e-06,-9.583736755303107e-07,5.792800220660865e-05
-3.590825872379355e-05,2.43925787799526e-05,4.150319000473246e-06,-8.032960067794193e-06,6.656561890849844e-05
-3.697544161695987e-05,2.4535791453672573e-05,1.0366825335950125e-06,-1.629839425731916e-05,7.410489342873916e-05
-3.156070670229383e-05,2.866853537852876e-05,-1.5169174503171234e-06,-2.0379931811476126e-05,7.601052493555471e-05
-3.485578781692311e-05,3.0705770768690854e-05,1.825399976951303e-06,-2.0563913494697772e-05,7.279020064743236e-05
-3.9424710848834366e-05,3.0870800401316956e-05,7.561403435829561e-06,-1.7882181055028923e-05,6.619666237384081e-05
-3.829615525319241e-05,3.220843427698128e-05,1.1457109394541476e-05,-1.318228714808356e-05,6.403968291124329e-05
-2.9792978239129297e-05,3.2635511161061004e-05,1.1865745364048053e-05,-1.0792496141220909e-05,6.554103310918435e-05
-2.2230917238630354e-05,3.2847186957951635e-05,1.0678750186343677e-05,-1.2041582522215322e-05,6.550522084580734e-05
-1.9205552234780043e-05,3.66668427886907e-05,9.710012818686664e-06,-1.5106384125829209e-05,6.280755769694224e-05
-1.8734755940386094e-05,4.3462645407998934e-05,7.691349310334772e-06,-1.5033814634080045e-05,5.9709396737162024e-05
-2.060253063973505e-05,4.858297688770108e-05,5.2200093705323525e-06,-9.589030014467426e-06,5.8967336372006685e-05
-2.1116447896929458e-05,4.6610861318185925e-05,2.340400442335522e-06,-3.440216460148804e-06,5.6330951338168234e-05
-1.6074491213657893e-05,4.203938442515209e-05,1.3601008959085448e-06,-3.246133928769268e-06,5.219976810622029e-05
-8.190761036530603e-06,3.212305091437884e-05,3.8374255382223055e-06,-8.911940312827937e-06,5.165665061213076e-05
-4.873987109021982e-06,1.9835357306874357e-05,8.797192094789352e-06,-1.3264075278129894e-05,5.364544267649762e-05
-4.295318376534851e-06,1.5919329598546028e-05,1.2480959412641823e-05,-1.2533721928775776e-05,5.259581666905433e-05
-4.427182830113452e-06,1.821523801481817e-05,1.292083106818609e-05,-1.1109686965937726e-05,4.85913478769362e-05
-6.3170582507154904e-06,1.7751637642504647e-05,7.903315236035269e-06,-1.3555177247326355e-05,4.913865268463269e-05
-1.3539422980102245e-05,1.4714009921590332e-05,-2.3794460446424637e-07,-1.616768531675916e-05,5.4300686315400526e-05
-2.2290854758466594e-05,1.3921407116868068e-05,-7.430166533595184e-06,-1.9479582988424227e-05,5.8428035117685795e-05
-2.7718620913219638e-05,1.398911808792036e-05,-1.650079502724111e-05,-2.6226516638416797e-05,6.228779238881543e-05
-2.7975451303063892e-05,1.655732557992451e-05,-2.6120434995391406e-05,-3.287717481725849e-05,6.648723501712084e-05
-2.6116606022696942e-05,2.169388062611688e-05,-2.9555551009252667e-05,-3.648072379291989e-05,6.647838017670438e-05
-2.6583466024021618e-05,3.100920730503276e-05,-2.7872911232407205e-05,-3.61149686796125e-05,6.205189856700599e-05
-2.3562133719678968e-05,3.3481705031590536e-05,-2.4839273464749567e-05,-3.102909613517113e-05,5.9115442127222195e-05
-1.9085855456069112e-05,3.08552298520226e-05,-1.922224873851519e-05,-2.8273048883420415e-05,6.15554308751598e-05
-1.6870777471922338e-05,3.37650635628961e-05,-7.488488336093724e-06,-2.3292339392355643e-05,6.342675624182448e-05
-1.9419716409174725e-05,3.7146433896850795e-05,6.461884368036408e-06,-1.3185846000851598e-05,6.14702730672434e-05
-2.706078339542728e-05,4.043264198116958e-05,1.7117770767072216e-05,-6.793348347855499e-06,6.357838719850406e-05
-3.593375731725246e-05,4.2238101741531864e-05,2.3187643819255754e-05,6.361867121995601e-08,6.28582711215131e-05
-4.935426477459259e-05,4.018792606075294e-05,2.608074646559544e-05,8.518922186340205e-06,5.7276956795249134e-05
-6.083518746891059e-05,4.1205632442142814e-05,2.842679896275513e-05,1.8480892322259024e-05,5.568947744905017e-05
-6.103457053541206e-05,4.41382871940732e-05,3.115181243629195e-05,2.1520278096431866e-05,5.849238732480444e-05
-5.105065429233946e-05,4.5711363782174885e-05,3.2360538170905784e-05,1.4651040146418381e-05,6.249421130632982e-05
-4.232042920193635e-05,4.290543802198954e-05,3.376600579940714e-05,6.539440619235393e-06,6.52494709356688e-05
-3.565042061381973e-05,4.0426970372209325e-05,3.487095455056988e-05,3.9159872358141e-06,6.504660268547013e-05
-3.296973227406852e-05,3.927423313143663e-05,3.2842883229022846e-05,1.4595578932130593e-06,6.29102869424969e-05
-3.520345489960164e-05,3.8350113754859194e-05,2.8483800633694045e-05,-7.243654181365855e-06,6.250222941162065e-05
-3.833131995634176e-05,3.834769449895248e-05,2.1633175492752343e-05,-1.6794734619907103e-05,6.401114660548046e-05
-3.9542708691442385e-05,3.4024233173113316e-05,1.4170215763442684e-05,-2.5811805244302377e-05,6.669737194897607e-05
-3.655847467598505e-05,2.3611133656231686e-05,1.152343611465767e-05,-3.19150130962953e-05,6.850864156149328e-05
-3.042263961106073e-05,1.4456127246376127e-05,1.3552815289585851e-05,-3.2656236726325005e-05,6.981998012633994e-05
-2.20895090023987e-05,1.3404672245087568e-05,1.2453222552721854e-05,-2.6302997866878286e-05,6.91292152623646e-05
-1.1163346243847627e-05,1.7310096154687926e-05,6.907755505380919e-06,-1.6178115401999094e-05,6.507898069685325e-05
-6.51795915018738e-08,2.335447061341256e-05,2.9465652460203273e-06,-4.9550853873370215e-06,6.248254067031667e-05
3.678320354083553e-06,3.223180101485923e-05,5.450538992590737e-06,4.363985681266058e-06,6.320229294942692e-05
2.51155870500952e-06,4.4019019696861506e-05,1.0600710993458051e-05,7.913499757705722e-06,6.31848961347714e-05
-4.941576889905264e-07,4.944477041135542e-05,1.2230578249727841e-05,6.044821475370554e-06,6.44930187263526e-05
-3.886611921188887e-06,4.1171144403051585e-05,1.0286981705576181e-05,7.312928573810495e-07,6.652268348261714e-05
-1.0250664672639687e-05,3.019410178239923e-05,5.528221208805917e-06,-7.940627256175503e-06,6.353553180815652e-05
-1.744770816003438e-05,3.414419188629836e-05,6.201082101142674e-07,-1.8702217857935466e-05,5.964837328065187e-05
-2.1429877961054444e-05,4.759898365591653e-05,-1.4475950820269645e-06,-3.473421747912653e-05,6.630054849665612e-05
-1.8406977687845938e-05,5.271912959869951e-05,-4.368230747786583e-06,-5.2539842727128416e-05,8.345460082637146e-05
-8.659761988383252e-06,4.259731940692291e-05,-6.7082182795275e-06,-6.101822145865299e-05,9.939664596458897e-05
-5.537481229112018e-06,3.326911973999813e-05,-5.057717316958588e-06,-5.205208799452521e-05,0.00011060876568080857
-1.4770624147786293e-05,3.182137879775837e-05,-2.3460811462427955e-06,-3.114607170573436e-05,0.00011715397704392672
-2.579277497716248e-05,2.5055429432541132e-05,-1.4151426057651406e-06,-1.0372800716140773e-05,0.000123068384709768
-3.153648503939621e-05,1.2693971257249359e-05,-3.8070692198743927e-07,1.0076564649352804e-06,0.0001272523804800585
-3.3350210287608206e-05,6.861931979074143e-06,5.0418966566212475e-06,1.7400166143488605e-06,0.00012599238834809512
-3.3611009712331e-05,1.350088496110402e-05,8.34644743008539e-06,-1.3802880403090967e-06,0.0001212937495438382
-3.456455306150019e-05,1.9620152670540847e-05,9.207602488459088e-06,-4.221702965878649e-06,0.00011496398656163365
-4.0475391870131716e-05,2.045795008598361e-05,1.520918794994941e-05,1.104200464396854e-06,0.0001127110153902322
-4.0388993511442095e-05,2.8861339160357602e-05,2.379772013227921e-05,1.9120294382446446e-05,0.00011360457574483007
-3.255420961068012e-05,5.0782466132659465e-05,3.350204860907979e-05,4.2298644984839484e-05,0.00011380643263692036
-2.5527515390422195e-05,7.817921141395345e-05,3.902571916114539e-05,5.626387064694427e-05,0.0001089820871129632
-2.2987407646724023e-05,9.289201989304274e-05,3.352496787556447e-05,5.738456093240529e-05,0.0001008551917038858
-2.902985033870209e-05,8.399629587074742e-05,2.1752091925009154e-05,4.581361645250581e-05,9.787161252461374e-05
-3.976062362198718e-05,5.3303880122257397e-05,1.762525425874628e-05,3.2619384001009166e-05,0.0001011559579637833
-4.6394241508096457e-05,1.637039167690091e-05,2.3486521968152374e-05,2.7443606086308137e-05,0.0001022604774334468
-4.543169416137971e-05,-6.447159648814704e-06,2.8345348255243152e-05,2.794007377815433e-05,9.762021363712847e-05
-4.275687751942314e-05,-4.124518000026001e-06,2.4540979211451486e-05,2.2363326934282668e-05,9.001811122288927e-05
-3.6599391023628414e-05,1.3552854397858027e-05,1.5374942449852824e-05,8.882253496267367e-06,8.248586527770385e-05
-2.7048910851590335e-05,2.7927246264880523e-05,5.9980902733514085e-06,-4.072363481100183e-06,7.721338624833152e-05
-1.9231416445109062e-05,2.8885386200272478e-05,-1.7783601435894525e-07,-1.064778734871652e-05,7.467068644473329e-05
-1.9078952391282655e-05,2.2921847630641423e-05,9.833969443207025e-07,-9.485596820013598e-06,7.321652810787782e-05
-2.376814154558815e-05,2.2358817659551278e-05,3.438769908825634e-06,-7.594909675390227e-06,7.19044910511002e-05
-2.3612568838871084e-05,2.712624154810328e-05,2.265458306283108e-06,-8.236440407927148e-06,7.140357774915174e-05
-1.9776398403337225e-05,3.630017818068154e-05,7.638320909109098e-08,-8.636812708573416e-06,7.111219747457653e-05
-2.0738152670674026e-05,4.7474870370933786e-05,-2.638484147610143e-06,-9.633035006118007e-06,6.982596823945642e-05
-2.4309110813192092e-05,5.1582741434685886e-05,-2.7268679332337342e-06,-1.6384810805902816e-05,6.827251490904018e-05
-3.0128559956210665e-05,4.2556679545668885e-05,1.4163201740302611e-06,-2.3191023501567543e-05,6.463297904701903e-05
-4.120304583921097e-05,2.8608494176296517e-05,2.455775529597304e-06,-2.377300916123204e-05,5.671327744494192e-05
-4.8735491873230785e-05,2.3306565708480775e-05,-6.894317152728036e-07,-2.139610478479881e-05,5.125603638589382e-05
-4.7845889639575034e-05,2.8701882911263965e-05,-4.6876421038177796e-06,-2.2650059690931812e-05,4.645235821953975e-05
-4.4182976125739515e-05,2.8511203709058464e-05,-6.488178769359365e-06,-2.5815639673965052e-05,4.4010950659867376e-05
-4.128285945625976e-05,1.8104736227542162e-05,-5.536171556741465e-06,-2.8035103241563775e-05,4.200210241833702e-05
-3.51873277395498e-05,1.834356771723833e-05,-7.1556355578650255e-06,-2.9698976504732855e-05,3.819983612629585e-05
-2.871511060220655e-05,2.5576304324204102e-05,-8.907932169677224e-06,-2.8794467652915046e-05,3.533615745254792e-05
-2.686792504391633e-05,2.635706368891988e-05,-4.255923158780206e-06,-2.484648211975582e-05,3.492528776405379e-05
-2.6049103325931355e-05,2.457200753269717e-05,2.0819122710236115e-06,-2.235224746982567e-05,3.380843918421306e-05
-2.806028351187706e-05,2.264360955450684e-05,6.427881544368574e-06,-2.1812547856825404e-05,3.0935647373553365e-05
-2.9436110708047636e-05,2.478584610798862e-05,8.739685654290952e-06,-2.1826910597155802e-05,3.0827846785541624e-05
-2.687617961782962e-05,3.006924998771865e-05,7.839818863430992e-06,-2.0539533579722047e-05,3.260048106312752e-05
-2.236864202131983e-05,3.354865111759864e-05,3.008082330779871e-06,-1.8382961570750922e-05,3.324059071019292e-05
-1.81455889105564e-05,3.306280268589035e-05,-1.4034370678928099e-06,-1.9270262782811187e-05,3.0365865313797258e-05
-1.6205705833272077e-05,3.154707155772485e-05,-3.510218220981187e-06,-2.326599496882409e-05,2.7991793103865348e-05
-1.5096175047801808e-05,2.9828952392563224e-05,-3.19014725391753e-06,-2.6172365323873237e-05,2.7981692255707458e-05
-1.6925292584346607e-05,2.7542857424123213e-05,1.3262671245684032e-06,-2.652209332154598e-05,2.7974207114311866e-05
-2.2646732759312727e-05,2.7836171284434386e-05,6.734176167810801e-06,-2.514450898161158e-05,2.654389572853688e-05
-2.844793925760314e-05,2.978228803840466e-05,6.457999461417785e-06,-2.3001894078333862e-05,2.7861620765179396e-05
-2.7907844923902303e-05,2.496007437002845e-05,1.7763828736860887e-06,-2.162346208933741e-05,3.2151747291209176e-05
-1.961246380233206e-05,1.591100044606719e-05,9.379241419082973e-07,-1.9862174667650834e-05,3.35750009980984e-05
-1.0185354767600074e-05,8.29703549243277e-06,5.677926310454495e-06,-1.888006772787776e-05,2.822608257702086e-05
-3.7730180793005275e-06,-5.502942030943814e-07,1.1475377505121287e-05,-1.8256789189763367e-05,2.24347513722023e-05
-9.172397881229699e-07,-5.733719717682106e-06,1.1755232662835624e-05,-1.8134276615455747e-05,2.2112164515419863e-05
-4.144761987845413e-06,-1.406354044775071e-06,9.523228072794154e-06,-2.2202753825695254e-05,2.402816062385682e-05
-1.0484735867066775e-05,8.378680831810925e-06,9.911736015055794e-06,-2.5239323804271407e-05,2.2737760446034372e-05
-1.674472696322482e-05,1.5965821148711257e-05,8.201190212275833e-06,-2.5120847567450255e-05,1.940613037731964e-05
-1.938356399477925e-05,1.907138903334271e-05,1.2282215493542026e-06,-2.46756462729536e-05,1.7250305972993374e-05
-1.73250100488076e-05,1.9890969269908965e-05,-9.474870239500888e-07,-2.092798604280688e-05,1.9736780814127997e-05
-1.576520298840478e-05,2.4870769266271964e-05,3.7160268675506813e-06,-1.8011744032264687e-05,2.443765515636187e-05
-1.93148480320815e-05,3.5197292163502425e-05,6.659669907094212e-06,-1.688095653662458e-05,2.5773288143682294e-05
-2.1951369490125217e-05,4.5544293243438005e-05,3.756641717700404e-06,-1.4180958714860026e-05,2.4882127036107704e-05
-1.9335924662300386e-05,5.003442129236646e-05,-1.995521870412631e-06,-1.4230919987312518e-05,2.353667514398694e-05
-1.6933212464209646e-05,4.8524139856453985e-05,-2.1037321857875213e-06,-1.600078758201562e-05,2.5272713173762895e-05
-1.605971010576468e-05,4.234255538904108e-05,4.285779141355306e-06,-1.720278487482574e-05,2.9538658054661937e-05
-1.55513480422087e-05,3.904128971043974e-05,7.927925253170542e-06,-1.8090626326738857e-05,2.9738432203885168e-05
-1.780401544237975e-05,4.0741622797213495e-05,5.598238658421906e-06,-1.7866675989353098e-05,2.9483100661309436e-05
-2.1947384084342048e-05,4.066442488692701e-05,-2.368241780459357e-07,-1.683090340520721e-05,3.207339977961965e-05
-1.9814518964267336e-05,3.858184572891332e-05,-7.786973583279178e-06,-1.6019777831388637e-05,3.106034273514524e-05
-1.1422949683037587e-05,3.492312680464238e-05,-1.4389765055966564e-05,-1.725809124764055e-05,2.7001633498002775e-05
-7.805823770468123e-06,3.001594632223714e-05,-1.6818154108477756e-05,-1.7652751921559684e-05,2.4613627829239704e-05
-1.2965000678377692e-05,2.545593451941386e-05,-1.3322038284968585e-05,-1.5524437912972644e-05,2.7794490961241536e-05
-1.924567732203286e-05,2.149338979506865e-05,-9.132188097282778e-06,-1.0481356184754986e-05,3.4573542507132515e-05
-2.1402729544206522e-05,1.3104197932989337e-05,-6.22411971562542e-06,-4.200550392852165e-06,3.782895873882808e-05
-2.0985140508855693e-05,3.978708718932467e-06,-1.7529542617467087e-07,1.244461032001709e-06,3.473053584457375e-05
-1.636904926272109e-05,1.4651072888227645e-06,9.686660632723942e-06,3.3575311135791708e-06,3.311333784949966e-05
-6.557565939147025e-06,6.397867764462717e-06,1.716378392302431e-05,-3.4238004786857346e-07,3.730167736648582e-05
-1.5630638472430292e-06,1.5520954548264854e-05,1.755573248374276e-05,-9.849582056631334e-06,4.1407642129343e-05
-4.154010639467742e-06,2.465749093971681e-05,1.1862788596772589e-05,-2.0265573766664602e-05,4.217452442389913e-05
-7.474312951671891e-06,2.5174480470013805e-05,2.133420821337495e-06,-2.9182976504671387e-05,4.1232538933400065e-05
-1.486575638409704e-05,1.7110700355260633e-05,-9.040735676535405e-06,-3.577341340132989e-05,3.7657802749890834e-05
-2.2204498236533254e-05,1.43640318128746e-05,-1.585946483828593e-05,-3.673852188512683e-05,3.179123450536281e-05
-2.3368656911770813e-05,1.6364690964110196e-05,-1.1648573490674607e-05,-3.303610719740391e-05,2.8240321626071818e-05
-2.6474344849702902e-05,1.594941204530187e-05,-3.08498670165136e-06,-2.6415333195473067e-05,2.9018725399510004e-05
-3.409884811844677e-05,1.2036094631184824e-05,2.638292926349095e-06,-1.9285886082798243e-05,3.0475648600258864e-05
-3.9896865928312764e-05,1.530152621853631e-05,1.0385240784671623e-05,-1.2184740626253188e-05,3.2152485800907016e-05
-3.489371374598704e-05,2.606420275697019e-05,1.867779610620346e-05,-3.2812297376949573e-06,3.787054811255075e-05
-2.770220089587383e-05,2.891343683586456e-05,2.290088559675496e-05,4.611199983628467e-06,4.388438173918985e-05
-2.6275254640495405e-05,2.142389348591678e-05,2.7028205295209773e-05,9.682891686679795e-06,4.5083150325808674e-05
-2.6387231628177688e-05,1.3184640010877047e-05,3.111282057943754e-05,1.4013806321599986e-05,3.8864807720528916e-05
-3.124311479041353e-05,1.0813451808644459e-05,3.0757833883399144e-05,1.47237915371079e-05,3.287464642198756e-05
-3.991453559137881e-05,1.114308997784974e-05,3.11835428874474e-05,1.0722592378442641e-05,3.814407318714075e-05
-4.3042866309406236e-05,1.0322238267690409e-05,3.124005888821557e-05,6.283018592512235e-06,4.933148738928139e-05
-4.069598435307853e-05,4.563164566206979e-06,2.3892496756161563e-05,3.996255600213772e-06,5.599756332230754e-05
-3.8290192605927587e-05,2.6373493255960057e-06,1.2352278645266779e-05,2.261230747535592e-06,5.81929853069596e-05
-3.353218562551774e-05,1.2937783139932435e-05,3.6432606975722592e-06,-1.790556439118518e-06,5.965545278741047e-05
-2.8227481379872188e-05,2.7025429517379962e-05,3.4920438451990776e-07,-8.142520528053865e-06,5.687458178726956e-05
-2.7477017283672467e-05,3.363820360391401e-05,1.0080844958793023e-06,-1.2119496204832103e-05,5.12332480866462e-05
-3.2547472073929384e-05,3.4605127439135686e-05,2.9034156341367634e-06,-1.5551293472526595e-05,4.931768853566609e-05
-3.953912892029621e-05,3.525012289173901e-05,4.535250809567515e-06,-1.905498356791213e-05,5.333694934961386e-05
-3.928540900233202e-05,3.353485953994095e-05,4.0073150557873305e-06,-1.96384426089935e-05,5.869436790817417e-05
-3.202297375537455e-05,3.033404573216103e-05,-4.998453277949011e-07,-1.6767804481787607e-05,6.192587898112833e-05
-2.8145130272605456e-05,2.9424350941553712e-05,-6.623548415518599e-06,-1.3785082956019323e-05,6.224476965144277e-05
-2.8702754207188264e-05,2.5269240722991526e-05,-7.909571650088765e-06,-1.4262192053138278e-05,5.947408135398291e-05
-2.7876496460521594e-05,1.3864683751307894e-05,-3.5438265513221268e-06,-1.719272586342413e-05,5.543602674151771e-05
-2.5074570658034645e-05,-1.4726857671121252e-06,1.9959152268711478e-06,-1.683980372035876e-05,5.303245416143909e-05
-2.7138648874824867e-05,-1.958426582859829e-05,9.09508435142925e-06,-1.1624237231444567e-05,5.516206510947086e-05
-3.384552837815136e-05,-3.0569823138648644e-05,1.3254168152343482e-05,-6.136880983831361e-06,5.9801524912472814e-05
-3.244487015763298e-05,-3.0881306884111837e-05,1.1914474271179643e-05,-2.995533577632159e-06,6.401821156032383e-05
-2.4869641492841765e-05,-2.2778072889195755e-05,1.098392385756597e-05,-2.4228982056229142e-06,6.544937787111849e-05
-2.2470154362963513e-05,-1.0093705895997118e-05,1.5752026229165494e-05,-1.136438072535384e-06,6.547345401486382e-05
-2.7212881832383573e-05,-7.359701157838572e-06,1.8975641069118865e-05,-3.4663011660995835e-07,6.876726547488943e-05
-3.094807470915839e-05,-4.688736225944012e-06,1.4580718016077299e-05,-3.0070721095398767e-06,7.101742085069418e-05
-3.370559716131538e-05,8.981275641417596e-06,5.77734635953675e-06,-5.560212230193429e-06,6.802963616792113e-05
-3.52337010554038e-05,2.120363205904141e-05,-1.1176049383720965e-06,-8.057334525801707e-06,6.736830255249515e-05
-3.2919939258135855e-05,3.461620144662447e-05,-3.3507442367408657e-06,-1.1525242371135391e-05,7.061388896545395e-05
-3.338679744047113e-05,5.398874054662883e-05,-5.337808943295386e-06,-1.2682789019891061e-05,7.318682764889672e-05
-3.348369136801921e-05,8.440037345280871e-05,-3.961524726037169e-06,-1.1294177056697663e-05,7.237476529553533e-05
-3.365693919477053e-05,0.0001152165568782948,1.7450030327381683e-06,-6.387414941855241e-06,7.039313641143963e-05
-3.425285467528738e-05,0.00013388969819061458,7.794142220518552e-06,-2.589981022538268e-06,6.827562901889905e-05
-3.9370646845782176e-05,0.00014094452490098774,9.550107279210351e-06,-2.924023874584236e-06,6.672916788375005e-05
-4.3910080421483144e-05,0.00013780641893390566,5.63858748137136e-06,-5.651199444400845e-06,6.579016917385161e-05
-3.901240779669024e-05,0.00012820278061553836,-3.004022119057481e-06,-9.712227438285481e-06,6.703840335831046e-05
-2.7243830118095502e-05,0.00011568510672077537,-9.577995115250815e-06,-1.521246122138109e-05,7.198249659268185e-05
-1.826936932047829e-05,0.00010023266804637387,-9.120599315792788e-06,-1.7199869034811854e-05,7.454098522430286e-05
-1.5471063306904398e-05,7.946810364956036e-05,-5.84560484639951e-06,-1.5721308955107816e-05,6.902025052113459e-05
-1.657521897868719e-05,5.713858990930021e-05,-5.576524472417077e-06,-1.306753620156087e-05,6.059935913071968e-05
-2.042505548160989e-05,3.7423844332806766e-05,-6.711857622576645e-06,-7.206573627627222e-06,5.7029490562854335e-05
-2.5698542231111787e-05,2.092304202960804e-05,-4.240831458446337e-06,2.618156429434748e-07,5.7007135183084756e-05
-3.1334820960182697e-05,2.9068989988445537e-06,-1.0752864909591153e-06,2.8672505436588835e-07,5.629908264381811e-05
-3.704516348079778e-05,-1.6196496289921924e-05,-1.8229685849746602e-07,-8.416230230068322e-06,5.546559259528294e-05
-4.401812839205377e-05,-2.4122708055074327e-05,9.660669775257702e-07,-1.648631769057829e-05,5.671575854648836e-05
-4.4408119720174e-05,-1.7520687833894044e-05,2.024420155066764e-06,-2.009097079280764e-05,5.9115616750204936e-05
-3.698145519592799e-05,-9.72838643065188e-06,1.1777326562878443e-06,-1.9445556972641498e-05,5.942325879004784e-05
-2.9031460144324228e-05,-3.1726021916256286e-06,6.655190532001143e-07,-1.6899235561140813e-05,5.726837844122201e-05
-2.5466442821198143e-05,4.80670223623747e-06,2.0861230041191448e-06,-1.4694020137540065e-05,5.6262764701386914e-05
-2.492924249963835e-05,1.676424108154606e-05,3.818811819655821e-06,-1.4215307601261884e-05,5.6518234487157315e-05
-3.055555862374604e-05,3.303150151623413e-05,7.036853276076727e-06,-9.117542504100129e-06,5.6335578847210854e-05
-4.0357470425078645e-05,3.975171421188861e-05,1.1611236004682723e-05,-4.461497155716643e-06,5.473105557030067e-05
-4.7105619159992784e-05,3.234008181607351e-05,8.541566785424948e-06,-3.3593237276363652e-06,5.474785211845301e-05
-4.5413173211272806e-05,2.318160841241479e-05,2.459252755215857e-06,-4.882234406977659e-06,5.700188557966612e-05
-4.432553396327421e-05,1.7133545043179765e-05,-3.5823259736389446e-07,-9.280650374421384e-06,6.0467380535556003e-05
-4.375501521280967e-05,1.8871207430493087e-05,7.501499226236774e-07,-1.0111423762282357e-05,5.998192500555888e-05
-3.747417576960288e-05,2.626307832542807e-05,2.157438530048239e-06,-7.3463847911625635e-06,5.9683425206458196e-05
-3.2510721212020144e-05,3.1940573535393924e-05,5.68349969398696e-06,-7.749948963464703e-06,6.157315510790795e-05
-3.156334423692897e-05,2.9964157874928787e-05,1.0904450391535647e-05,-1.3832383046974428e-05,6.303830741671845e-05
-3.139906038995832e-05,2.671259608177934e-05,1.5000163330114447e-05,-1.9000550310011022e-05,6.373643554979935e-05
-2.78878360404633e-05,2.447536462568678e-05,1.772918039932847e-05,-2.107462933054194e-05,6.439224671339616e-05
-2.4453298465232365e-05,2.335114731977228e-05,1.5046853150124662e-05,-1.9401761164772324e-05,6.597044557565823e-05
-2.477715679560788e-05,2.638915611896664e-05,1.029655868478585e-05,-1.569695450598374e-05,6.376514647854492e-05
-2.6939522285829298e-05,2.9922270186943933e-05,8.180957593140192e-06,-1.2994395547138993e-05,5.9741320001194254e-05
-2.466312434989959e-05,2.8498594474513084e-05,1.2644246453419328e-05,-1.0743381608335767e-05,5.707129093934782e-05
-1.862591307144612e-05,2.000880158448126e-05,1.8097956854035147e-05,-5.166700248082634e-06,5.959651025477797e-05
-1.5061358681123238e-05,1.274627084058011e-05,1.739718391036149e-05,8.37233358197409e-08,6.435042450902984e-05
-1.119250100600766e-05,1.134282229031669e-05,7.435860425175633e-06,-1.0502907343834522e-06,6.540050526382402e-05
-4.432723017089302e-06,1.4529834515997209e-05,-5.8350819926999975e-06,-5.819288617203711e-06,6.498162838397548e-05
-1.2454627267288743e-06,1.463530588807771e-05,-1.5042569430079311e-05,-1.2502987374318764e-05,6.598719483008608e-05
-2.0330510324129136e-06,1.3419406968750991e-05,-1.9472845451673493e-05,-1.7118920368375257e-05,6.559431494679302e-05
-1.92930974662886e-06,1.437697483197553e-05,-2.0517385564744473e-05,-1.680270543147344e-05,6.258432404138148e-05
-4.406010987167974e-07,1.4959617146814708e-05,-1.8656946849660017e-05,-1.3338902135728858e-05,6.047970600775443e-05
-2.054134711215738e-06,7.1449694587499835e-06,-9.759872227732558e-06,-8.446338142675813e-06,6.288148142630234e-05
-7.28191025700653e-06,-9.224208383784571e-07,6.759003554179799e-06,-9.370662468199953e-08,6.538729940075427e-05
-1.243405495188199e-05,4.104060280951671e-06,2.1452598957694136e-05,1.0166868378291838e-05,6.54314790153876e-05
-1.3961143849883229e-05,1.3319143363332842e-05,2.8983155061723664e-05,1.5610128684784286e-05,6.42469894955866e-05
-1.7049294910975732e-05,1.586687722010538e-05,2.7686915927915834e-05,1.6775524272816256e-05,5.9119982324773446e-05
-2.0900273739243858e-05,1.4319044566946104e-05,2.316475729458034e-05,1.5969899322954006e-05,5.339494236977771e-05
-1.6921965652727522e-05,1.5305151464417577e-05,2.403976941423025e-05,1.139250070991693e-05,5.26583353348542e-05
-1.3460555237543304e-05,2.0645982658606954e-05,2.6299361707060598e-05,5.376311492000241e-06,5.431141471490264e-05
-1.8017293768934906e-05,2.6069077648571692e-05,2.6252690076944418e-05,4.653329597203992e-06,5.532052455237135e-05
-2.289601616212167e-05,3.0626099032815546e-05,2.4292798116221093e-05,7.604881830047816e-06,5.8170175179839134e-05
-2.1340303646866232e-05,3.724203270394355e-05,2.1320724044926465e-05,6.20779110249714e-06,6.41907099634409e-05
-2.1244704839773476e-05,4.587108560372144e-05,2.1267260308377445e-05,1.169703978121106e-06,6.673877214780077e-05
-2.60203469224507e-05,5.391134254750796e-05,2.1348057998693548e-05,-4.608767994795926e-06,6.404866144293919e-05
-3.0208217140170746e-05,5.6851386034395546e-05,1.547973988635931e-05,-8.388577043660916e-06,6.026391565683298e-05
-3.1568553822580725e-05,5.139757558936253e-05,5.80667892791098e-06,-8.977200195658952e-06,5.614027759293094e-05
-3.224238389520906e-05,3.935170025215484e-05,-1.1652217608570936e-06,-1.0151443348149769e-05,5.366986442822963e-05
-3.225968248443678e-05,2.8174399631097913e-05,-3.4411375509080244e-06,-1.0737026059359778e-05,5.530117414309643e-05
-3.0222950954339467e-05,2.3548629542347044e-05,-3.788517233260791e-06,-8.928287570597604e-06,6.0994232626399025e-05
-2.618678263388574e-05,2.5098936021095142e-05,-2.0652466901083244e-06,-7.2046768764266744e-06,6.635793397435918e-05
-2.2411550162360072e-05,2.9567378078354523e-05,7.23073583230871e-07,-9.783656423678622e-06,6.605880480492488e-05
-2.4357765141758136e-05,3.3338565117446706e-05,3.0360806704265997e-06,-1.3860855688108131e-05,6.237620982574299e-05
-3.2812862627906725e-05,3.5603636206360534e-05,4.0834561332303565e-06,-1.3248434697743505e-05,6.099291567807086e-05
-3.9994411054067314e-05,4.1705865442054346e-05,4.236617314745672e-06,-1.0422739251225721e-05,6.13793745287694e-05
-4.0083374187815934e-05,5.407578282756731e-05,2.104386567225447e-06,-1.101024099625647e-05,6.0803769883932546e-05
-3.520635073073208e-05,5.85773195780348e-05,1.7421662050765008e-06,-1.4504177670460194e-05,5.909768879064359e-05
-2.936035889433697e-05,5.044926729169674e-05,6.6437837631383445e-06,-1.6359421351808123e-05,6.0020556702511385e-05
-3.0814484489383176e-05,4.5584762119688094e-05,1.1550411727512255e-05,-1.4822944649495184e-05,6.184040103107691e-05
-3.783484862651676e-05,4.644533328246325e-05,8.773460649535991e-06,-1.4102080967859365e-05,6.0597321862587705e-05
-4.0541053749620914e-05,4.603177512763068e-05,4.121384336031042e-06,-1.6906365999602713e-05,5.810883521917276e-05
-3.577950337785296e-05,4.12468689319212e-05,2.622285592224216e-06,-1.7929427485796623e-05,5.709863398806192e-05
-3.0428234822466038e-05,3.4465829230612144e-05,2.1219891550572356e-06,-1.7365795429213904e-05,5.73526558582671e-05
-2.9166312742745504e-05,3.055896740988828e-05,5.409202003647806e-06,-2.1836971427546814e-05,6.175741145852953e-05
-3.062203904846683e-05,3.551257395884022e-05,2.0944548850820865e-06,-2.692051748454105e-05,6.3845727709122e-05
-2.838631371560041e-05,4.0476745198247954e-05,-9.581484846421517e-06,-2.7251162464381196e-05,6.281391688389704e-05
-2.4240151105914265e-05,3.3811942557804286e-05,-1.8948621800518595e-05,-2.586298796813935e-05,6.261117960093543e-05
-2.3891809178167023e-05,2.192772808484733e-05,-1.735256773827132e-05,-2.2712811187375337e-05,6.131016561994329e-05
-2.4961769668152556e-05,1.5364243154181167e-05,-8.351780707016587e-06,-1.9498382243909873e-05,6.5830179664772e-05
-2.52190566243371e-05,1.8750555682345293e-05,-1.17519505238306e-06,-1.8985305359819904e-05,7.112658204277977e-05
-2.5316005121567287e-05,2.668753222678788e-05,5.550241894525243e-06,-2.1312782337190583e-05,7.064681267365813e-05
-2.8052103516529314e-05,3.2142004783963785e-05,9.056408998731058e-06,-2.4245920940302312e-05,6.485539779532701e-05
-3.361071867402643e-05,3.206629116903059e-05,8.563028131902684e-06,-2.5560430003679357e-05,5.848173168487847e-05
-4.0969775000121444e-05,2.6612849978846498e-05,7.681310307816602e-06,-2.3702379621681757e-05,5.4574411478824914e-05
-4.394961797515862e-05,2.2394258849089965e-05,7.74580712459283e-06,-1.932376835611649e-05,5.214225166128017e-05
-4.287081173970364e-05,2.570281139924191e-05,7.390172868326772e-06,-1.6831229004310444e-05,5.056344889453612e-05
-4.087570050614886e-05,3.269249282311648e-05,7.0481087277585175e-06,-1.671999598329421e-05,5.0585087592480704e-05
-3.912164902430959e-05,3.512477996991947e-05,6.782933269278146e-06,-1.7276257494813763e-05,5.2218838391127065e-05
-3.542251215549186e-05,3.3634980354690924e-05,2.926954948634375e-06,-1.6544880054425448e-05,5.382208473747596e-05
-3.169874253217131e-05,3.702172398334369e-05,-7.468409876310034e-06,-1.4245020793168806e-05,5.392877937993035e-05
-3.2834126614034176e-05,4.343658292782493e-05,-1.884529774542898e-05,-1.330556369794067e-05,5.0613896746654063e-05
-3.457869024714455e-05,4.2122504964936525e-05,-2.2785738110542297e-05,-1.715352846076712e-05,4.803180127055384e-05
-3.237225246266462e-05,3.508623194647953e-05,-1.8856282622436993e-05,-2.3382961444440298e-05,5.1803213864332065e-05
-2.402402606094256e-05,2.835976738424506e-05,-9.439793757337611e-06,-2.4652270440128632e-05,5.699557368643582e-05
-1.5704374163760804e-05,2.1051404473837465e-05,3.2028987106969e-07,-1.8366792573942803e-05,5.864291961188428e-05
-1.6882999261724763e-05,1.5541798347840086e-05,5.363038326322567e-06,-1.2239151146786753e-05,6.163168291095644e-05
-2.1500854927580804e-05,1.3485049748851452e-05,6.029493761161575e-06,-1.0651023330865428e-05,6.405683961929753e-05
-2.0358918845886365e-05,1.6006168152671307e-05,6.551049864356173e-06,-1.1513250683492515e-05,6.41703445580788e-05
-1.6607733414275572e-05,2.427497020107694e-05,1.3818992556480225e-05,-1.145493661169894e-05,6.428835331462324e-05
-1.5061593330756295e-05,2.8753740480169654e-05,2.0884934201603755e-05,-8.886685463949107e-06,6.709031731588766e-05
-1.371215421386296e-05,2.2036387235857546e-05,1.874827648862265e-05,-1.0599784218356945e-05,7.010147965047508e-05
-1.3737930203205906e-05,1.5967492799973115e-05,1.48977978824405e-05,-1.397400046698749e-05,7.131744496291503e-05
-1.2252932720002718e-05,2.192779356846586e-05,1.605661236681044e-05,-1.2235100257385056e-05,7.108115823939443e-05
-1.116021303460002e-05,3.115470826742239e-05,1.7731779735186137e-05,-9.467580639466178e-06,6.965049396967515e-05
-1.7581794963916764e-05,3.031767118955031e-05,1.4716039004269987e-05,-6.815126198489452e-06,6.705337000312284e-05
-2.382599086558912e-05,2.3840912035666406e-05,1.0310785910405684e-05,-5.364858225220814e-06,6.584784568985924e-05
-2.665186912054196e-05,2.1351756004150957e-05,5.932866315561114e-06,-4.826280019187834e-06,6.815488450229168e-05
-2.8450958780013025e-05,2.289957774337381e-05,5.0689068302745e-06,-2.4977857719932217e-06,6.922122702235356e-05
-3.278784788562916e-05,2.5553657906129956e-05,7.249266218423145e-06,-1.6683547983120661e-06,6.711258902214468e-05
-3.712197212735191e-05,2.9230574000393972e-05,1.136456285166787e-05,-1.6925957879720954e-06,6.448831845773384e-05
-4.2094408854609355e-05,3.1893927371129394e-05,1.2050637451466173e-05,-2.9267869194882223e-06,6.694928742945194e-05
-4.949969661538489e-05,3.299366289866157e-05,6.890873919473961e-06,-6.655572178715374e-06,7.105505937943235e-05
-5.3127605497138575e-05,3.543137063388713e-05,1.4481761922979786e-07,-1.0182873666053638e-05,7.3501534643583e-05
-4.650812115869485e-05,3.433671372476965e-05,-1.7211602880706778e-06,-1.0533049135119654e-05,7.567965803900734e-05
-3.511678733048029e-05,3.019460928044282e-05,2.9349646410992136e-06,-9.53558355831774e-06,7.640883995918557e-05
-2.7011799829779193e-05,3.1573268643114716e-05,8.172291018126998e-06,-1.139308551501017e-05,7.162395195337012e-05
-2.5316159735666588e-05,3.651554652606137e-05,9.998377208830789e-06,-1.4804016245761886e-05,6.347045564325526e-05
-2.9571299819508567e-05,3.6129138607066125e-05,8.091732524917461e-06,-1.6465897715534084e-05,5.952390711172484e-05
-3.4755710657918826e-05,3.390241545275785e-05,7.065450972731924e-06,-1.5667639672756195e-05,6.406027387129143e-05
-3.649699647212401e-05,3.22950363624841e-05,9.428713383385912e-06,-1.2566653822432272e-05,7.06931677996181e-05
-3.27300549542997e-05,2.674589450180065e-05,1.0659588951966725e-05,-8.900937245925888e-06,7.14521884219721e-05
-2.276125451317057e-05,2.2023557903594337e-05,5.543920906347921e-06,-9.645583304518368e-06,6.635456520598382e-05
-9.798257451620884e-06,2.0913250409648754e-05,1.615402283050571e-07,-1.0203228157479316e-05,6.202734948601574e-05
-4.374769105197629e-06,2.0077706722076982e-05,-2.9078714760544244e-06,-7.050381100270897e-06,6.371895142365247e-05
-3.900488081853837e-06,2.357709854550194e-05,-6.6496072577137966e-06,-9.566299922880717e-06,6.696445780107751e-05
2.9353893538086595e-08,3.211004877812229e-05,-7.613247817062074e-06,-1.6608842997811735e-05,7.07286671968177e-05
4.3427403397799935e-06,3.200831270078197e-05,-1.5795449144206941e-06,-1.5998755770851858e-05,7.341624586842954e-05
4.956330485583749e-06,1.907160913106054e-05,5.514181339094648e-06,-1.0663539796951227e-05,7.303030724870041e-05
-4.281855012777669e-07,1.0614954589982517e-05,9.805460649658926e-06,-8.525796147296205e-06,7.21388278179802e-05
-8.07126343715936e-06,1.3159307854948565e-05,8.294287908938713e-06,-7.026144885458052e-06,6.930324161658064e-05
-1.4648974683950655e-05,1.3264490007713903e-05,2.2968704342929414e-06,-5.549751676880987e-06,6.576552550541237e-05
-2.1269379431032576e-05,1.2194544069643598e-05,-1.5428815913764993e-06,-5.612946551991627e-06,6.381523417076096e-05
-2.091931673930958e-05,1.5932142559904605e-05,-2.6803495529748034e-06,-6.672356448689243e-06,6.170011329231784e-05
-1.3691551430383697e-05,2.0397836124175228e-05,-1.9993726709799375e-06,-8.240060196840204e-06,6.060862142476253e-05
-1.7814486454881262e-06,2.3261374735739082e-05,1.0883328371846801e-07,-1.0260922863380983e-05,6.081075480324216e-05
7.4472463893471286e-06,2.0576571841957048e-05,4.41172602450024e-07,-1.3591064998763613e-05,6.200331699801609e-05
1.0524221579544246e-05,1.2119986422476359e-05,-2.421018621134863e-07,-1.3867545931134373e-05,6.086135908844881e-05
4.909742074232781e-06,5.197993687033886e-06,-1.4697474171043723e-07,-6.80861558066681e-06,6.116928852861747e-05
-5.991582838760223e-06,5.603956196864601e-06,7.01471037700685e-07,3.1685826229477243e-07,6.234311149455607e-05
-1.587200677022338e-05,1.1266701221757103e-05,1.0088400586028001e-06,7.855786776644891e-08,6.23716987320222e-05
-2.2194704797584563e-05,1.9418017473071814e-05,3.076500888710143e-06,-4.122821337659843e-06,6.251142622204497e-05
-2.4200149709940888e-05,2.9909781005699188e-05,7.639194336661603e-06,-7.749514224997256e-06,6.139899051049724e-05
-2.461179974488914e-05,4.016501770820469e-05,9.048296305991244e-06,-1.0712735274864826e-05,6.0583999584196135e-05
-2.5451865440118127e-05,4.466958489501849e-05,5.697537744708825e-06,-1.3091029359202366e-05,6.155017763376236e-05
-2.6567895474727266e-05,4.2796538764378056e-05,4.281941528461175e-06,-1.3646007573697716e-05,6.273129110923037e-05
-2.39640776271699e-05,4.257802356733009e-05,8.646483365737367e-06,-9.646648322814144e-06,6.14378004684113e-05
-2.3123988285078667e-05,4.768445433001034e-05,1.179404353024438e-05,-3.401016329007689e-06,5.837839125888422e-05
-2.6908750442089513e-05,4.969483052263968e-05,1.2105861060263123e-05,-4.333582637627842e-06,5.528069596039131e-05
-3.193896554876119e-05,4.6614026359748095e-05,1.2251670341356657e-05,-1.0699979611672461e-05,5.550459536607377e-05
-3.3077027183026075e-05,4.63084907096345e-05,1.287447230424732e-05,-1.2881052498414647e-05,5.84903136768844e-05
-3.214927710359916e-05,5.0827678933274e-05,1.179941955342656e-05,-1.001915370579809e-05,5.9452446294017136e-05
-3.2724750781198964e-05,5.920132389292121e-05,8.744636943447404e-06,-7.119597739801975e-06,5.754948142566718e-05
-3.0285800676210783e-05,6.388998008333147e-05,6.481526725110598e-06,-7.28908207747736e-06,5.629806764773093e-05
-2.3289114324143156e-05,6.0571641370188445e-05,6.917889095348073e-06,-7.1589279286854435e-06,5.617808346869424e-05
-2.214621963503305e-05,4.24523459514603e-05,8.306352356157731e-06,-5.5183895710797515e-06,5.514008444151841e-05
-2.6102272386197e-05,1.3494068298314232e-05,9.85189853963675e-06,-4.97216205985751e-06,5.5477947171311826e-05
-2.832364225469064e-05,1.9456224435998593e-06,1.3116556146997027e-05,-6.427393600461073e-06,6.234175089048222e-05
-2.779981878120452e-05,1.255914230569033e-05,1.6085670722532086e-05,-7.858120625314768e-06,6.743218546034768e-05
-2.9608250770252198e-05,2.1994284907123074e-05,1.205864373332588e-05,-1.0031521014752798e-05,6.919886072864756e-05
-3.16023470077198e-05,2.0221483282512054e-05,7.0881501414987724e-06,-1.352586241409881e-05,6.861796282464638e-05
-2.5082379579544067e-05,1.8051503502647392e-05,5.616907856165199e-06,-1.6760463040554896e-05,6.619346822844818e-05
-1.3448588106257375e-05,2.000131098611746e-05,6.547160865011392e-06,-1.835270995798055e-05,6.353078788379207e-05
-3.865035068884026e-06,2.185835001000669e-05,1.0238541108265053e-05,-1.8587850718176924e-05,6.046128328307532e-05
-5.541967766475864e-06,2.07803077501012e-05,1.0762375495687593e-05,-1.792034163372591e-05,5.713623613701202e-05
-1.6616218999843113e-05,2.1016025129938498e-05,8.980600796348881e-06,-1.4650963748863433e-05,5.3243624279275537e-05
-2.543503069318831e-05,2.2944568627281114e-05,8.67243215907365e-06,-1.0707941328291781e-05,4.9709469749359414e-05
-2.8553993615787476e-05,2.2306552637019195e-05,1.2042230991937686e-05,-8.522239113517571e-06,4.6284603740787134e-05
-3.1673629564465955e-05,2.3440121367457323e-05,1.4106602066021878e-05,-8.424655788985547e-06,4.685603562393226e-05
-3.716282299137674e-05,3.0525290640071034e-05,1.3229858268459793e-05,-8.509448889526539e-06,5.12601800437551e-05
-3.8366812077583745e-05,3.797901081270538e-05,1.0521979675104376e-05,-7.585980711155571e-06,5.369866994442418e-05
-3.395609383005649e-05,3.7379712011897936e-05,6.088765530876117e-06,-5.318539479048923e-06,4.9293706979369745e-05
-2.806232078000903e-05,2.8782225854229182e-05,3.3111771244875854e-06,-4.7620051191188395e-06,4.3675136112142354e-05
-2.315786696271971e-05,1.6336553017026745e-05,1.636045794839447e-06,-6.728174867021153e-06,4.342049942351878e-05
-2.2445352442446165e-05,5.2854520617984235e-06,-2.817008862621151e-06,-8.619700565759558e-06,4.779877417604439e-05
-2.81681350315921e-05,2.2918754893908044e-06,-5.568742835748708e-06,-5.654655979014933e-06,5.186101407161914e-05
-3.378739711479284e-05,1.0682815627660602e-05,2.09318181987328e-06,6.189550845192571e-07,5.374492684495635e-05
-3.412486330489628e-05,2.0644085452659056e-05,1.2461072401492856e-05,1.5746346662126598e-06,5.487227826961316e-05
-2.8164788091089576e-05,2.084890911646653e-05,1.1663168152153958e-05,-2.1271323475957615e-06,5.5333068303298205e-05
-2.0687077267211862e-05,1.8553086192696355e-05,2.5814067612373037e-06,-6.910291176609462e-06,5.580149809247814e-05
-2.297198625456076e-05,2.62242610915564e-05,-1.2692333939412492e-06,-9.242826308764052e-06,5.550432615564205e-05
-3.299502714071423e-05,4.049878771184012e-05,4.8305601012543775e-06,-6.731632765877293e-06,4.937503035762347e-05
-4.444363003131002e-05,5.493177377502434e-05,1.4492773516394664e-05,-3.4892443636636017e-06,4.032056676805951e-05
-5.0211390771437436e-05,6.006574767525308e-05,1.728867573547177e-05,-3.5238315376773244e-06,3.708303484017961e-05
-4.683932274929248e-05,5.537116521736607e-05,1.2651885299419519e-05,-7.010480203462066e-06,3.7754634831799194e-05
-3.9462749555241317e-05,4.534001345746219e-05,6.272224709391594e-06,-1.1093831744801719e-05,3.6945039028069004e-05
-3.5570024920161813e-05,3.532001210260205e-05,3.747896244021831e-06,-1.1371229447831865e-05,4.014940350316465e-05
-3.302546247141436e-05,2.8122851290390827e-05,5.712424353987444e-06,-1.046255692926934e-05,4.537565473583527e-05
-2.4183496861951426e-05,1.6598043657722883e-05,6.452284651459195e-06,-1.360569331154693e-05,4.9433932872489095e-05
-1.2095430975023191e-05,1.3260045307106338e-05,6.7395362748357e-06,-1.8535751223680563e-05,5.0880160415545106e-05
-3.1410875180881703e-06,2.3734917704132386e-05,8.352526492672041e-06,-2.0814281015191227e-05,4.9712034524418414e-05
-1.2151659802839276e-06,3.645431934273802e-05,9.266826964449137e-06,-1.7884220142150298e-05,5.020679236622527e-05
-2.106042074956349e-06,4.152735709794797e-05,8.316121238749474e-06,-1.3812929864798207e-05,5.1734252338064834e-05
-2.134638634743169e-06,3.9760441723046824e-05,4.9552654672879726e-06,-1.4035397725820076e-05,5.3133560868445784e-05
-5.0834041758207604e-06,3.4172691812273115e-05,7.455726063199108e-07,-1.5067618733155541e-05,5.2987117669545114e-05
-1.284608333662618e-05,2.701399898796808e-05,-2.230002564829192e-06,-1.3052252143097576e-05,5.1871302275685593e-05
-2.0494180716923438e-05,1.3796355233353097e-05,-2.798822833938175e-06,-9.307202162744943e-06,5.051123662269674e-05
-2.5367791749886237e-05,-5.099113423057133e-06,-1.1460316500233603e-06,-9.028150998346973e-06,4.9629434215603396e-05
-3.137072053505108e-05,-1.7551863493281417e-05,2.6355855879955925e-06,-1.1554600860108621e-05,4.683822771767154e-05
-3.765726796700619e-05,-1.570878885104321e-05,9.822078027355019e-06,-1.1189542419742793e-05,4.454054942470975e-05
-3.9432918129023165e-05,4.316859474329249e-07,1.6003736163838767e-05,-8.50702872412512e-06,4.686344982474111e-05
-3.646302138804458e-05,2.3459604562958702e-05,1.433296529285144e-05,-1.0286966244166251e-05,5.194154073251411e-05
-3.0449287805822678e-05,4.299799547879957e-05,7.795393685228191e-06,-1.2685390174738131e-05,5.472047996590845e-05
-2.395675255684182e-05,5.518666876014322e-05,1.7099326896641287e-06,-1.1321360943838954e-05,5.7110137277049944e-05
-2.349512215005234e-05,6.062174725229852e-05,-2.7387657155486522e-06,-1.175516354123829e-05,6.199659401318058e-05
-2.8949107218068093e-05,5.914096982451156e-05,-3.6554067719407612e-06,-1.2746143511321861e-05,6.39031786704436e-05
-3.6695357266580686e-05,5.709130346076563e-05,-9.962678859665175e-07,-1.2432591574906837e-05,6.115143332863227e-05
-4.120641460758634e-05,5.7554520026315004e-05,2.6498416900722077e-06,-1.2577183952089399e-05,5.981011054245755e-05
-4.355162673164159e-05,5.6021515774773434e-05,8.335226993949618e-06,-1.478638660046272e-05,6.064912668080069e-05
-4.749149229610339e-05,5.198972576181404e-05,1.8579934476292692e-05,-1.652272476349026e-05,6.372133793774992e-05
-4.893232471658848e-05,4.874050500802696e-05,2.2720996639691293e-05,-1.5563353372272104e-05,6.722692342009395e-05
-4.397362135932781e-05,4.116192212677561e-05,1.8464719687472098e-05,-1.1913895832549315e-05,6.782455602660775e-05
-3.967602606280707e-05,3.1326460884884e-05,1.3480902453011367e-05,-5.846948170074029e-06,6.497230060631409e-05
-4.134594928473234e-05,2.1758221919299103e-05,9.669318387750536e-06,-3.1985200621420518e-06,6.23297892161645e-05
-4.462508877622895e-05,1.1791536053351592e-05,8.104022526822519e-06,-2.6551822429610183e-06,6.314567144727334e-05
-4.8340494686271995e-05,7.068901140883099e-06,4.743511453852989e-06,-2.210307684435975e-06,6.300894165178761e-05
-5.6379019952146336e-05,1.2481507837946992e-05,1.6511928606632864e-06,-1.1942851187995984e-06,6.123750790720806e-05
-6.385684537235647e-05,1.932835584739223e-05,-1.4595555342111766e-07,-1.944299810929806e-06,6.135178409749642e-05
-5.868492735316977e-05,2.3465478079742752e-05,-4.399656972964294e-06,-6.725641469529364e-06,6.339566607493907e-05
-4.7966987040126696e-05,2.2358066416927613e-05,-8.05445779406e-06,-8.836990673444234e-06,6.551457045134157e-05
-3.9873597415862605e-05,1.9487790268613026e-05,-7.356328296737047e-06,-8.446247193205636e-06,6.554512219736353e-05
-3.482844476820901e-05,2.178722388634924e-05,-4.548708602669649e-06,-7.975389053171966e-06,6.144886719994247e-05
-2.698723619687371e-05,2.7424131985753775e-05,-6.061651674826862e-06,-8.441112186119426e-06,5.911521293455735e-05
-2.1065568944322877e-05,3.178262340952642e-05,-1.3904020306654274e-05,-7.808023838151712e-06,5.9775968111352995e-05
-1.865715967142023e-05,3.113110869890079e-05,-2.4052906155702658e-05,-7.087679932737956e-06,6.083468542783521e-05
-1.5078054275363684e-05,2.676797339518089e-05,-3.06554684357252e-05,-8.547816833015531e-06,6.127500819275156e-05
-9.790335752768442e-06,2.0911849787808023e-05,-2.8338448828435503e-05,-1.2542820513772313e-05,6.017961641191505e-05
-1.7253846635867376e-06,1.582992626936175e-05,-1.7691827451926656e-05,-1.4341641872306354e-05,5.857041469425894e-05
7.745034054096323e-06,1.1469445780676324e-05,-6.91448622092139e-06,-1.0540264156588819e-05,6.0091446357546374e-05
1.063706076820381e-05,8.91671243152814e-06,3.195882982254261e-06,-6.669708454865031e-06,6.28631969448179e-05
2.3970508209458785e-06,8.059508218138944e-06,1.6069025150500238e-05,-8.378910933970474e-06,6.35709657217376e-05
-1.0948596354865003e-05,7.105819804564817e-06,2.415326343907509e-05,-1.1351534340064973e-05,6.433556700358167e-05
-2.5000819732667878e-05,2.5750173335836735e-06,2.509803744032979e-05,-1.0686519999580923e-05,6.631142605328932e-05
-3.066374483751133e-05,1.9944557152484776e-06,2.6655918190954253e-05,-7.859144716348965e-06,7.066858961479738e-05
-2.4054921595961787e-05,6.873638540128013e-06,2.9993459975230508e-05,-5.802589384984458e-06,7.330528751481324e-05
-1.584694291523192e-05,1.1252998774580192e-05,3.071098035434261e-05,-7.810561328369658e-06,6.996379670454189e-05
-2.0312430933699943e-05,1.2989547940378543e-05,3.1561285140924156e-05,-9.125338692683727e-06,6.678357749478891e-05
-2.960073652502615e-05,1.9811983293038793e-05,3.161451604682952e-05,-7.355882189585827e-06,6.710073648719117e-05
-3.47325621987693e-05,3.2092517358250916e-05,2.9321687179617584e-05,-7.658839422219899e-06,6.662615487584844e-05
-3.355506487423554e-05,3.986750016338192e-05,2.6948877348331735e-05,-9.34122726903297e-06,6.536547152791172e-05
-3.2600233680568635e-05,4.23268684244249e-05,2.514624247851316e-05,-5.879247510165442e-06,6.408878834918141e-05
-3.2915409974521026e-05,4.3346823076717556e-05,2.6273881303495727e-05,5.7386468910181065e-08,6.582849891856313e-05
-2.339596176170744e-05,4.638772952603176e-05,2.247720658488106e-05,9.870453823168646e-07,7.042232755338773e-05
-1.5077661373652518e-05,5.233076080912724e-05,1.4145946806820575e-05,-3.957166882173624e-06,7.002182974247262e-05
-1.4023920812178403e-05,5.6551358284195885e-05,9.894663890008815e-06,-7.1862918957776856e-06,6.311703327810392e-05
-1.1829518371087033e-05,5.350801438908093e-05,1.0416743862151634e-05,-5.7630982155387755e-06,5.5931774113560095e-05
-1.1712352716131136e-05,4.5463737478712574e-05,1.001186956273159e-05,-4.654531039705034e-06,5.367670746636577e-05
-1.6499730918440036e-05,4.171229375060648e-05,8.648578841530252e-06,-8.50796186568914e-06,5.462595072458498e-05
-2.2653939595329575e-05,4.3824067688547075e-05,8.1373063949286e-06,-1.3385130841925275e-05,5.50113691133447e-05
-2.5533290681778453e-05,4.108540451852605e-05,5.422286449174862e-06,-1.4485894098470453e-05,5.494145443663001e-05
-2.8474491045926698e-05,3.326914884382859e-05,2.5029448806890287e-06,-1.3107120139466133e-05,5.386248813010752e-05
-3.4080912882927805e-05,3.4824835893232375e-05,3.977788765041623e-06,-1.2842500836995896e-05,5.301289274939336e-05
-4.12457920901943e-05,4.944061583955772e-05,9.542613042867742e-06,-1.4409497453016229e-05,5.3081035730428994e-05
-4.546027776086703e-05,6.13430529483594e-05,1.3799648513668217e-05,-1.5739848095108755e-05,5.267259257379919e-05
-4.22959346906282e-05,6.164340447867289e-05,1.2263565622561146e-05,-1.646203236305155e-05,5.2610394050134346e-05
-3.3580901799723506e-05,5.505424996954389e-05,4.844130671699531e-06,-1.409602009516675e-05,5.4802298109279945e-05
-2.337948535569012e-05,4.846166120842099e-05,-1.5541241964456276e-06,-1.0191976798523683e-05,5.9325207985239103e-05
-1.403044916514773e-05,4.396333315526135e-05,-4.282587269699434e-06,-9.22609706321964e-06,6.103406485635787e-05
-6.628573828493245e-06,3.7353231164161116e-05,-4.485020326683298e-06,-1.1783769878093153e-05,5.701057307305746e-05
-1.109445838665124e-05,2.990027132909745e-05,-4.484357305045705e-06,-1.54872232087655e-05,5.272855923976749e-05
-3.3471500501036644e-05,2.2959775378694758e-05,-4.254051418683957e-06,-1.9130913642584346e-05,4.954362884745933e-05
-6.187699182191864e-05,1.0210352229478303e-05,-7.448994438163936e-06,-1.936739317898173e-05,4.848525350098498e-05
-7.66326193115674e-05,6.525784101540921e-06,-1.2937168321514037e-05,-1.800784229999408e-05,4.821764014195651e-05
-7.135236955946311e-05,2.591274278529454e-05,-1.0073214980366174e-05,-2.1954230760456994e-05,4.61001654912252e-05
-5.697459710063413e-05,3.318471135571599e-05,-3.5695334190677386e-06,-2.2402153263101354e-05,4.672737850341946e-05
-4.6350112825166434e-05,1.0200409633398522e-05,3.0578733003494563e-06,-1.789326597645413e-05,5.117697946843691e-05
-3.718006701092236e-05,-1.2703150787274353e-05,4.419085144036217e-06,-1.7404710888513364e-05,5.443282861961052e-05
-3.077497603953816e-05,-1.2247586710145697e-05,-2.673405674613605e-07,-1.8968972653965466e-05,5.662390685756691e-05
-2.4982458853628486e-05,5.14952205321606e-07,-1.422485979674093e-06,-1.5620644262526184e-05,6.0476148064481094e-05
-1.4936153093003668e-05,5.398037046688842e-06,-1.090770410883124e-06,-9.44612838793546e-06,6.329554889816791e-05
-8.711575901543256e-06,1.4175291653373279e-05,1.7888921775011113e-06,-7.91414004197577e-06,6.549569661729038e-05
-4.765490757563384e-06,3.497689249343239e-05,5.150423021405004e-06,-8.664066626806743e-06,6.818069232394919e-05
-2.051820047199726e-06,5.349814455257729e-05,4.122853624721756e-06,-1.0858258065127302e-05,6.864952592877671e-05
-1.8102302874467568e-06,4.909576819045469e-05,-1.5636295813692414e-07,-1.2825216799683403e-05,6.513274274766445e-05
4.776074433721078e-07,2.8487256713560782e-05,-1.6619578673271462e-06,-1.0743744496721774e-05,6.260476220631972e-05
8.049977623159066e-06,1.1712751984305214e-05,-1.3287251476867823e-06,-6.180515811138321e-06,6.305194983724505e-05
1.8389328033663332e-05,7.708512384851929e-06,-1.9645076463348232e-06,-6.545367341459496e-06,6.531663530040532e-05
2.194040825997945e-05,1.8069007637677714e-05,-1.535388719275943e-06,-8.808610800770111e-06,6.651454168604687e-05
1.704341048025526e-05,3.068075602641329e-05,-9.452374882812364e-08,-7.306347015401116e-06,6.614667654503137e-05
4.656063538277522e-06,3.3351425372529775e-05,1.4985525922384113e-06,-3.423323278184398e-06,6.612779543502256e-05
-1.5354960851254873e-05,2.9038203138043173e-05,4.747560524265282e-06,-1.9771032384596765e-06,6.602332723559812e-05
-3.860078504658304e-05,2.6857869670493528e-05,6.7439646045386326e-06,-3.6649321373261046e-06,6.515147106256336e-05
-5.5167311074910685e-05,3.089027086389251e-05,6.472335371654481e-06,-4.676020580518525e-06,6.278469663811848e-05
-5.978596891509369e-05,4.0083261410472915e-05,9.356989721709397e-06,-4.881869244854897e-06,6.083897824282758e-05
-5.320840864442289e-05,4.64819349872414e-05,1.1850615010189358e-05,-5.854504252056358e-06,6.149894034024328e-05
-4.440566772245802e-05,5.6431810662616044e-05,1.0277872206643224e-05,-8.489015272061806e-06,6.13755255471915e-05
-3.9172540709841996e-05,7.068043487379327e-05,9.318913726019673e-06,-9.832689102040604e-06,5.952129140496254e-05
-3.352510975673795e-05,7.900008495198563e-05,1.0288990779372398e-05,-8.600800356362015e-06,5.83342116442509e-05
-2.649961425049696e-05,8.430655725533143e-05,8.26322957436787e-06,-8.461748620902654e-06,5.8504650951363146e-05
-2.1857578758499585e-05,8.920753316488117e-05,4.135996277909726e-06,-1.208217963721836e-05,5.8951223763870075e-05
-3.212717274436727e-05,8.966252789832652e-05,-7.028863819869002e-07,-1.5574583812849596e-05,5.5707023420836776e-05
-4.6468958316836506e-05,8.849448204273358e-05,-6.245678378036246e-06,-1.6232934285653755e-05,5.318079638527706e-05
-4.466539394343272e-05,7.753405225230381e-05,-1.096274263545638e-05,-1.7857215425465256e-05,5.380854054237716e-05
-2.8737633329001255e-05,5.1882394473068416e-05,-1.275879822060233e-05,-1.778507612471003e-05,5.6213739298982546e-05
-1.1636225281108636e-05,1.7607815607334487e-05,-1.611809420865029e-05,-1.4018124602444004e-05,5.8594479924067855e-05
-1.4880296248520608e-06,-1.797852928575594e-05,-1.2238640010764357e-05,-1.252692163689062e-05,5.984965537209064e-05
7.184977675933624e-06,-3.862132507492788e-05,-3.4165889672976846e-08,-1.1742269634851255e-05,6.03368753218092e-05
8.291542144434061e-06,-4.859452383243479e-05,6.4474829741811845e-06,-1.0117791134689469e-05,6.14860255154781e-05
-3.4297984257136704e-06,-6.303042755462229e-05,4.532450475380756e-06,-6.2462918322125915e-06,6.300895620370284e-05
-1.7790245692594908e-05,-7.443911454174668e-05,2.8461295187298674e-06,-4.657713361666538e-06,6.169774860609323e-05
-2.980465069413185e-05,-7.24496494513005e-05,9.202691217069514e-06,-6.736525392625481e-06,5.944651275058277e-05
-4.017162063973956e-05,-5.843325925525278e-05,1.7863971152110025e-05,-7.915948117442895e-06,5.876587238162756e-05
-4.657614044845104e-05,-3.998174724983983e-05,2.2261292542680167e-05,-6.4005766944319475e-06,5.714104190701619e-05
-4.583668851410039e-05,-2.7669029805110767e-05,2.05881915462669e-05,-7.009125965851126e-06,5.538225013879128e-05
-4.277716652723029e-05,-2.67725954472553e-05,1.8184793589171022e-05,-1.1267205081821885e-05,5.5537591833854094e-05
-4.653319774661213e-05,-2.1950892914901488e-05,1.6580868759774603e-05,-1.5620733393006958e-05,5.609360960079357e-05
-5.283699283609167e-05,6.317565294011729e-06,1.4657298379461281e-05,-1.7562138964422047e-05,5.859357406734489e-05
-5.4297561291605234e-05,4.8187186621362343e-05,1.2934401638631243e-05,-1.4364702110469807e-05,6.319606472970918e-05
-5.028859595768154e-05,7.446156814694405e-05,1.3711876817978919e-05,-7.358979928540066e-06,6.457693234551698e-05
-3.824711893685162e-05,7.252450450323522e-05,1.2599850379046984e-05,-4.558444288704777e-06,5.920885450905189e-05
-2.4532526367693208e-05,5.619027797365561e-05,7.58436954129138e-06,-9.473770660406444e-06,5.269453322398476e-05
-2.6190822609351017e-05,4.862052446696907e-05,6.175783710204996e-06,-1.4639992514275946e-05,4.972389797330834e-05
-4.607188020600006e-05,5.4720003390684724e-05,9.136337212112267e-06,-1.6850937754497863e-05,5.105858508613892e-05
-6.163949728943408e-05,5.6123724789358675e-05,1.2568753845698666e-05,-1.7200121874338947e-05,5.421435707830824e-05
-5.797082849312574e-05,4.149095911998302e-05,1.4916587133484427e-05,-1.75249224412255e-05,5.4657055443385616e-05
-5.0166472647106275e-05,2.3590650016558357e-05,1.4627331438532565e-05,-1.295445235882653e-05,5.5509870435344055e-05
-5.113990846439265e-05,1.8113314581569284e-05,1.4265412573877256e-05,-9.477877028984949e-06,5.684450297849253e-05
-4.8680129111744463e-05,2.388713983236812e-05,1.4870363884256221e-05,-1.5112575965758879e-05,5.3769756050314754e-05
-3.692583049996756e-05,2.95158115477534e-05,1.3024749932810664e-05,-1.8563488993095234e-05,5.248640081845224e-05
-1.8073988030664623e-05,2.9138469471945427e-05,1.047787009156309e-05,-1.5883355445112102e-05,5.610440348391421e-05
6.691672297165496e-06,2.952748582174536e-05,7.11347001924878e-06,-1.4015986380400136e-05,6.462854071287438e-05
2.7305401090416126e-05,3.0266108296927996e-05,3.2278990147460718e-06,-1.3242584827821702e-05,7.487498078262433e-05
3.870412547257729e-05,3.413311060285196e-05,-3.783620172725932e-07,-1.2597646673384588e-05,7.779954466968775e-05
4.9446614866610616e-05,4.1711595258675516e-05,-4.607869868777925e-06,-1.2839114788221195e-05,7.195659418357536e-05
5.796968616778031e-05,4.968345820088871e-05,-6.436744115490001e-06,-1.6350075384252705e-05,6.424035382224247e-05
5.239478559815325e-05,5.380206857807934e-05,-3.415327228140086e-06,-2.157168637495488e-05,5.987429904052988e-05
3.2633459341013804e-05,4.948573769070208e-05,1.8603142279971507e-06,-2.7193496862309985e-05,5.730836346629076e-05
8.359512321476359e-06,3.6415556678548455e-05,6.656157438555965e-06,-2.9860450013075024e-05,5.678979869117029e-05
-1.3159649824956432e-05,2.127759034920018e-05,9.239186510967556e-06,-2.5826398996287026e-05,5.975823660264723e-05
-2.66923652816331e-05,1.6260519259958528e-05,1.1370437277946621e-05,-1.8042921510641463e-05,6.590990233235061e-05
-3.4479813621146604e-05,2.131891596945934e-05,1.4388990166480653e-05,-9.173067155643366e-06,6.895657861605287e-05
-4.245312447892502e-05,2.4192171622416936e-05,1.7257611034438014e-05,-3.3442306630604435e-06,6.594669685000554e-05
-4.9528676754562184e-05,2.4684328309376724e-05,1.7305810615653172e-05,-2.544632252465817e-06,6.071741881896742e-05
-5.132719161338173e-05,3.5520588426152244e-05,1.3184577255742624e-05,-2.8157871838629944e-06,5.814290125272237e-05
-4.710102439275943e-05,4.9765159928938374e-05,6.881116860313341e-06,-1.959119515504426e-07,5.5668671848252416e-05
-3.935409404220991e-05,5.236730066826567e-05,1.7224165276275016e-06,-9.974933163903188e-07,5.201787644182332e-05
-2.9668321076314896e-05,4.195529982098378e-05,3.792707161665021e-07,-7.82254028308671e-06,5.1195140258641914e-05
-2.0490628230618313e-05,2.9689670554944314e-05,2.2894471385370707e-06,-1.1646750863292255e-05,5.2716433856403455e-05
-1.326539131696336e-05,2.7090503863291815e-05,2.2593715129914926e-06,-1.0073787962028291e-05,5.345172030501999e-05
-7.39233655622229e-06,3.670618389151059e-05,-1.6572613503740286e-06,-5.454229722090531e-06,5.3516560001298785e-05
3.2713316500121437e-07,4.572235411615111e-05,-3.142414016110706e-06,-1.6032473695304361e-06,5.516944656847045e-05
9.447958291275427e-06,4.673169678426348e-05,-8.674738296576834e-07,-2.8600607038242742e-06,5.897548544453457e-05
1.718724161037244e-05,5.0761340389726683e-05,2.7152370876137866e-06,-3.622234544309322e-06,6.478173600044101e-05
6.132911494205473e-06,5.498661266756244e-05,1.0768867468868848e-05,-9.410587722413766e-07,6.635067256866023e-05
-2.937875615316443e-05,5.306590173859149e-05,1.7177855625050142e-05,1.2761092875734903e-06,6.308103183982894e-05
-6.348675378831103e-05,4.4988068111706525e-05,1.1270307368249632e-05,-2.1897139959037304e-06,5.8363802963867784e-05
-7.181387627497315e-05,2.0980663975933567e-05,6.384973858075682e-06,-3.835252300632419e-06,5.607037019217387e-05
-5.857583892066032e-05,-1.1727316632459406e-05,7.150797955546295e-06,-6.324731884888024e-07,5.9234251239104196e-05
-5.5235486797755584e-05,-2.7563297408050857e-05,8.363420420209877e-06,-1.1441586593718966e-06,6.33124218438752e-05
-7.09959349478595e-05,-1.6724960005376488e-05,1.262928890355397e-05,-3.0082087505434174e-06,6.701437814626843e-05
-8.349737618118525e-05,3.7508496006921632e-06,1.3425072211248334e-05,-6.513540483865654e-06,6.613625009777024e-05
-7.860349433030933e-05,1.9794573745457456e-05,9.547388799546752e-06,-7.652647582290228e-06,6.14122545812279e-05
-6.190648127812892e-05,3.1436495191883296e-05,7.561449365312001e-06,-6.8346689658937976e-06,5.754539597546682e-05
-4.949736830894835e-05,4.485898170969449e-05,9.186364877677988e-06,-6.622509317821823e-06,5.298474206938408e-05
-4.9356076488038525e-05,5.616446287604049e-05,9.511873940937221e-06,-5.193475772102829e-06,5.123839218867943e-05
-5.285502993501723e-05,5.785687972093001e-05,7.513317541452125e-06,-6.6164757299702615e-06,5.097924076835625e-05
-5.319034244166687e-05,5.2355622756294906e-05,4.590531716530677e-06,-1.1142449693579692e-05,4.993882976123132e-05
-4.4317435822449625e-05,4.596389044309035e-05,1.2268997124920134e-06,-1.5706396879977547e-05,4.910032657789998e-05
-2.7816497095045634e-05,4.022753637400456e-05,-2.3502973363065394e-06,-2.071835297101643e-05,4.9545124056749046e-05
-1.2335107385297306e-05,3.92780639231205e-05,-5.8849404922511894e-06,-2.5716099116834812e-05,4.911155701847747e-05
-5.35046683580731e-06,5.0602662668097764e-05,-9.22549679671647e-06,-2.6894562324741855e-05,4.772790634888224e-05
-9.457897249376401e-06,6.56486809020862e-05,-1.0865232979995199e-05,-2.339067759749014e-05,4.579149026540108e-05
-2.2171714590513147e-05,6.607444083783776e-05,-1.0239774383080658e-05,-1.9585764675866812e-05,4.500997602008283e-05
-3.525533611536957e-05,4.836499283555895e-05,-9.161743946606293e-06,-2.003268491534982e-05,4.537131462711841e-05
-3.631407525972463e-05,2.483891148585826e-05,-6.5474318944325205e-06,-1.972545578610152e-05,4.615776924765669e-05
-2.898051025113091e-05,-6.617445251322351e-06,-3.0530309231835417e-06,-1.612609594303649e-05,5.0631606427486986e-05
-2.8323043807176873e-05,-5.1672519475687295e-05,-1.6924523151828907e-06,-1.4254154848458711e-05,5.782294101663865e-05
-3.17521917168051e-05,-9.342867997474968e-05,-5.544598025153391e-07,-1.6481497368658893e-05,6.235240289242938e-05
-1.8922270101029426e-05,-0.00010082834342028946,2.0188304006296676e-06,-1.8951244783238508e-05,5.83509863645304e-05
1.1020605597877875e-05,-6.500269955722615e-05,2.855801312762196e-06,-1.727114249661099e-05,5.455943392007612e-05
3.7326437450246885e-05,-1.1901594916707836e-05,1.2903711876788293e-06,-1.1683856428135186e-05,5.8276364143239334e-05
4.141806493862532e-05,3.6855424696113914e-05,1.939379217219539e-07,-1.056799737852998e-05,6.14542659604922e-05
2.3909735318738967e-05,6.731826579198241e-05,1.2814010688089184e-06,-1.260772751265904e-05,6.25141547061503e-05
3.7524299045799125e-07,7.845815707696602e-05,5.085328666609712e-06,-9.035326911543962e-06,6.348505849018693e-05
-1.587199767527636e-05,7.988099969225004e-05,1.1606915904849302e-05,-3.2805369301058818e-06,6.489375664386898e-05
-2.189557380916085e-05,8.409516885876656e-05,1.5447330952156335e-05,-1.6554878357055713e-06,6.718902295688167e-05
-2.0771696654264815e-05,9.235173638444394e-05,1.4539148651238065e-05,-3.472152684480534e-06,6.976361328270286e-05
-1.6238531316048466e-05,7.772894605295733e-05,1.1984483535343315e-05,-2.2495296434499323e-06,7.491488213418052e-05
-1.0128042958967853e-05,3.7916463043075055e-05,1.398826134391129e-05,-7.695323915868357e-07,7.857848686398938e-05
-5.306717412167927e-06,1.7192049881487037e-06,1.7871954696602188e-05,-3.563271093298681e-06,8.001539390534163e-05
-7.442233709298307e-06,-6.145432962512132e-07,1.758004873408936e-05,-5.9269236771797296e-06,7.773580000502989e-05
-1.28582514662412e-05,1.3327421584108379e-05,1.3495920029527042e-05,-4.6380605454032775e-06,7.011769048403949e-05
-7.1600334194954485e-06,1.817853990360163e-05,9.630774911784101e-06,-3.9357000787276775e-06,6.159936310723424e-05
5.983613846183289e-06,1.9878400507877814e-06,6.521406248793937e-06,-6.356315225275466e-06,5.4874752095201984e-05
8.846148375596385e-06,-2.526463686081115e-05,2.0713123376481235e-06,-1.3459525689540897e-05,4.9565114750294015e-05
-4.580562745104544e-06,-3.4862187021644786e-05,-2.797726210701512e-06,-1.8260898286825977e-05,4.652672942029312e-05
-2.2755679310648702e-05,-1.2045182302244939e-05,-7.184164132922888e-06,-1.5744040865683928e-05,4.6999466576380655e-05
-3.259045843151398e-05,2.443302219035104e-05,-8.521112249582075e-06,-1.1430444828874897e-05,5.118045737617649e-05
-3.106043368461542e-05,4.4493914174381644e-05,-5.2839222917100415e-06,-9.563220373820513e-06,5.572794543695636e-05
-2.6033394533442333e-05,4.7438719775527716e-05,2.9394559533102438e-06,-7.021635155979311e-06,5.8763223933056e-05
-2.8847751309513114e-05,4.316310150898062e-05,1.12658281068434e-05,-4.677421657106606e-06,5.690228863386437e-05
-3.988094613305293e-05,3.831951107713394e-05,1.3892889910493977e-05,-8.900641660147812e-06,4.608474773704074e-05
-5.034549758420326e-05,3.6605542845791206e-05,8.437064934696537e-06,-1.543715006846469e-05,3.202849984518252e-05
-6.065520574338734e-05,4.214703221805394e-05,2.851856493180094e-07,-1.693536978564225e-05,2.255919207527768e-05
-7.736022962490097e-05,4.7732308303238824e-05,-4.066443580086343e-06,-1.3057133401161991e-05,1.7331729395664297e-05
-8.946037269197404e-05,5.248133675195277e-05,-3.2717894100642297e-06,-1.0421072147437371e-05,1.1322255886625499e-05
-8.889636228559539e-05,5.627581413136795e-05,-2.8935601221746765e-06,-7.314679805858759e-06,3.7125457765796455e-06
-8.527097088517621e-05,5.431457975646481e-05,-4.37522612628527e-06,-4.9598315854382236e-06,-1.3148212474334287e-06
-8.555177191738039e-05,4.0811723010847345e-05,-6.942022537259618e-06,-5.378689820645377e-06,1.7913162082550116e-06
-8.896483632270247e-05,2.5312310754088685e-05,-8.586992407799698e-06,-5.6490230235795025e-06,7.523901331296656e-06
-9.323794802185148e-05,1.5381192497443408e-05,-4.209722192172194e-06,-8.395348231715616e-06,8.036350664042402e-06
-9.142953058471903e-05,1.1220110536669381e-05,1.3427018075162778e-06,-1.0920923159574158e-05,9.520141247776337e-06
-7.977948553161696e-05,8.22065157990437e-06,4.037423423142172e-06,-9.764586138771847e-06,1.4527774510497693e-05
-5.424053961178288e-05,4.396806616568938e-06,3.1821844004298327e-06,-1.0039277185569517e-05,1.8526263374951668e-05
-2.3546290321974084e-05,7.653349712199997e-06,2.7900919121748302e-06,-9.638697520131245e-06,2.0081781258340925e-05
-7.28263876226265e-06,3.469373405096121e-05,-4.2890675899798225e-08,-8.449459528492298e-06,1.8733499018708244e-05
-7.098631158442004e-06,8.669645467307419e-05,-4.007962616014993e-06,-9.119204150920268e-06,1.937419619935099e-05
-1.1512774108268786e-05,0.00013933944865129888,-2.203298208769411e-06,-7.2395946517644916e-06,2.1706404368160293e-05
-1.566175342304632e-05,0.000157045666128397,2.9150733098504134e-06,-3.45627881870314e-06,2.471927655278705e-05
-1.546192834211979e-05,0.00013589978334493935,7.923335033410694e-06,3.8892810039214964e-07,2.583616878837347e-05
-9.818972102948464e-06,0.00010167968866880983,9.46252384892432e-06,3.661847131297691e-06,2.5524725060677156e-05
-5.951426373940194e-06,6.989420944591984e-05,1.0851897968677804e-05,2.7826038149214583e-06,2.6981302653439343e-05
-4.5485699047276285e-06,4.011587589047849e-05,1.1740819900296628e-05,-3.6846088278252864e-06,3.0256656827987172e-05
-1.0715031066865777e-06,7.203395398391876e-06,1.0324622962798458e-05,-1.1769978300435469e-05,3.229548019589856e-05
2.0602301447070204e-06,-2.5386285415152088e-05,8.429516128671821e-06,-1.5995516150724143e-05,3.529590321704745e-05
2.591025349829579e-07,-5.573775342782028e-05,8.243637239502277e-06,-1.460993826185586e-05,4.358884325483814e-05
-1.5233146086757188e-06,-7.763020403217524e-05,7.065823865559651e-06,-1.3026426131546032e-05,5.392651291913353e-05
2.129503172909608e-06,-7.789331721141934e-05,3.826355168712325e-06,-1.5060501027619466e-05,6.068112270440906e-05
6.573273367393995e-06,-5.777046681032516e-05,2.4857047264958965e-06,-1.7007270798785612e-05,6.244306132430211e-05
1.2870340469817165e-05,-4.218912363285199e-05,4.400335456011817e-06,-1.5650217392249033e-05,6.290424062171951e-05
2.402217978669796e-05,-4.093774623470381e-05,2.7141809368913528e-06,-1.3974649846204557e-05,6.74906768836081e-05
3.6856788938166574e-05,-3.906709389411844e-05,-3.5489331366989063e-06,-1.3887389286537655e-05,7.468558760592714e-05
4.575621642288752e-05,-1.3041593774687499e-05,-6.7980804487888236e-06,-1.6101748769870028e-05,7.485245441785082e-05
3.937463043257594e-05,2.414813388895709e-05,-6.060532996343682e-06,-1.6808971849968657e-05,6.74485563649796e-05
2.5464494683546945e-05,4.3838215788127854e-05,-2.595250862214016e-06,-1.3029956789978314e-05,6.282536196522415e-05
1.2783858437614981e-05,5.1609400543384254e-05,1.878137936728308e-06,-9.069888619706035e-06,6.794215005356818e-05
-1.9498935444062226e-07,5.909353421884589e-05,2.19746516449959e-06,-3.7454531138791936e-06,7.475478196283802e-05
-5.63196999792126e-06,6.536878936458379e-05,5.52125129615888e-06,1.6459798644063994e-06,8.124467422021553e-05
-3.951708549720934e-06,7.379124144790694e-05,1.3045193554717116e-05,4.843284386879532e-06,8.184411854017526e-05
-1.20012500701705e-05,8.091147901723161e-05,1.218365923705278e-05,4.75916840514401e-06,7.545197877334431e-05
-2.823457180056721e-05,8.051240729400888e-05,9.084897101274692e-06,-9.75368720901315e-07,7.288393680937588e-05
-4.441531564225443e-05,7.345061021624133e-05,5.648959358950378e-06,-7.860720870667137e-06,7.679094414925203e-05
-6.058731014491059e-05,6.79725781083107e-05,1.849737486736558e-06,-1.1979303963016719e-05,8.24110466055572e-05
-7.49636092223227e-05,7.291961082955822e-05,1.9454364519333467e-07,-1.4176532204146497e-05,8.496273221680894e-05
-9.20782404136844e-05,8.950741175794974e-05,8.158211244335689e-07,-1.3830936950398609e-05,8.351283031515777e-05
-0.00011300748155917972,0.00010202653356827796,1.87423381703411e-06,-1.1569145499379374e-05,8.108129986794665e-05
-0.00012689043069258332,0.00010112977906828746,3.413912963878829e-06,-1.0242441021546256e-05,7.957547495607287e-05
-0.00011602868471527472,9.68633103184402e-05,1.637470973037125e-06,-1.0853708772629034e-05,7.900529453763738e-05
-8.665391942486167e-05,9.356014925288036e-05,-1.9433987290540244e-06,-1.236835669260472e-05,8.149942732416093e-05
-6.2249404436443e-05,8.752739813644439e-05,-5.0965901721156115e-08,-1.2923092072014697e-05,8.502111450070515e-05
-4.9613649025559425e-05,7.307352643692866e-05,4.988514319848036e-06,-1.2918879292556085e-05,8.579545828979462e-05
-3.555869261617772e-05,4.885801536147483e-05,5.280342065816512e-06,-1.2700443221547175e-05,8.423448889516294e-05
-1.728185816318728e-05,2.0939869500580244e-05,7.040194986984716e-07,-1.1413663742132485e-05,8.320088818436489e-05
-1.2616277672350407e-05,8.139627425407525e-06,-1.7795381381802144e-06,-1.0257488611387089e-05,8.368646376766264e-05
-2.913042771979235e-05,1.2443974810594227e-05,-1.7220166910192347e-06,-1.2389383300615009e-05,8.370974683202803e-05
-5.2778865210711956e-05,1.6564683392061852e-05,1.7791991240301286e-06,-1.485843131376896e-05,8.217369031626731e-05
-6.730554741807282e-05,1.4121553249424323e-05,8.286068805318791e-06,-1.0590688361844514e-05,8.422112296102569e-05
-6.993966962909326e-05,-1.0289008969266433e-06,1.559940938022919e-05,-4.2744315464915417e-07,9.22074614209123e-05
-6.748512532794848e-05,-3.857698175124824e-05,2.3022908862913027e-05,4.333691776992055e-06,9.751049219630659e-05
-6.16974793956615e-05,-6.510750972665846e-05,2.6752217308967374e-05,-5.991570333208074e-07,9.615981252864003e-05
-5.201826206757687e-05,-6.0292448324617e-05,2.1134135749889538e-05,-6.30306385573931e-06,9.577246237313375e-05
-4.175590584054589e-05,-4.71207094960846e-05,1.242880716745276e-05,-1.1438364708737936e-05,9.465438779443502e-05
-2.6202054868917912e-05,-4.905724199488759e-05,1.0023621143773198e-05,-1.5788267774041742e-05,8.860043453751132e-05
-7.861419362598099e-06,-6.146042869659141e-05,1.542675818200223e-05,-1.5224741218844429e-05,8.29800555948168e-05
6.264993317017797e-06,-5.109147241455503e-05,1.6228039385168813e-05,-1.2895100553578231e-05,8.110762428259477e-05
1.4234872651286423e-05,-2.1389501853263937e-05,1.4906224350852426e-05,-1.0182827281823847e-05,8.23883165139705e-05
1.756327947077807e-05,5.660748229274759e-06,1.5840332707739435e-05,-5.238835456111701e-06,8.313953003380448e-05
2.5974226446123794e-05,6.467091679951409e-06,1.4457258657785133e-05,-1.6427400169050088e-06,7.992897008080035e-05
3.8358506571967155e-05,-2.1769454178866e-05,9.412725376023445e-06,-1.7284993418797967e-06,7.918622577562928e-05
5.075230001239106e-05,-5.9949215938104317e-05,6.603372639801819e-06,-2.429061623843154e-06,8.25005627120845e-05
5.644172415486537e-05,-9.059535659616813e-05,1.1056390576413833e-05,-6.393594503606437e-06,8.501494448864833e-05
4.767741484101862e-05,-9.446571493754163e-05,1.3052662325208075e-05,-1.063136642187601e-05,8.389169670408592e-05
2.9237029593787156e-05,-7.072807056829333e-05,1.1670355888782069e-05,-1.2261986739758868e-05,7.957313937367871e-05
7.1203166953637265e-06,-3.430648212088272e-05,9.48110937315505e-06,-1.1427164281485602e-05,7.684493903070688e-05
-1.4035339518159162e-05,9.474641160522879e-07,8.278963832708541e-06,-9.224399946106132e-06,7.734336395515129e-05
-2.808178214763757e-05,3.2985262805595994e-05,9.489129297435284e-06,-8.414030162384734e-06,7.837271550670266e-05
-3.2098098017740995e-05,6.138953904155642e-05,1.338871425105026e-05,-9.62825015449198e-06,7.895700400695205e-05
-3.1361956644104794e-05,8.221664029406384e-05,1.6253316061920486e-05,-1.289661304326728e-05,7.981298404047266e-05
-2.944291009043809e-05,9.537898586131632e-05,1.8041439034277573e-05,-1.597014306753408e-05,7.916105823824182e-05
-2.67146278929431e-05,0.00011117645044578239,1.866955244622659e-05,-1.614997017895803e-05,7.786913920426741e-05
-2.487994970579166e-05,0.0001327150093857199,1.608215825399384e-05,-1.4441283383348491e-05,7.850927795516327e-05
-2.0619740098481998e-05,0.00014916776854079217,1.514427458459977e-05,-1.4350387573358603e-05,7.688692130614072e-05
-1.2244486242707353e-05,0.0001505285908933729,1.811590300349053e-05,-1.4041454960533883e-05,7.202709093689919e-05
-7.201061634987127e-06,0.00013332405069377273,2.056891389656812e-05,-1.409823107678676e-05,7.164361886680126e-05
-6.895098977111047e-06,9.600994235370308e-05,1.82015064638108e-05,-1.528194479760714e-05,7.691786595387384e-05
-1.2294681255298201e-05,5.855979543412104e-05,1.2532557775557507e-05,-1.570881977386307e-05,7.934989116620272e-05
-2.4992734324769117e-05,4.915380850434303e-05,6.76298486723681e-06,-1.6383824913646095e-05,7.244632433867082e-05
-3.7066740333102643e-05,6.393631338141859e-05,5.602193141385214e-06,-1.8146040019928478e-05,6.426593608921394e-05
-4.679169796872884e-05,7.581034151371568e-05,8.591517143941019e-06,-1.8427124814479612e-05,6.11854629823938e-05
-6.305532588157803e-05,7.046648534014821e-05,1.316328052780591e-05,-2.1361978724598885e-05,6.188236875459552e-05
-7.207252201624215e-05,5.538581172004342e-05,1.2601964044733904e-05,-2.110652349074371e-05,6.754625792382285e-05
-6.235142791410908e-05,3.9500966522609815e-05,6.863710041216109e-06,-1.7867407223093323e-05,6.983937055338174e-05
-5.170990334590897e-05,2.6077641450683586e-05,6.08435539106722e-06,-1.6899759430089034e-05,6.504137127194554e-05
-4.7778954467503354e-05,1.2802615856344346e-05,5.5755695029802155e-06,-1.4998257938714232e-05,6.269639561651275e-05
-4.851408812100999e-05,-5.588406111201039e-06,1.0655213600330171e-06,-1.434881596651394e-05,6.317751103779301e-05
-4.9131176638184115e-05,-1.826976949814707e-05,-3.4708857583609642e-06,-1.6922422219067812e-05,6.683386163786054e-05
-4.69928709208034e-05,-7.4845602284767665e-06,-2.84090356217348e-06,-1.7947142623597756e-05,7.196624210337177e-05
-3.9657592424191535e-05,1.667809374339413e-05,1.3360591992750415e-06,-1.5163133866735734e-05,7.151478348532692e-05
-2.6190738935838453e-05,3.389449921087362e-05,2.1317302980605746e-06,-1.4972813914937433e-05,6.655955803580582e-05
-1.4186371117830276e-05,3.8221020076889545e-05,-2.401235633442411e-06,-1.4653700418421067e-05,6.331792246783152e-05
-1.2041363333992194e-05,3.863770325551741e-05,-5.070545284979744e-06,-1.2776993571605999e-05,6.349344039335847e-05
-2.221903378085699e-05,4.021628774353303e-05,-5.306089406076353e-06,-1.165119647339452e-05,6.505876808660105e-05
-3.035781264770776e-05,3.790235859923996e-05,-6.3632191995566245e-06,-1.424746460543247e-05,6.660500366706401e-05
-2.5001612812047824e-05,2.666603359102737e-05,-4.900859039480565e-06,-1.6549574866076e-05,6.420612771762535e-05
-1.6472464267280884e-05,1.4877778085065074e-05,-1.024585230879893e-06,-1.6155847333720885e-05,5.627533755614422e-05
-1.6475654774694704e-05,1.2282910574867856e-05,1.313043412665138e-06,-1.5276818885467947e-05,4.818959132535383e-05
-2.1912144802627154e-05,1.9812261598417535e-05,1.6883199123185477e-06,-1.5367208106908947e-05,4.598627856466919e-05
-2.4942994059529155e-05,3.709701559273526e-05,2.4734888484090334e-06,-1.4373479643836617e-05,4.8974150558933616e-05
-2.358121309953276e-05,5.87095673836302e-05,3.379758027222124e-06,-1.0959778592223302e-05,5.315533053362742e-05
-2.1970512534608133e-05,7.20348980394192e-05,3.743704155567684e-06,-8.216234164137859e-06,5.8047084166901186e-05
-2.0480578314163722e-05,7.099473441485316e-05,2.7172557111043716e-06,-5.6068111007334664e-06,6.378301623044536e-05
-1.6676125596859492e-05,6.0526395827764645e-05,4.4310895646049175e-06,-6.8992112574051134e-06,6.537791341543198e-05
-1.862083990999963e-05,4.816961154574528e-05,7.437678959831828e-06,-9.948358638212085e-06,6.413712253561243e-05
-2.2204041670192964e-05,4.962710590916686e-05,7.067375918268226e-06,-9.228962881024927e-06,6.41327424091287e-05
-1.809814784792252e-05,7.100898801581934e-05,4.78709080198314e-06,-6.6990101004194e-06,6.434669921873137e-05
-1.5965424609021284e-05,8.439688826911151e-05,4.934595381200779e-06,-7.3646892815304454e-06,6.329685129458085e-05
-1.6530637367395684e-05,7.003690552664921e-05,7.13395911589032e-06,-1.4040706446394324e-05,6.381671846611425e-05
-1.7206630218424834e-05,3.667268538265489e-05,6.76576519254013e-06,-2.1209209080552682e-05,6.658316851826385e-05
-1.8962384274345823e-05,-2.732846724029514e-06,1.3073336049274076e-06,-2.4465143724228255e-05,6.530223618028685e-05
-2.1454286979860626e-05,-3.2712916436139494e-05,-6.943592325114878e-06,-2.622362990223337e-05,6.347927410388365e-05
-2.461943768139463e-05,-5.181561573408544e-05,-1.290451291424688e-05,-2.4867471438483335e-05,6.136641604825854e-05
-2.5442706828471273e-05,-6.1020939028821886e-05,-1.189197337225778e-05,-2.0656632841564715e-05,5.7032666518352926e-05
-2.126597064489033e-05,-5.663986303261481e-05,-7.744121830910444e-06,-1.775665077730082e-05,5.558844713959843e-05
-1.4058523447602056e-05,-4.419188917381689e-05,-3.9262272366613615e-06,-1.2851435712946113e-05,5.4098418331705034e-05
-1.572546716488432e-05,-2.7656389647745527e-05,1.2663055031225667e-06,-4.399165391077986e-06,5.408576544141397e-05
-2.532240432628896e-05,-2.0591817246895516e-06,8.458647243969608e-06,2.9336108582356246e-06,5.4863216064404696e-05
-3.394109080545604e-05,2.5147712221951224e-05,1.5864161468925886e-05,7.466680017387262e-06,5.423439870355651e-05
-3.464505425654352e-05,4.53466345788911e-05,2.0205116015858948e-05,9.539710845274385e-06,5.430521196103655e-05
-2.4711167498026043e-05,5.2093135309405625e-05,2.1625824956572615e-05,1.333276213699719e-05,5.575044997385703e-05
-1.0645347174431663e-05,4.639776307158172e-05,2.2894560970598832e-05,1.9853232515743002e-05,5.7769597333390266e-05
-2.650115675351117e-06,3.571609340724535e-05,2.342609514016658e-05,2.358679375902284e-05,5.7189692597603425e-05
-6.811543698859168e-06,3.006207407452166e-05,2.1935107724857517e-05,1.9435126887401566e-05,5.664777563652024e-05
-2.0591585780493915e-05,3.694147744681686e-05,1.9142846213071607e-05,1.2075335689587519e-05,5.7075387303484604e-05
-4.1659121052362025e-05,5.385602707974613e-05,1.4611254300689325e-05,7.367596026597312e-06,5.523871732293628e-05
-5.682493429048918e-05,7.492773875128478e-05,8.902090485207736e-06,4.576019819069188e-06,5.079377660877071e-05
-5.4605618061032146e-05,8.428352157352492e-05,4.3358554648875725e-06,2.104563009197591e-06,4.858731335843913e-05
-4.499996794038452e-05,7.234251825138927e-05,5.109795893076807e-06,-8.241514706242015e-07,5.087263707537204e-05
-4.090720176463947e-05,5.447029252536595e-05,1.0210872460447717e-05,-2.2766180336475372e-06,5.4902920965105295e-05
-4.1172181227011606e-05,4.874289516010322e-05,1.1705261385941412e-05,-2.228925268354942e-06,5.6949269492179155e-05
-4.397384691401385e-05,4.832313788938336e-05,9.351460903417319e-06,-5.457729912450304e-06,5.78128601773642e-05
-4.61018607893493e-05,4.340635859989561e-05,6.953019237698754e-06,-1.07103624031879e-05,5.678326851921156e-05
-4.108752909814939e-05,3.210505747119896e-05,3.0470964702544734e-06,-1.0571711754892021e-05,5.214265183894895e-05
-3.710672172019258e-05,2.173140092054382e-05,4.245089712640038e-06,-3.7229190184007166e-06,5.1633091061376035e-05
-3.8248414057306945e-05,1.806586624297779e-05,9.6824323918554e-06,-5.862815214641159e-06,5.811062146676704e-05
-3.580756310839206e-05,1.762686952133663e-05,1.2888361197838094e-05,-1.4970205484132748e-05,6.482347816927359e-05
-2.9560596885858104e-05,9.627948202250991e-06,9.967217920348048e-06,-1.6870319086592644e-05,6.468952051363885e-05
-2.2036761947674677e-05,-4.922325388179161e-06,4.508194251684472e-06,-1.235353647643933e-05,6.067572030588053e-05
-1.587893711985089e-05,-2.356108780077193e-05,2.3688260171184083e-06,-4.463006916921586e-06,5.856139978277497e-05
-1.584227356943302e-05,-3.7880075979046524e-05,8.86128219690363e-08,-6.662210580543615e-06,5.866992796654813e-05
-1.7544274669489823e-05,-3.6154895497020334e-05,-2.8322731395746814e-06,-1.3350788321986329e-05,5.9015434089815244e-05
-1.3245643458503764e-05,-2.5221757823601365e-05,-3.544843366398709e-06,-1.4681922948511783e-05,5.6903263612184674e-05
-1.5379922615466057e-06,-9.496009624854196e-06,-5.079455434042757e-08,-1.4811495930189267e-05,5.542115468415432e-05
6.125032996351365e-06,5.578458512900397e-06,2.5677488793007797e-06,-1.9169499864801764e-05,5.543315637623891e-05
3.2289406135532772e-06,9.412402505404316e-06,2.3870443328632973e-06,-2.4715282052056864e-05,5.447589137475006e-05
-2.722388444453827e-06,1.373968643747503e-06,2.9467530566762434e-06,-2.848380245268345e-05,5.178706123842858e-05
-8.498114766553044e-06,-3.528855586409918e-06,3.782363592108595e-06,-2.9717972211074084e-05,5.019054879085161e-05
-1.3910052075516433e-05,9.89163879694388e-08,4.40657504441333e-06,-2.4547312932554632e-05,5.0329552323091775e-05
-1.904299460875336e-05,6.8870867835357785e-06,4.612087195710046e-06,-2.0924735508742742e-05,4.679482299252413e-05
-2.240519825136289e-05,1.6373209291487e-05,5.551487902266672e-06,-2.568825220805593e-05,4.057898331666365e-05
-2.4311773813678883e-05,2.965711973956786e-05,6.113110430305824e-06,-3.201865911250934e-05,4.1056500776903704e-05
-2.6841607905225828e-05,4.2663905333029106e-05,3.197517344233347e-06,-3.103789276792668e-05,4.753199755214155e-05
-2.9775263101328164e-05,5.594747926807031e-05,-3.7333306863729376e-06,-2.7599420718615875e-05,5.332966611604206e-05
-3.228419154766016e-05,6.971980474190786e-05,-8.269709724118002e-06,-2.6217399863526225e-05,5.500237239175476e-05
-3.3808802982093766e-05,7.336165435845032e-05,-6.839844900241587e-06,-2.2370522856363095e-05,5.278651224216446e-05
-3.046036908926908e-05,6.607060640817508e-05,-1.8510075960875838e-06,-1.566758510307409e-05,5.239352321950719e-05
-2.2189196897670627e-05,5.6269967899424955e-05,2.5558690595062217e-06,-1.3548878996516578e-05,5.258685996523127e-05
-1.7346077584079467e-05,4.583598274621181e-05,3.7897132187936222e-06,-1.4596712389902677e-05,5.003568367101252e-05
-1.6582043826929294e-05,4.084749161847867e-05,3.096053433182533e-06,-1.339561913482612e-05,4.7853081923676655e-05
-2.0056415451108478e-05,4.139656448387541e-05,1.6602004961896455e-06,-9.083810255106073e-06,4.692439324571751e-05
-2.6758274543681182e-05,3.74586925317999e-05,1.6930473520915257e-06,-1.0608555385260843e-05,4.768544386024587e-05
-2.986376784974709e-05,2.8146001568529755e-05,5.113236511533614e-06,-1.8125520000467077e-05,5.172065721126273e-05
-3.2096544600790367e-05,2.2788690330344252e-05,8.419397090619896e-06,-2.0968249373254366e-05,5.340734787750989e-05
-3.339408431202173e-05,2.27462387556443e-05,4.024700501759071e-06,-2.119964119629003e-05,5.250163667369634e-05
-2.5647826987551525e-05,2.2056352463550866e-05,-5.051488756180333e-07,-1.8558273950475268e-05,5.3097010095370933e-05
-1.0275342901877593e-05,2.153095010726247e-05,4.82594941786374e-07,-1.555155722599011e-05,5.69241565244738e-05
-3.4811102977982955e-06,2.3561320631415583e-05,3.490961034913198e-06,-1.5593106581945904e-05,6.234124884940684e-05
-1.5413666915264912e-05,3.081461909459904e-05,2.4830078473314643e-06,-1.2906056326755788e-05,6.395584205165505e-05
-2.856768151104916e-05,3.707093856064603e-05,-6.6208428961545e-07,-7.0727933234593365e-06,6.300137465586886e-05
-3.3074164093704894e-05,4.3284577259328216e-05,-8.253576879724278e-07,-4.539074780041119e-06,6.768775347154588e-05
-2.9424039894365706e-05,4.8910256737144664e-05,-3.54684772219116e-07,-7.096270564943552e-06,7.572762115160003e-05
-2.4039616619120352e-05,5.063130083726719e-05,2.580756017778185e-07,-1.2427921319613233e-05,7.420419569825754e-05
-2.8842669053119607e-05,5.1946466555818915e-05,2.492522071406711e-06,-1.669328958087135e-05,6.0587215557461604e-05
-3.769207251025364e-05,5.5715507187414914e-05,2.2507490484713344e-06,-1.8279171854374e-05,4.667280154535547e-05
-4.529949728748761e-05,5.524058360606432e-05,-3.898689556081081e-06,-1.9815452105831355e-05,4.325318877818063e-05
-5.0918701163027436e-05,4.500632712733932e-05,-7.880314115027431e-06,-2.3387858163914643e-05,4.560039087664336e-05
-5.376358240027912e-05,3.512201510602608e-05,-7.580120382044697e-06,-2.652448347362224e-05,4.583652116707526e-05
-5.880658864043653e-05,3.031416781595908e-05,-4.523098141362425e-06,-2.5796081899898127e-05,4.8385903937742114e-05
-7.084108074195683e-05,2.1046147594461218e-05,-2.2788361775383237e-07,-2.2027066734153777e-05,5.507953028427437e-05
-8.059894025791436e-05,1.3388986417339765e-06,2.9536856800405076e-06,-1.843018617364578e-05,6.00253879383672e-05
-7.92434366303496e-05,-8.992930816020817e-06,1.4099114196142182e-06,-1.552724643261172e-05,6.0294714785413817e-05
-6.934435077710077e-05,7.866398163969279e-07,-1.0606188425299479e-06,-1.185384280688595e-05,5.870413588127121e-05
-6.268155993893743e-05,2.2400152374757454e-05,2.377992359470227e-06,-9.167014468403067e-06,5.570932989940047e-05
-6.140468030935153e-05,4.6123273932607844e-05,7.589857432321878e-06,-9.239714927389286e-06,5.1240684115327895e-05
-5.839426376041956e-05,5.224211054155603e-05,9.154733561445028e-06,-9.937145478033926e-06,4.966958294971846e-05
-4.849524702876806e-05,3.240632213419303e-05,5.733606030844385e-06,-5.193959168536821e-06,5.1492115744622424e-05
-2.9168366381782107e-05,4.426282430358697e-06,1.2406683254084783e-06,3.6952508253307315e-07,5.2457671699812636e-05
-1.6135192709043622e-05,-3.159072321068379e-06,2.043297627096763e-06,1.560697342029016e-06,5.135951141710393e-05
-1.8921955415862612e-05,1.2437351870175917e-05,8.076503036136273e-06,1.7724371446092846e-06,5.049979517934844e-05
-3.5757908335654065e-05,2.2098416593507864e-05,9.824301741900854e-06,-6.064328772481531e-07,4.8299378249794245e-05
-5.16939144290518e-05,2.0631972802220844e-05,9.5610585049144e-06,-2.8500057851488236e-06,4.730586806545034e-05
-4.910081042908132e-05,1.3530818250728771e-05,9.414778105565347e-06,-1.9932356281060493e-06,5.0981972890440375e-05
-2.253334241686389e-05,5.280830464471364e-06,4.64703907709918e-06,3.9262317841348704e-07,5.827386485179886e-05
1.0293820196238812e-05,-3.0126584533718415e-06,2.195240313085378e-06,9.042953479365679e-07,6.302465772023425e-05
2.6840385544346645e-05,-8.505557161697652e-06,1.1866929980897112e-06,3.0942942430556286e-07,6.128874520072713e-05
2.1682904844055884e-05,-9.646601029089652e-06,3.1069271244632546e-06,4.331696743520297e-07,5.6062206567730755e-05
1.824604055400414e-06,-1.0300091162207536e-05,7.011993602645816e-06,1.4654430060545565e-06,5.4697684390703216e-05
-1.1618337339314166e-05,-4.864786660618847e-06,9.126395525527187e-06,3.0802418677922105e-06,6.09432790952269e-05
-1.2272441381355748e-05,5.596471510216361e-06,1.018650709738722e-05,2.720008069445612e-06,6.747265433659777e-05
-5.490927378559718e-06,1.542769678053446e-05,1.0160941201320384e-05,1.721105036267545e-06,6.777513772249222e-05
1.5055915127959452e-06,2.726980710576754e-05,9.665906873124186e-06,4.711116048383701e-07,6.402151484508067e-05
7.433271093759686e-06,4.9487509386381134e-05,8.985244676296134e-06,-2.492583234925405e-06,6.28261041129008e-05
1.1208994692424312e-05,6.873545498820022e-05,8.587575393903535e-06,-7.080485374899581e-06,6.394978117896244e-05
1.316201905865455e-05,7.124338299036026e-05,7.92450737208128e-06,-8.134608833643142e-06,6.31799703114666e-05
1.4302632735052612e-05,5.362878800951876e-05,8.89267903403379e-06,-6.44623924017651e-06,6.234776810742915e-05
1.336588593403576e-05,2.578972816991154e-05,1.12509505925118e-05,-6.1050163822073955e-06,6.370322807924822e-05
1.1382500815670937e-05,8.012440957827494e-06,1.4611246115237009e-05,-6.428765118471347e-06,6.635138561250642e-05
1.0991760973411147e-05,1.3643563761434052e-05,1.3544911780627444e-05,-4.175043159193592e-06,6.70967492624186e-05
1.3843699889548589e-05,3.30720140482299e-05,9.190463060804177e-06,-1.1260129895163118e-06,6.366090383380651e-05
1.3648730600834824e-05,4.6635792386950925e-05,8.418197467108257e-06,-1.869544803412282e-06,6.134631985332817e-05
6.4094083427335136e-06,4.3885149352718145e-05,1.2223155863466673e-05,-6.377608769980725e-06,6.356526137096807e-05
-1.684778681010357e-06,2.642109029693529e-05,1.0062878573080525e-05,-9.961132491298486e-06,6.414980452973396e-05
-8.291330232168548e-06,8.879765118763316e-06,2.8636475235543912e-06,-7.896717761468608e-06,6.290394958341494e-05
-1.6988931747619063e-05,4.234064817865146e-06,1.7904227433973574e-06,-6.0150368881295435e-06,6.426572508644313e-05
-3.095770443906076e-05,1.1037462172680534e-05,5.016310296923621e-06,-1.1050452485505957e-05,6.43029052298516e-05
-4.9144699005410075e-05,2.325512105016969e-05,6.531827693834202e-06,-1.2349411008472089e-05,6.281396053964272e-05
-5.7748169638216496e-05,3.525582724250853e-05,4.869680651609087e-06,-7.369064860540675e-06,6.191187276272103e-05
-5.8070490922546014e-05,4.544238618109375e-05,2.4858031792973634e-06,-2.959604671559646e-06,5.74315527046565e-05
-5.578341369982809e-05,5.7825323892757297e-05,3.091890675932518e-06,-2.863217105186777e-06,5.132012302055955e-05
-5.746049646404572e-05,6.892313831485808e-05,4.255223757354543e-06,-6.6469237935962155e-06,4.8487087042303756e-05
-6.139697507023811e-05,6.780287367291749e-05,3.5622863379103364e-06,-7.146612915676087e-06,4.981479651178233e-05
-6.064431363483891e-05,5.208861330174841e-05,4.970027021045098e-06,-7.063195880618878e-06,5.004270497011021e-05
-6.073875920264982e-05,3.3216729207197204e-05,6.41710630588932e-06,-7.647372513019945e-06,4.82106588606257e-05
-5.787611735286191e-05,1.4186282896844205e-05,8.354233614227269e-06,-9.380628398503177e-06,4.917611295240931e-05
-4.996112693333998e-05,1.7661656102063716e-06,6.406231477740221e-06,-9.663167475082446e-06,5.0970978918485343e-05
-4.021173299406655e-05,2.541588628446334e-07,2.3687532575422665e-06,-8.327751856995746e-06,5.431455429061316e-05
-3.023181670869235e-05,8.62884826346999e-06,3.3056128359021386e-06,-6.465722890425241e-06,5.9137884818483144e-05
-2.04522493731929e-05,2.167105230910238e-05,8.06186562840594e-06,-8.459305718133692e-06,6.312131881713867e-05
-1.2970752322871704e-05,3.6829591408604756e-05,1.2168822649982758e-05,-1.1844770597235765e-05,6.394147931132466e-05
-5.55728365725372e-06,5.47684685443528e-05,1.5718071153969504e-05,-1.0633852980390657e-05,6.25502725597471e-05
1.5441315781572484e-06,7.151522004278377e-05,2.050299008260481e-05,-9.139471330854576e-06,6.043074608896859e-05
2.003337385758641e-06,7.60657130740583e-05,2.147440318367444e-05,-1.3422290976450313e-05,5.831729504279792e-05
-7.187932169472333e-06,6.463010504376143e-05,1.7624348402023315e-05,-1.9477822206681594e-05,5.3891566494712606e-05
-2.2269992768997326e-05,4.541586895356886e-05,1.2695514669758268e-05,-1.997092658712063e-05,4.8126890760613605e-05
-3.3067772164940834e-05,2.8899747121613473e-05,9.549764399707783e-06,-1.4705495232192334e-05,4.592411278281361e-05
-3.108872624579817e-05,1.963001341209747e-05,9.092973414226435e-06,-9.800972293305676e-06,5.0430939154466614e-05
-2.2603579054703005e-05,8.730947229196317e-06,1.1914906281162985e-05,-1.1018762052117381e-05,5.766773028881289e-05
-2.4302064048242755e-05,8.945140166360943e-07,1.3885339285479859e-05,-1.5740813978482038e-05,5.985331881674938e-05
-3.2931020541582257e-05,1.1698238267854322e-05,1.4484859093499836e-05,-2.1892645236221142e-05,5.924221841269173e-05
-2.99402072414523e-05,4.043310764245689e-05,1.5243738744175062e-05,-2.4449118427583016e-05,6.139658944448456e-05
-1.5963534679031e-05,7.044219091767445e-05,1.371256985294167e-05,-2.4685305106686428e-05,6.559104804182425e-05
-7.513051968999207e-06,9.145077638095245e-05,9.75449165707687e-06,-2.6222740416415036e-05,6.878148269606754e-05
-1.1866921340697445e-05,0.00010945918620564044,7.37300706532551e-06,-2.849576594599057e-05,6.975628639338538e-05
-1.2682745364145376e-05,0.00011972080392297357,7.396063665510155e-06,-3.0228500691009685e-05,6.705569103360176e-05
-3.026235617653583e-06,0.00010607192234601825,1.0034792467195075e-05,-3.260376979596913e-05,6.45559121039696e-05
2.5654260298324516e-06,6.413278606487438e-05,9.818662874749862e-06,-3.2725751225370914e-05,6.369579932652414e-05
1.2622069789358648e-06,7.3207188506785315e-06,1.2759442142851185e-06,-3.245669722673483e-05,6.29065471002832e-05
-1.1925986655114684e-05,-4.378657467896119e-05,-2.873460289265495e-06,-2.9381353670032695e-05,6.061410022084601e-05
-2.8266938898013905e-05,-8.122355939121917e-05,-1.435214016964892e-06,-2.096012030960992e-05,5.626878555631265e-05
-3.5701603337656707e-05,-0.00010166403808398172,-3.214711114196689e-06,-1.5533178157056682e-05,5.0014590669889e-05
-3.819140692939982e-05,-9.794426296139136e-05,-4.0709878703637514e-06,-1.4853750144538935e-05,4.691513822763227e-05
-3.72174872609321e-05,-6.087021392886527e-05,-3.1711002179690695e-07,-1.3786891031486448e-05,4.690924833994359e-05
-3.5859855415765196e-05,-9.913746907841414e-06,4.4555381464306265e-06,-1.1030211680918e-05,4.6260396629804745e-05
-3.950518657802604e-05,3.054369881283492e-05,6.064217814127915e-06,-7.0271048571157735e-06,4.2214582208544016e-05
-4.580156382871792e-05,4.640973202185705e-05,5.358440375857754e-06,-4.4721176095663395e-07,3.634183667600155e-05
-4.6932742407079786e-05,3.971453770645894e-05,4.459652245714096e-06,5.286638952384237e-06,3.089528763666749e-05
-4.387607623357326e-05,2.5884739443426952e-05,3.824901796178892e-06,5.329971827450208e-06,2.7429297915659845e-05
-4.1234754462493584e-05,1.6286454410874285e-05,4.918043032375863e-06,2.5416436528757913e-06,2.8175119950901717e-05
-4.3577339965850115e-05,1.6434103599749506e-05,7.142777576518711e-06,4.375246135168709e-06,3.124825525446795e-05
-5.1448147132759914e-05,2.5465458747930825e-05,7.411710157612106e-06,9.086107638722751e-06,3.495762211969122e-05
-5.484732173499651e-05,3.815383024630137e-05,3.868988187605282e-06,1.2120908650103956e-05,3.8487338315462694e-05
-4.201314368401654e-05,4.468337647267617e-05,2.550900489950436e-06,1.0519086572458036e-05,4.0404203900834545e-05
-1.732624696160201e-05,4.5907807361800224e-05,7.240122613438871e-06,5.874036105524283e-06,3.874536923831329e-05
4.42123109678505e-06,5.198848884901963e-05,9.238407983502839e-06,2.1755724901595386e-06,3.580637348932214e-05
1.199555117636919e-05,6.607950490433723e-05,5.485206202138215e-06,-1.2657496881729458e-06,3.5454679164104164e-05
9.727737960929517e-06,7.095842738635838e-05,-3.569188891106023e-07,-1.424471520294901e-06,3.837631084024906e-05
9.442082955501974e-06,6.223408126970753e-05,-4.224730673740851e-06,3.912810484507645e-07,4.1661423892946914e-05
6.080296316213207e-06,5.0045367970597e-05,-2.9378900308074662e-06,-2.8207200557517353e-06,4.282239024178125e-05
-7.396873115794733e-06,4.564200935419649e-05,6.568932349182433e-07,-5.692431841453072e-06,4.185464058537036e-05
-2.5657573132775724e-05,4.742384044220671e-05,3.882423243339872e-06,-5.715608494938351e-06,4.319519939599559e-05
-3.9275153540074825e-05,4.9481968744657934e-05,1.118555474022287e-06,-5.150036940904101e-06,4.700080171460286e-05
-4.5720618800260127e-05,5.1691382395802066e-05,-4.4517128117149696e-06,-7.618328709213529e-06,5.0459948397474363e-05
-4.340990199125372e-05,4.751200322061777e-05,-5.645300461765146e-06,-1.0335131264582742e-05,5.450471144285984e-05
-3.735291102202609e-05,4.2962947190972045e-05,-4.2193282752123196e-06,-7.31253612684668e-06,5.839381265104748e-05
-3.858664786093868e-05,4.023102155770175e-05,-1.6692464441803168e-06,-4.069623173563741e-06,5.955738015472889e-05
-4.296124097891152e-05,3.834383096545935e-05,-9.390068385073391e-07,-3.979001121479087e-06,6.228478014236316e-05
-4.636334051610902e-05,3.162754001095891e-05,1.7011096815622295e-06,-5.74223213334335e-06,6.550712714670226e-05
-4.634690048987977e-05,1.7115353330154903e-05,4.646148227038793e-06,-8.42328790895408e-06,6.77407078910619e-05
-4.615504076355137e-05,8.247150617535226e-06,3.5380439840082545e-06,-9.091572792385705e-06,6.888500502100214e-05
-4.764624100062065e-05,9.026513907883782e-06,2.191354951719404e-06,-8.249898201029282e-06,6.989668327150866e-05
-4.815606007468887e-05,1.2973758202861063e-05,1.27956025153253e-06,-1.0547208148636855e-05,7.050199928926304e-05
-4.5131120714358985e-05,1.2993402378924657e-05,1.6788483208074467e-06,-1.3027175555180293e-05,6.986113294260576e-05
-3.911973908543587e-05,7.750041731924284e-06,2.1840330646227812e-06,-1.110881203203462e-05,6.780288822483271e-05
-3.424430906306952e-05,-2.053289108516765e-06,1.1955364698224002e-06,-8.021518624445889e-06,6.491631938843057e-05
-3.058712536585517e-05,-7.900885975686833e-06,-6.09688527219987e-07,-1.1156939763168339e-05,6.313680933089927e-05
-2.585286711109802e-05,-1.2266067642485723e-05,-1.8992097921000095e-06,-1.5049608009576332e-05,6.390352064045146e-05
-2.3122751372284256e-05,-2.2038242605049163e-05,-3.502123036014382e-06,-1.1721503142325673e-05,6.530002428917214e-05
-2.8295793526922353e-05,-2.9112321499269456e-05,-6.276292424445273e-06,-5.409093319030944e-06,6.556304288096726e-05
-3.7424219044623896e-05,-1.8594530047266744e-05,-6.328202289296314e-06,-3.4947061067214236e-06,6.65263578412123e-05
-4.244291631039232e-05,4.589354830386583e-06,-1.7813305248637334e-06,-5.3899470913165715e-06,6.75527480780147e-05
-4.4182725105201825e-05,2.320471867278684e-05,4.424035978445318e-06,-7.479330633941572e-06,6.860556459287181e-05
-4.842299676965922e-05,2.694497561606113e-05,9.062159733730368e-06,-1.0220664080407005e-05,6.841144931968302e-05
-5.261946716927923e-05,1.2512110515672248e-05,9.657152986619622e-06,-1.4311497579910792e-05,6.669447611784562e-05
-5.068881728220731e-05,-3.7924685329926433e-06,4.4230673665879294e-06,-2.0082841729163192e-05,6.35119722574018e-05
-4.459493720787577e-05,1.007911760098068e-05,1.6176970802916912e-06,-2.4013270376599394e-05,6.0235935961827636e-05
-4.905557580059394e-05,5.092068749945611e-05,4.5296287680685055e-06,-2.337599653401412e-05,5.684658026439138e-05
-7.151703903218731e-05,8.283950592158362e-05,8.585184332332574e-06,-1.9817651264020242e-05,5.893180423299782e-05
-8.806325058685616e-05,8.443464321317151e-05,1.0568141078692861e-05,-1.8904831449617632e-05,6.149160617496818e-05
-7.86821692599915e-05,7.231985364342108e-05,8.104620064841583e-06,-2.2524871383211575e-05,6.104502972448245e-05
-5.84591252845712e-05,6.956190918572247e-05,8.857414286467247e-06,-2.392715214227792e-05,6.141883932286873e-05
-4.1555958887329325e-05,7.388874655589461e-05,1.384197184961522e-05,-2.2698570319334976e-05,6.410058995243162e-05
-3.810686757788062e-05,8.874906052369624e-05,1.696984145382885e-05,-1.877384420367889e-05,6.849035708000883e-05
-4.207038364256732e-05,9.934117406373844e-05,1.387349493597867e-05,-1.44710411404958e-05,6.775338260922581e-05
-4.0570776036474854e-05,8.85895497049205e-05,5.577322554017883e-06,-1.5176791748672258e-05,6.339823448797688e-05
-2.4120217858580872e-05,5.512662755791098e-05,-3.1307222343457397e-06,-1.860218617366627e-05,6.208670674823225e-05
-3.2411776373919565e-06,1.8210030248155817e-05,-5.424401024356484e-06,-2.3360787963611074e-05,6.655958713963628e-05
3.811895339822513e-06,-1.8026080397248734e-06,1.2941789009346394e-06,-2.499019683455117e-05,7.289776112884283e-05
-1.9092269667453365e-06,3.442478373472113e-06,9.149576726485975e-06,-2.398184733465314e-05,7.792881660861894e-05
-1.232703016285086e-05,1.7494310668553226e-05,1.0887854841712397e-05,-2.2676002117805183e-05,7.996503700269386e-05
-2.03511390282074e-05,2.0099976609344594e-05,8.70193343871506e-06,-2.0216230041114613e-05,7.892181019997224e-05
-2.156910704798065e-05,1.5055585208756384e-05,9.276048331230413e-06,-1.547968713566661e-05,7.687535980949178e-05
-1.1753237231459934e-05,1.587952283443883e-05,1.0078071682073642e-05,-1.2006866199953947e-05,7.462992653017864e-05
3.131993480565143e-06,2.205846249125898e-05,8.05575109552592e-06,-1.1020730198652018e-05,7.371112587861717e-05
1.157554015662754e-05,2.7998516088700853e-05,3.1198535452858778e-06,-7.483710760425311e-06,7.248461770359427e-05
7.4469539868005086e-06,4.1558821976650506e-05,-1.2069497188349487e-06,-6.090522219892591e-07,7.15042624506168e-05
4.197312136966502e-06,5.935214721830562e-05,-1.723432433209382e-06,5.991763373458525e-06,7.116906635928899e-05
1.486676683271071e-05,6.765035504940897e-05,3.222159875804209e-06,1.224340212502284e-05,7.053602166706696e-05
3.624185046646744e-05,5.639068695018068e-05,9.926452548825182e-06,2.110131572408136e-05,7.17891234671697e-05
5.489483373821713e-05,2.90570442302851e-05,1.484097901993664e-05,2.9455886760842986e-05,7.415643631247804e-05
5.4946904128883034e-05,2.471844936735579e-06,1.686143696133513e-05,3.327308513689786e-05,7.604613347211853e-05
3.1176910852082074e-05,-7.574922619824065e-06,1.440741016267566e-05,3.2625554013065994e-05,7.582015678053722e-05
3.4153808883274905e-06,1.4068467635297566e-06,9.097968359128572e-06,2.1268542695906945e-05,7.079677743604407e-05
-1.477683963457821e-05,1.7808033589972183e-05,6.227700851013651e-06,4.521836672211066e-06,6.274725456023589e-05
-2.7260863134870306e-05,2.448891245876439e-05,8.228466867876705e-06,-1.9007663922820939e-06,5.926618541707285e-05
