-2.5463852580287494e-05,3.437674240558408e-05,2.3677190256421454e-05,-9.271549970435444e-06,5.460780448629521e-05
-2.3829148631193675e-05,3.357364403200336e-05,1.9484672520775348e-05,-1.055799384630518e-05,5.702396811102517e-05
-2.6544426873442717e-05,3.279254087829031e-05,1.5989031453500502e-05,-1.4356117389979772e-05,5.8427522162673995e-05
-2.8006397769786417e-05,2.784913158393465e-05,1.4805089449509978e-05,-1.5122283912205603e-05,5.653776679537259e-05
-2.9135948352632113e-05,2.336796205781866e-05,1.1818470738944598e-05,-1.0393726370239165e-05,5.493811841006391e-05
-3.4183362004114315e-05,2.5481973352725618e-05,1.0479797310836148e-05,-6.865432624181267e-06,5.3793370170751587e-05
-3.729226955329068e-05,3.476507117738947e-05,1.0908800504694227e-05,-1.0731628208304755e-05,5.461048203869723e-05
-3.795578595600091e-05,4.174526111455634e-05,1.0229015060758684e-05,-1.6231355402851477e-05,5.709257675334811e-05
-3.6101657315157354e-05,3.872524030157365e-05,9.454120117879938e-06,-2.2694302970194258e-05,5.5063650506781414e-05
-2.9237196940812282e-05,3.348339305375703e-05,6.968249181227293e-06,-3.1110597774386406e-05,5.092648643767461e-05
-1.8089558579958975e-05,3.289645610493608e-05,1.2211554576424533e-06,-3.9531074435217306e-05,5.0790611567208543e-05
-8.382216947211418e-06,3.4072243579430506e-05,-2.689232360353344e-06,-4.548012657323852e-05,5.5498112487839535e-05
-3.5847619983542245e-06,3.7392121157608926e-05,-2.615737685118802e-06,-4.4072610762668774e-05,6.32594310445711e-05
-2.4967110334728204e-07,5.211508323554881e-05,-2.5636680334173434e-07,-3.367022145539522e-05,6.9481335231103e-05
4.5156780288380105e-06,6.983839557506144e-05,5.406802188190341e-07,-1.8798049495671876e-05,6.85353807057254e-05
1.0232995009573642e-05,7.837031444068998e-05,-2.491628038114868e-06,-8.110419003060088e-06,6.450858199968934e-05
1.6631824109936133e-05,7.572433969471604e-05,-9.048550055013038e-06,-2.8007452783640474e-06,6.559632311109453e-05
2.061066697933711e-05,6.45185136818327e-05,-1.2767092812282499e-05,3.7346771932789125e-06,6.858193955849856e-05
1.6132911696331576e-05,4.1687289922265336e-05,-9.602535101294052e-06,1.509368303231895e-05,6.599297194043174e-05
4.869013082497986e-06,1.527921631350182e-05,-5.246479759080103e-06,2.5107525289058685e-05,6.0135000239824876e-05
-1.9215981410525274e-06,7.790985364408698e-06,-5.6852350098779425e-06,3.334019493195228e-05,5.765833702753298e-05
-1.7831051764005679e-06,1.8285760233993642e-05,-7.348740382440155e-06,3.8285415939753875e-05,5.8242276281816885e-05
-2.5356694095535204e-06,2.5183318939525634e-05,-6.777052021789132e-06,3.1067080271895975e-05,5.8037665439769626e-05
-6.089830549171893e-06,1.4510038454318419e-05,-3.3765716125344625e-06,1.4956683116906788e-05,5.684685311280191e-05
-1.1851338058477268e-05,-2.9538437047449406e-06,-1.1247850579820806e-06,2.1460523385030683e-06,5.5383792641805485e-05
-2.250935540359933e-05,-3.937985184165882e-06,-5.488584974955302e-06,-6.442503490688978e-06,5.340776624507271e-05
-3.806729364441708e-05,6.819173449912341e-06,-1.088184944819659e-05,-1.0067779840028379e-05,5.2724313718499616e-05
-5.5241238442249596e-05,1.3889623005525209e-05,-1.2683630302490201e-05,-9.784484063857235e-06,4.981740494258702e-05
-6.795056106057018e-05,1.3799385669699404e-05,-1.0604110684653278e-05,-1.2461148799047805e-05,5.1161201554350555e-05
-6.726047286065295e-05,1.0413444215373602e-05,-6.264851435844321e-06,-1.988057920243591e-05,5.798683923785575e-05
-5.753890218329616e-05,5.999478162266314e-06,-4.782588803209364e-06,-2.5723031285451725e-05,6.350222247419879e-05
-4.745685509988107e-05,1.206521233143576e-06,-3.032882432307815e-06,-3.0270033676060848e-05,6.667416892014444e-05
-3.842632577288896e-05,3.186156163792475e-06,-4.7500304845016217e-07,-3.8459791539935395e-05,6.709909212077036e-05
-3.083897172473371e-05,1.3921825484430883e-05,-7.00210762261122e-07,-4.5139040594222024e-05,6.408307672245428e-05
-2.980739009217359e-05,2.9909206205047667e-05,-4.872298632108141e-06,-4.670102134696208e-05,6.099062011344358e-05
-3.2975643989630044e-05,3.722390465554781e-05,-6.533496616611956e-06,-4.419993274495937e-05,6.384756852639839e-05
-3.59455261786934e-05,3.5444445529719815e-05,-2.916954827014706e-06,-3.828385888482444e-05,6.332732300506905e-05
-3.8108952139737085e-05,2.593833050923422e-05,5.444433668344573e-07,-2.751811916823499e-05,5.806516855955124e-05
-3.665726035251282e-05,1.6492738723172806e-05,5.23820881426218e-06,-1.106694617192261e-05,5.495973164215684e-05
-3.397321415832266e-05,1.4949622709536925e-05,1.117407919082325e-05,7.352082775469171e-06,5.848769433214329e-05
-3.1084091460797936e-05,2.7618936655926518e-05,1.9491313651087694e-05,2.3064176275511272e-05,6.637869228143245e-05
-2.6156696549151093e-05,4.759574221679941e-05,2.7641830456559546e-05,3.269979788456112e-05,7.430509867845103e-05
-2.1066203771624714e-05,6.105086504248902e-05,3.160249616485089e-05,3.332993946969509e-05,7.653703505638987e-05
-1.893010994535871e-05,6.565263902302831e-05,2.9523960620281287e-05,2.5908660973072983e-05,7.150496821850538e-05
-1.580151729285717e-05,6.558472523465753e-05,2.4707434931769967e-05,1.7604910681257024e-05,6.461307930294424e-05
-5.194929599383613e-06,6.693502655252814e-05,1.9661325495690107e-05,1.1856139281007927e-05,6.445309554692358e-05
8.379696737392806e-06,6.695196498185396e-05,1.5374105714727193e-05,4.801447175850626e-06,7.195163198048249e-05
6.58212002235814e-06,5.563345621339977e-05,1.5690729924244806e-05,-2.8107178877689876e-06,7.796413410687819e-05
-1.5949077351251617e-05,3.5117220249958336e-05,2.021098043769598e-05,-7.714014827797655e-06,7.741884473944083e-05
-4.555300256470218e-05,1.3723280062549748e-05,2.0001856682938524e-05,-1.1774784979934338e-05,7.060066127451137e-05
-6.701459642499685e-05,-1.2462445738492534e-05,1.1802603694377467e-05,-1.7152879081550054e-05,6.439926073653623e-05
-7.888234540587291e-05,-2.1654850570484996e-05,5.453533049148973e-06,-1.9514751329552382e-05,5.728998439735733e-05
-8.627936040284112e-05,8.59664908148261e-07,6.872420271974988e-06,-1.3880293408874422e-05,5.024917481932789e-05
-9.001998841995373e-05,2.6391124265501276e-05,1.0947793271043338e-05,-4.307588824303821e-06,4.794271808350459e-05
-8.99626684258692e-05,3.1901243346510455e-05,1.2334865459706634e-05,1.1389023484298377e-06,4.863816502620466e-05
-8.659389277454466e-05,3.0217717721825466e-05,9.731219506647903e-06,2.6225329747830983e-06,4.925675239064731e-05
-7.867264503147453e-05,3.232892413507216e-05,6.4940131778712384e-06,3.189177988360825e-08,5.02017282997258e-05
-6.405599560821429e-05,3.578480027499609e-05,5.452449386211811e-06,-6.381068487826269e-06,4.760014417115599e-05
-5.1995953981531784e-05,3.379918780410662e-05,4.3464851842145436e-06,-9.549308742862195e-06,4.529898433247581e-05
-3.607243706937879e-05,3.7809673813171685e-05,6.341263087961124e-06,-9.599410986993462e-06,4.5994955144124106e-05
-2.350605882384116e-06,5.1041082770098e-05,9.398932888871059e-06,-8.953171345638111e-06,4.67650024802424e-05
4.0784016164252535e-05,6.045891859685071e-05,1.2426918146957178e-05,-9.494984624325298e-06,4.985032501281239e-05
7.376796565949917e-05,6.0191083321115e-05,1.3913056136516389e-05,-1.2471531590563245e-05,5.4921623814152554e-05
8.650500967632979e-05,5.7440862292423844e-05,1.4051724065211602e-05,-1.1638712749117985e-05,5.80084633838851e-05
8.210646774386987e-05,5.157332634553313e-05,1.5051613445393741e-05,-8.00096859165933e-06,5.575353134190664e-05
6.93148685968481e-05,3.221815131837502e-05,1.44075329444604e-05,-7.867271961004008e-06,5.270825568004511e-05
5.4309391998685896e-05,4.632307081919862e-06,1.2274245818844065e-05,-1.3004038919461891e-05,5.1635655836435035e-05
3.5420689528109506e-05,-1.4317240129457787e-05,1.2754373528878205e-05,-1.79115122591611e-05,5.414694533101283e-05
1.3674699403054547e-05,-2.0699733795481734e-05,1.497796256444417e-05,-1.9521112335496582e-05,5.627615610137582e-05
-7.014935363258701e-06,-2.8039527023793198e-05,1.4736982848262414e-05,-1.9037872334592976e-05,5.372790474211797e-05
-2.2044199795345776e-05,-3.778037353185937e-05,1.225051710207481e-05,-2.0056071662111208e-05,4.952833114657551e-05
-3.1083378416951746e-05,-4.153971894993447e-05,1.0733652743510902e-05,-2.5374150936841033e-05,4.947086563333869e-05
-3.3278462069574744e-05,-3.878811912727542e-05,1.0314136488887016e-05,-3.2490155717823654e-05,5.561561192735098e-05
-2.5244062271667644e-05,-3.452048622420989e-05,7.535401437053224e-06,-3.486838977551088e-05,6.216630572453141e-05
-1.0552896128501743e-05,-2.495947956049349e-05,6.474587735283421e-06,-3.227914930903353e-05,6.367772584781051e-05
-6.1378159443847835e-06,-1.0391916475782637e-05,7.837652447051369e-06,-2.8046095394529402e-05,6.451337685575709e-05
-1.6424803106929176e-05,5.01721797263599e-06,6.129409939603647e-06,-2.2529240595758893e-05,6.85414343024604e-05
-3.6522047594189644e-05,1.8090040612150915e-05,4.524778887571301e-06,-1.9552047888282686e-05,7.03125333529897e-05
-6.686624692520127e-05,3.325036232126877e-05,4.0362092477153055e-06,-1.9602955944719724e-05,6.852593651274219e-05
-9.528839291306213e-05,5.580089782597497e-05,-3.28077703670715e-07,-2.4782893888186663e-05,6.407916225725785e-05
-0.00010598134394967929,6.500694144051522e-05,-2.5214490051439498e-06,-3.268502405262552e-05,5.7604054745752364e-05
-9.090543608181179e-05,6.021788431098685e-05,-1.0594698096610955e-06,-3.2556814403505996e-05,5.201777457841672e-05
-5.654866617987864e-05,6.638977356487885e-05,-9.582578286426724e-07,-2.386162850598339e-05,5.446669092634693e-05
-1.8700182408792898e-05,7.240975537570193e-05,-1.5838359104236588e-06,-1.7228052456630394e-05,6.028894131304696e-05
5.910491836402798e-06,6.795935041736811e-05,-1.7064317034964915e-06,-1.5236857507261448e-05,6.154082075227052e-05
1.6000969480955973e-05,4.9534206482348964e-05,-2.147006853192579e-06,-1.3673641660716385e-05,6.0864826082251966e-05
1.3395216228673235e-05,2.1731650122092105e-05,-1.71822068750771e-06,-1.1495312719489448e-05,6.096101787989028e-05
-3.6449765161705727e-07,3.935920460662601e-07,-5.456751296151197e-06,-1.1981837815255858e-05,6.253086030483246e-05
-1.6728703485568985e-05,-1.0115008080902044e-05,-1.4395827747648582e-05,-1.3991368177812546e-05,6.057206337573007e-05
-3.1292391213355586e-05,-9.43540726439096e-06,-1.755764606059529e-05,-1.4417708371183835e-05,5.565583342104219e-05
-4.0222148527391255e-05,5.301864803186618e-06,-1.3343522368813865e-05,-1.1736367014236748e-05,5.303856960381381e-05
-4.292028825148009e-05,3.015963920915965e-05,-5.374335614760639e-06,-5.826387678098399e-06,5.6213091738754883e-05
-4.368978625279851e-05,5.0838858442148194e-05,4.198218448436819e-06,3.1987244710762752e-06,6.153345748316497e-05
-4.7373574489029124e-05,6.245591794140637e-05,1.1214924597879872e-05,9.737384971231222e-06,6.508536171168089e-05
-4.867095412919298e-05,6.901411688886583e-05,1.3512710211216472e-05,7.156011179176858e-06,6.525086791953072e-05
-4.584974885801785e-05,7.114856998668984e-05,1.659503141127061e-05,6.537799777106557e-07,6.1898521380499e-05
-4.14149762946181e-05,7.120090594980866e-05,2.094130468321964e-05,-1.4010727227287134e-06,5.935915032750927e-05
-3.905881749233231e-05,7.346879283431917e-05,2.051655792456586e-05,-1.5918838469630714e-09,6.112786650191993e-05
-3.831593494396657e-05,7.65533113735728e-05,1.5496087144128978e-05,-2.0546657708564453e-07,6.398061668733135e-05
-3.520752943586558e-05,8.344509842572734e-05,1.0685631423257291e-05,-2.821672978825518e-06,6.484879122581333e-05
-2.798650530166924e-05,9.439145651413128e-05,6.113012659625383e-06,-6.167405899759615e-06,6.414538802346215e-05
-2.1163688870728947e-05,0.00010184412531089038,1.6911284319576225e-06,-8.9240793386125e-06,6.225969264050946e-05
-1.6715353922336362e-05,0.00010058860789285973,-1.8450366496836068e-06,-1.030569001159165e-05,6.0538543039001524e-05
-1.666985554038547e-05,9.486750786891207e-05,-6.823170679126633e-06,-9.71519148151856e-06,5.9965117543470114e-05
-2.59704847849207e-05,8.20137865957804e-05,-1.0926498362096027e-05,-9.191732715407852e-06,5.994231833028607e-05
-3.600683339755051e-05,6.550492253154516e-05,-1.125919516198337e-05,-8.051772056205664e-06,5.822823368362151e-05
-3.7784979213029146e-05,5.48705538676586e-05,-8.456119758193381e-06,-9.126026270678267e-06,5.829062138218433e-05
-3.7442321627167985e-05,4.368103691376746e-05,-5.843743110744981e-06,-1.0564702279225457e-05,5.882658660993911e-05
-4.408919994602911e-05,3.484339322312735e-05,-5.302489171299385e-06,-8.841843737172894e-06,5.8680103393271565e-05
-5.0659466069191694e-05,2.9100487154209986e-05,-3.217090352336527e-06,-4.202047421131283e-06,5.797411358798854e-05
-5.064207289251499e-05,2.686756124603562e-05,2.184274535466102e-06,-2.5777696919249138e-06,5.704809882445261e-05
-4.168723171460442e-05,3.2131760235643014e-05,4.847397121920949e-06,-5.4527704378415365e-06,5.713324208045378e-05
-2.9204151360318065e-05,3.937833025702275e-05,2.7697788027580827e-06,-8.331161552632693e-06,5.6772165407892317e-05
-1.9757562768063508e-05,3.751256372197531e-05,1.1180146657352452e-06,-1.3724583368457388e-05,5.861802856088616e-05
-1.4079369975661393e-05,2.2390979211195372e-05,2.0011641765904642e-07,-1.837394302128814e-05,5.96060162934009e-05
-1.0085639587487094e-05,7.2734355853754096e-06,-2.6149848508794094e-06,-2.1244242816464975e-05,5.6282664445461705e-05
-7.2261650529981125e-06,8.857300599629525e-06,-4.558135515253525e-06,-1.9182005416951142e-05,5.56109516764991e-05
-4.603553406923311e-06,2.7562022296478972e-05,-3.699438593685045e-06,-1.2283048818062525e-05,5.9823476476594806e-05
-3.318408971608733e-06,3.9979411667445675e-05,-9.831593388298643e-07,-8.073022399912588e-06,6.323725392576307e-05
-7.1167160058394074e-06,3.872871457133442e-05,-2.2008987343724584e-06,-1.0157170436286833e-05,6.395513628376648e-05
-1.4510809705825523e-05,2.828338801919017e-05,-1.1009496120095719e-05,-1.4051653124624863e-05,6.249680882319808e-05
-2.0042079995619133e-05,5.659712769556791e-06,-1.9698982214322314e-05,-1.664016417635139e-05,6.0052341723348945e-05
-2.412394678685814e-05,-2.1542837203014642e-05,-1.91227845789399e-05,-1.726745904306881e-05,5.931578198214993e-05
-2.8668133381870575e-05,-2.6785532099893317e-05,-1.1046408872061875e-05,-1.5541223547188565e-05,6.247971759876236e-05
-3.523866325849667e-05,-1.0598261724226177e-05,-3.705783228724613e-06,-1.4416991689358838e-05,6.738612137269229e-05
-4.4725929910782725e-05,-8.281197949600028e-08,-1.3535584741930506e-07,-1.477150453865761e-05,6.843527080491185e-05
-5.481125845108181e-05,-4.651452854886884e-06,4.823662493436132e-06,-1.4615577129006851e-05,6.37894481769763e-05
-6.077920988900587e-05,-1.0171556823479477e-05,1.2598672583408188e-05,-1.3211305486038327e-05,5.62343375349883e-05
-5.8022942539537326e-05,-8.014247214305215e-06,1.5685844118706882e-05,-1.4052209735382348e-05,5.174590478418395e-05
-5.150280776433647e-05,-2.5385950266354484e-06,1.3238795872894116e-05,-1.6829886590130627e-05,5.354961831471883e-05
-4.6562003262806684e-05,2.7497685550770257e-06,1.2346865332801826e-05,-1.9541284927981906e-05,5.8725036069517955e-05
-4.2075156670762226e-05,6.602237590414006e-06,1.3183448572817724e-05,-2.0710291209979914e-05,6.423097511287779e-05
-3.90697387047112e-05,8.969551345217042e-06,1.2759437595377676e-05,-2.277995372423902e-05,6.675165786873549e-05
-3.8803053030278534e-05,3.928545538656181e-06,1.0546347766648978e-05,-2.7555141059565358e-05,6.126664811745286e-05
-4.2492269130889326e-05,-1.180380309051543e-06,6.860276698716916e-06,-3.405384632060304e-05,5.5344262364087626e-05
-4.68645739601925e-05,1.0964157581838663e-06,5.723335561924614e-06,-3.9041773561621085e-05,5.7432065659668297e-05
-4.23511337430682e-05,2.7289856916468125e-06,5.1442043513816316e-06,-3.6988993088016286e-05,6.187932012835518e-05
-3.7199857615632936e-05,3.8670727917633485e-06,1.5072048427100526e-06,-2.271859375468921e-05,6.167375249788165e-05
-3.109173121629283e-05,9.309444976679515e-06,-3.0295877877506427e-06,-2.7178839445696212e-06,5.7908247981686145e-05
-2.6306543077225797e-05,1.1604732208070345e-05,-3.5770435147242097e-07,9.947942999133375e-06,5.5660129874013364e-05
-2.5303594156866893e-05,1.3587447938334662e-05,7.796287718520034e-06,1.9057375538977794e-05,5.536631215363741e-05
-2.284741094626952e-05,1.819748467823956e-05,1.1894869203388225e-05,3.0857954698149115e-05,5.678692104993388e-05
-9.825422239373438e-06,2.2782525775255635e-05,1.2355062608548906e-05,4.045492460136302e-05,5.9579262597253546e-05
9.670144208939746e-06,3.1878513254923746e-05,1.5703011740697548e-05,4.145225466345437e-05,6.416034739231691e-05
2.0659455913119018e-05,5.144823080627248e-05,1.9904044165741652e-05,3.3925574825843796e-05,6.486393249360844e-05
2.175809640903026e-05,7.009990076767281e-05,1.9825891286018305e-05,2.3618571503902785e-05,6.276003841776401e-05
1.1123254807898775e-05,7.746805931674317e-05,1.4882361028867308e-05,8.426594831689727e-06,6.0274578572716564e-05
2.705748158859933e-07,7.846100925235078e-05,7.3020937634282745e-06,-9.439422683499288e-06,5.610744119621813e-05
-5.443443114927504e-06,8.151248766807839e-05,4.39527013895713e-07,-2.1836018277099356e-05,5.150591823621653e-05
-1.0997485333064105e-05,7.990276935743168e-05,-3.922485120710917e-06,-2.66073111561127e-05,4.827852171729319e-05
-2.138365016435273e-05,6.82059398968704e-05,-3.5214077342970995e-06,-2.2823558538220823e-05,4.766096390085295e-05
-3.2989653846016154e-05,5.535038508241996e-05,-3.7665904528694227e-07,-1.1191831617907155e-05,4.920356150250882e-05
-3.993306745542213e-05,5.0534887122921646e-05,1.8660067553355475e-06,-2.426271066724439e-06,5.207374124438502e-05
-3.843323065666482e-05,5.2780542318942025e-05,-1.2270734828234708e-07,-6.161842065921519e-06,5.3398311138153076e-05
-3.70659472537227e-05,4.995257768314332e-05,-2.959542143798899e-06,-1.805643660190981e-05,5.578143463935703e-05
-4.2954616219503805e-05,4.015054946648888e-05,-1.5676230304961791e-06,-3.5418324841884896e-05,6.0794838645961136e-05
-4.512838859227486e-05,3.244336767238565e-05,1.1383168612155714e-06,-5.79807601752691e-05,6.408891204046085e-05
-4.030877607874572e-05,2.6456709747435525e-05,-2.48740207098308e-06,-8.305811206810176e-05,6.0920756368432194e-05
-3.3073625672841445e-05,9.830032468016725e-06,-9.751007382874377e-06,-9.993826824938878e-05,5.6030970881693065e-05
-2.0070632672286592e-05,-1.1858453035529237e-05,-1.2400470950524323e-05,-9.986542136175558e-05,5.3873955039307475e-05
-3.699217131725163e-06,-2.615016455820296e-05,-9.197219696943648e-06,-8.438927761744708e-05,5.23780363437254e-05
1.2941048908032826e-06,-2.9946206268505193e-05,-4.583454938256182e-06,-5.889530439162627e-05,5.361151852412149e-05
-2.673700009836466e-06,-1.9203993360861205e-05,7.046980954328319e-07,-2.4448132535326295e-05,5.843468170496635e-05
-1.327911922999192e-05,-3.5259465676062973e-06,3.2654143069521524e-06,1.6483878425788134e-05,5.901767872273922e-05
-2.4711358491913415e-05,5.8093401094083674e-06,4.354094926384278e-06,5.494494325830601e-05,5.638802031171508e-05
-2.8082169592380524e-05,1.1574205018405337e-05,1.2602237802639138e-05,8.625830378150567e-05,5.649430022458546e-05
-2.5917237508110702e-05,1.9350351067259908e-05,2.4993027182063088e-05,0.00010505924728931859,5.636923378915526e-05
-1.8638582332641818e-05,2.9589806217700243e-05,3.5201883292756975e-05,0.00010600545647321269,5.473456621984951e-05
-1.2545237041194923e-05,2.8170230507384986e-05,3.5573011700762436e-05,8.816564513836056e-05,5.1930579502368346e-05
-1.1668602382997051e-05,2.4081693482003175e-05,3.367459066794254e-05,6.204465171322227e-05,4.790817911271006e-05
-1.4994815501268022e-05,2.8319273042143323e-05,3.112188642262481e-05,4.3762411223724484e-05,4.6228124119807035e-05
-1.7124792066169903e-05,3.985024886787869e-05,2.579580723249819e-05,3.447943163337186e-05,4.5229568058857694e-05
-1.591257387190126e-05,4.9552792916074395e-05,2.2142052330309525e-05,2.5600416847737506e-05,4.35057700087782e-05
-1.517042619525455e-05,5.414330735220574e-05,1.9618313672253862e-05,1.714678728603758e-05,4.4173721107654274e-05
-1.7278905943385325e-05,5.7330194977112114e-05,1.687290750851389e-05,1.1174913197464775e-05,4.775419074576348e-05
-2.315590791113209e-05,5.574549868470058e-05,1.3377204595599324e-05,7.670437298656907e-06,5.151312143425457e-05
-2.929469701484777e-05,4.706260369857773e-05,1.5214229279081337e-05,5.034052264818456e-06,5.320539275999181e-05
-3.270037268521264e-05,2.9742228434770368e-05,1.9310156858409755e-05,-1.307487423218845e-06,5.231675095274113e-05
-3.487093999865465e-05,7.357618414971512e-06,2.028494418482296e-05,-1.1606239240791183e-05,5.080000846646726e-05
-4.160340904491022e-05,-8.47128285386134e-06,1.957159474841319e-05,-1.985542621696368e-05,5.1336326578166336e-05
-4.953213283442892e-05,-3.898780505551258e-06,2.286199014633894e-05,-2.2163732865010388e-05,5.541156497201882e-05
-5.409048026194796e-05,1.4097367966314778e-05,2.6125650038011372e-05,-1.9158054783474654e-05,6.124120409367606e-05
-5.949368278379552e-05,2.747206417552661e-05,2.510904050723184e-05,-1.4810130778641906e-05,6.20077844359912e-05
-6.570696859853342e-05,1.90207501873374e-05,2.06733493541833e-05,-1.374679141008528e-05,5.856742791365832e-05
-6.487561040557921e-05,-7.5742032095149625e-06,1.647469798626844e-05,-1.4760030353500042e-05,5.640647214022465e-05
-5.87028989684768e-05,-2.592623422970064e-05,1.4357149666466285e-05,-1.642252755118534e-05,5.441113898996264e-05
-4.9515692808199674e-05,-2.0152456272626296e-05,1.199688449560199e-05,-2.0645484255510382e-05,5.0778089644154534e-05
-4.245118907419965e-05,-3.2945004022622015e-06,7.603776339237811e-06,-2.8038382879458368e-05,4.921011350234039e-05
-4.7158719098661095e-05,6.256922461034264e-06,2.5182828267134028e-06,-3.6140609154244885e-05,5.195842095417902e-05
-6.250498699955642e-05,8.206879101635423e-06,4.844527552450018e-07,-4.447949322639033e-05,5.329432315193117e-05
-7.32320622773841e-05,8.546982826374006e-06,1.8677164916880429e-06,-4.9016220145858824e-05,5.393200262915343e-05
-6.54473333270289e-05,7.468810508726165e-06,5.873887403140543e-06,-5.052432607044466e-05,5.816870179842226e-05
-4.8191501264227554e-05,1.3763046808890067e-05,8.045319191296585e-06,-4.7423323849216104e-05,6.45388790871948e-05
-3.368778561707586e-05,2.9773884307360277e-05,5.037205028202152e-06,-3.4374035749351606e-05,6.935347482794896e-05
-2.420463351882063e-05,4.737765993922949e-05,1.3773751561529934e-06,-2.0037936337757856e-05,7.297054980881512e-05
-2.1916259356657974e-05,6.382375431712717e-05,2.0695108560175868e-06,-1.5871157302171923e-05,7.407133671222255e-05
-2.8563787054736167e-05,7.253994408529252e-05,2.0903785298287403e-06,-1.8057600755128078e-05,6.998039316385984e-05
-3.0964380130171776e-05,7.105589611455798e-05,1.0138703601114685e-06,-1.4325742995424662e-05,6.872860103612766e-05
-1.8286582417204045e-05,6.905166810611263e-05,1.2236063184900559e-06,-3.4315719403821277e-06,6.954601121833548e-05
2.846218649210641e-06,6.740445678588003e-05,1.9345654891367303e-06,7.231229574244935e-06,7.079096394591033e-05
1.7842803572420962e-05,6.484235200332478e-05,1.600407131263637e-06,1.2377340681268834e-05,6.924062472535297e-05
2.5521816496620886e-05,6.527623190777376e-05,2.366282842558576e-06,5.8282848840462975e-06,6.476216367445886e-05
2.994756869156845e-05,6.675953045487404e-05,1.3632038644573186e-06,-9.730347301228903e-06,6.085435961722396e-05
2.9787224775645882e-05,5.9660786064341664e-05,1.564872263770667e-06,-2.3272437829291448e-05,6.060763553250581e-05
2.7966209017904475e-05,3.82237667508889e-05,7.796365935064387e-06,-2.7116871933685616e-05,6.12132134847343e-05
2.8469401513575576e-05,8.462805453746114e-06,1.2827453247155063e-05,-2.2598895156988874e-05,5.9085883549414575e-05
2.861631946871057e-05,-1.9985493054264225e-05,1.2163838619017042e-05,-1.871984204626642e-05,5.628541475743987e-05
2.5441404432058334e-05,-3.508264489937574e-05,1.0947177543130238e-05,-2.050041439360939e-05,5.747508839704096e-05
2.423275145702064e-05,-3.2216034014709294e-05,1.3623232007375918e-05,-2.361332553846296e-05,6.199319614097476e-05
2.5198802177328616e-05,-2.0818195480387658e-05,1.740422158036381e-05,-2.2500276827486232e-05,6.243582902243361e-05
2.294060686836019e-05,-1.6291296560666524e-05,1.856664675869979e-05,-1.916616747621447e-05,6.008301716065034e-05
1.2622099347936455e-05,-2.3433274691342376e-05,1.8274486137670465e-05,-1.5594401702401228e-05,5.890217289561406e-05
-7.860451660235412e-06,-3.119212851743214e-05,1.958117172762286e-05,-1.4839790310361423e-05,6.045639020157978e-05
-2.9625825845869258e-05,-2.117394069500733e-05,1.832989619288128e-05,-1.4478100638370961e-05,6.119137833593413e-05
-3.628092599683441e-05,6.225133802217897e-06,1.518824774393579e-05,-1.591452382854186e-05,6.240712536964566e-05
-2.8126458346378058e-05,3.5205484891775995e-05,1.2851425708504394e-05,-2.3138911274145357e-05,6.37081393506378e-05
-2.4097622372210026e-05,5.5378564866259694e-05,7.221025953185745e-06,-3.505693894112483e-05,7.045677193673328e-05
-3.7291163607733324e-05,6.0311089328024536e-05,-2.0777058580279117e-06,-3.809641202678904e-05,7.625569560332224e-05
-5.458852683659643e-05,5.338607661542483e-05,-6.140898221929092e-06,-3.22792366205249e-05,7.706414180574939e-05
-5.142964073456824e-05,4.484081000555307e-05,-6.840888090664521e-06,-2.8363485398585908e-05,7.707536133239046e-05
-2.384482286288403e-05,4.1984381823567674e-05,-1.2291622624616139e-05,-1.915473330882378e-05,7.450152770616114e-05
4.0963373066915665e-06,4.5414588385028765e-05,-1.9037754100281745e-05,-7.157421350711957e-06,7.050663407426327e-05
1.6029123798944056e-05,4.7752095269970596e-05,-1.7854685211204924e-05,3.9331627021965687e-07,6.794771616114303e-05
1.5651763533242047e-05,4.2818293877644464e-05,-1.103544855141081e-05,-9.272919498926058e-08,6.84384212945588e-05
8.36759772937512e-06,3.3729211281752214e-05,-6.005301656841766e-06,-3.9435062717529945e-06,6.691640737699345e-05
2.9554373668361222e-06,3.181118154316209e-05,-5.437365416582907e-06,-4.267053100193152e-06,6.368235335685313e-05
-2.809537420489505e-07,4.5193242840468884e-05,-3.0433336632995633e-06,4.17358023696579e-06,5.905027865082957e-05
-9.444785064260941e-06,6.917637801961973e-05,4.970018380845431e-06,1.1472960068203975e-05,5.796931145596318e-05
-2.7238305847276933e-05,9.095723362406716e-05,1.3531923286791425e-05,6.836136435595108e-06,5.920522380620241e-05
-4.3861120502697304e-05,9.902325109578669e-05,1.815141695260536e-05,-2.0123682133998955e-06,6.096621655160561e-05
-4.995168274035677e-05,8.370153227588162e-05,1.813212293200195e-05,-7.767811439407524e-06,6.213272718014196e-05
-4.9055761337513104e-05,5.210547169554047e-05,1.6954214515862986e-05,-1.1597097000048961e-05,6.269479490583763e-05
-4.899236228084192e-05,2.942237551906146e-05,1.4522036508424208e-05,-1.421314573235577e-05,6.391791976056993e-05
-5.3333391406340525e-05,2.5548937628627755e-05,1.1240616913710255e-05,-1.4301213013823144e-05,6.25834145466797e-05
-5.3906827815808356e-05,2.513804065529257e-05,5.780687843071064e-06,-1.7568303519510664e-05,5.921125193708576e-05
-4.332750177127309e-05,1.576792601554189e-05,9.098448572331108e-08,-2.6025572879007086e-05,5.818206409458071e-05
-2.9996986995683983e-05,3.2116074635268888e-06,-1.919810756589868e-06,-3.793631913140416e-05,6.0376627516234294e-05
-2.7747066269512288e-05,-2.6382526812085416e-06,-3.437119175941916e-06,-4.831339174415916e-05,6.082149047870189e-05
-3.564946382539347e-05,-3.6558778901962796e-06,-8.498325769323856e-06,-5.402833266998641e-05,5.875087663298473e-05
-4.559806257020682e-05,-3.0605403935624054e-06,-9.941964890458621e-06,-5.1407918363111094e-05,5.6559903896413743e-05
-4.8125515604624525e-05,6.828527148172725e-06,-7.277243184944382e-06,-4.2858846427407116e-05,5.604923717328347e-05
-3.930462844436988e-05,2.1919291611993685e-05,-8.49355183163425e-06,-3.331595507916063e-05,5.4557811381528154e-05
-2.8021899197483435e-05,2.82847886410309e-05,-1.3294947166286875e-05,-2.38105403695954e-05,5.5791810154914856e-05
-2.1893532903050072e-05,2.4681095965206623e-05,-1.5311819879570976e-05,-1.6005336874513887e-05,6.0025722632417455e-05
-2.036958721873816e-05,2.2353713575284928e-05,-1.1615939001785591e-05,-7.222781732707517e-06,6.38043784420006e-05
-2.1877658582525328e-05,3.75562631234061e-05,-6.7794157985190395e-06,2.5911733700922923e-06,6.478617433458567e-05
-3.0999344744486734e-05,6.451530498452485e-05,-1.9598785456764745e-06,9.35900243348442e-06,6.269683944992721e-05
-4.055777390021831e-05,9.017958655022085e-05,3.161473614454735e-06,1.2794062058674172e-05,5.8968300436390564e-05
-4.6884095354471356e-05,9.855593816610053e-05,5.529574536922155e-06,1.3756583939539269e-05,5.837165008415468e-05
-4.858057218370959e-05,7.796868158038706e-05,2.4871883397281636e-06,1.3037573808105662e-05,5.582113590207882e-05
-4.809200981981121e-05,4.44582401541993e-05,-7.032862185951672e-07,1.31661481646006e-05,5.1025192078668624e-05
-4.899308260064572e-05,1.3621672223962378e-05,-6.742191089870175e-07,1.1253212505835108e-05,4.8987625632435083e-05
-4.554579936666414e-05,-9.699917882244335e-07,-1.8764851574815111e-06,5.8999721659347415e-06,4.92987128382083e-05
-4.078736310475506e-05,2.1030377865827177e-06,-5.452767709357431e-06,3.4863203381974017e-06,5.368702477426268e-05
-3.522741099004634e-05,1.4446554814639967e-05,-5.720371063944185e-06,5.448213414638303e-06,5.697490996681154e-05
-3.116141670034267e-05,2.6398776753921993e-05,-6.020216005708789e-07,6.25013353783288e-06,5.757747567258775e-05
-3.085247954004444e-05,3.496039425954223e-05,6.261499493120937e-06,3.7329705264710356e-06,5.585044345934875e-05
-3.490521703497507e-05,3.736863436643034e-05,1.135990532930009e-05,-3.7748827708128374e-07,5.4638079745927826e-05
-4.0497372538084164e-05,3.455184196354821e-05,1.082094695448177e-05,-4.309189534978941e-06,5.2208019042154774e-05
-4.4202315621078014e-05,3.0916820833226666e-05,5.059762770542875e-06,-4.516434728429886e-06,5.172129749553278e-05
-4.431436173035763e-05,2.9862707378924824e-05,-1.7086232162455417e-07,-3.4672621040954255e-07,5.577506453846581e-05
-4.493882806855254e-05,2.6497136786929332e-05,2.8509521143860184e-07,3.0334294933709316e-06,5.8811459894059226e-05
-4.976478885510005e-05,1.47758091770811e-05,3.0075752874836326e-06,2.8186352665215963e-06,5.573091402766295e-05
-5.584004975389689e-05,8.10686015029205e-06,4.654304575524293e-06,8.108046358756837e-07,5.428237636806443e-05
-5.4467018344439566e-05,1.4838602510280907e-05,4.176562015345553e-06,-8.282798376058054e-07,5.912352935411036e-05
-4.3828196794493124e-05,2.5873567210510373e-05,3.859705884678988e-06,-3.2364387152483687e-06,6.488138023996726e-05
-3.2138603273779154e-05,3.6112953239353374e-05,5.472759767144453e-06,-6.136984666227363e-06,6.730900349793956e-05
-2.3876842533354647e-05,4.8050434998003766e-05,4.147331310377922e-06,-9.353007953905035e-06,6.31544244242832e-05
-2.7404241336626e-05,5.543650331674144e-05,2.89216131932335e-07,-9.880207471724134e-06,5.6419950851704925e-05
-4.104102117707953e-05,5.629408042295836e-05,-8.682124530423607e-07,-1.1181567970197648e-05,5.3567371651297435e-05
-5.4281284974422306e-05,5.49963406228926e-05,7.244724656629842e-06,-1.6815321941976435e-05,5.584711107076146e-05
-5.1564878958743066e-05,4.7088931751204655e-05,1.4345602721732575e-05,-1.9328259440953843e-05,5.790082286694087e-05
-2.7363506887922995e-05,3.194718374288641e-05,1.4028799341758713e-05,-1.975991290237289e-05,5.868462903890759e-05
-3.869260581268463e-06,1.929271820699796e-05,1.5197693755908404e-05,-1.7789576304494403e-05,6.130181282060221e-05
-1.7700640455586836e-06,6.080182629375486e-06,1.9177867216058075e-05,-1.4394168829312548e-05,6.510533421533182e-05
-1.257592248293804e-05,-1.347143916063942e-05,2.270317963848356e-05,-1.1155461834277958e-05,6.794896034989506e-05
-1.7941149053513072e-05,-3.0574625270674005e-05,2.173145730921533e-05,-1.0047211617347784e-05,6.899706204421818e-05
-1.767611138348002e-05,-3.078885856666602e-05,2.1725832993979566e-05,-8.725393854547292e-06,6.909769581397995e-05
-2.904537359427195e-05,-2.1531388483708724e-05,2.368631430726964e-05,-6.01761030338821e-06,7.125783304218203e-05
-6.0522968851728365e-05,-1.7621619917917997e-05,2.411824607406743e-05,-7.653686225239653e-06,7.217252277769148e-05
-9.582900383975357e-05,-2.2863556296215393e-05,2.2379428628482856e-05,-1.02745252661407e-05,6.891459634061903e-05
-0.00010518537601456046,-1.9725552192539908e-05,1.7510432371636853e-05,-1.4944004760764074e-05,6.396282697096467e-05
-7.452072895830497e-05,2.570062179074739e-06,1.2789704669557977e-05,-1.681661706243176e-05,5.991064608679153e-05
-2.4444792870781384e-05,3.4628919820534065e-05,1.097367476177169e-05,-1.3247120477899443e-05,5.647170473821461e-05
1.4605015167035162e-05,6.349272007355466e-05,1.0140467566088773e-05,-9.974094609788153e-06,5.514421354746446e-05
3.481331805232912e-05,8.377202175324783e-05,7.685439413762651e-06,-9.950436833605636e-06,5.446270733955316e-05
4.052825897815637e-05,9.273711475543678e-05,2.9984887532918947e-06,-9.380074516229797e-06,5.381719165598042e-05
2.8280492188059725e-05,8.689245441928506e-05,-1.4753310324522317e-06,-7.56884628572152e-06,5.3942490922054276e-05
5.447673629532801e-06,7.473938603652641e-05,-4.393213657749584e-06,-7.551720500487136e-06,5.5508957302663475e-05
-1.1668638762785122e-05,6.734435737598687e-05,-3.974844730691984e-06,-7.288782853720477e-06,5.673155828844756e-05
-1.9203809642931446e-05,6.816788663854823e-05,-1.2422819963830989e-06,-7.373475909844274e-06,5.527893154066987e-05
-1.8911548977484927e-05,7.325132173718885e-05,2.6580826215649722e-06,-9.826814675761852e-06,5.3309311624616385e-05
-1.0609161108732224e-05,7.69873513490893e-05,1.0536255103943404e-05,-1.1950985026487615e-05,5.228514055488631e-05
2.1106646386215289e-07,7.204979192465544e-05,1.7513804777991027e-05,-1.4261450814956333e-05,5.20576249982696e-05
7.4566951298038475e-06,5.5628406698815525e-05,1.803452141757589e-05,-1.6412484910688363e-05,5.128519478603266e-05
6.2654412431584205e-06,2.7078511266154237e-05,1.1700946743076202e-05,-2.0610166757251136e-05,4.7760091547388583e-05
-3.50119353242917e-06,5.152925950824283e-06,6.490763098554453e-06,-2.846935785782989e-05,4.166195503785275e-05
-1.3142405805410817e-05,8.278230779978912e-06,9.43925442697946e-06,-3.524521162034944e-05,3.8967744330875576e-05
-1.7330405171378516e-05,1.6502510334248655e-05,1.530697409179993e-05,-3.62112041329965e-05,4.361542596598156e-05
-2.3548614990431815e-05,1.085032636183314e-05,1.703550515230745e-05,-3.0023400540812872e-05,5.11639445903711e-05
-3.0321463782456703e-05,6.718737495248206e-06,1.5049115972942673e-05,-2.3862292437115684e-05,5.299788972479291e-05
-2.8057716917828657e-05,7.691075552429538e-06,1.250210789294215e-05,-1.914806489367038e-05,5.125034294906072e-05
-2.534637133067008e-05,8.813145541353151e-06,8.327462637680583e-06,-1.798974881239701e-05,5.103228977532126e-05
-2.351925832044799e-05,1.8034585082205012e-05,9.801756277738605e-07,-2.1561374524026178e-05,5.0619160901987925e-05
-2.203377334808465e-05,3.159187326673418e-05,-3.4603619951667497e-06,-3.10960786009673e-05,4.726191400550306e-05
-2.4334496629307978e-05,4.067429472343065e-05,-2.9314676339708967e-06,-4.19013922510203e-05,4.472713771974668e-05
-3.206272594979964e-05,4.54369728686288e-05,-1.9357848941581324e-06,-4.867216193815693e-05,4.470681233215146e-05
-4.158847877988592e-05,4.075778997503221e-05,-4.059385901200585e-06,-5.054003486293368e-05,4.393771450850181e-05
-4.3567870307015255e-05,2.6959158276440576e-05,-6.607035629713209e-06,-4.897356120636687e-05,4.286777402739972e-05
-3.207637200830504e-05,1.2539333511085715e-05,-6.720631972711999e-06,-4.2374729673611e-05,4.673963849199936e-05
-1.4656400708190631e-05,4.719048774859402e-06,-5.62183822694351e-06,-3.0476654501399025e-05,5.181406231713481e-05
-7.841195838409476e-06,-2.7293790481053293e-06,-5.287419298838358e-06,-1.599822826392483e-05,5.0801478209905326e-05
-1.271729252039222e-05,-9.828328074945603e-06,-5.852110462001292e-06,-1.143657115676433e-07,4.602923581842333e-05
-2.253296406706795e-05,-1.202441671921406e-05,-3.5556379316403763e-06,1.614396387594752e-05,4.6207773266360164e-05
-2.958291588583961e-05,-1.388502187182894e-05,4.338157850725111e-06,3.3929703931789845e-05,4.9685400881571695e-05
-2.9051674573565833e-05,-1.2618873370229267e-05,1.3584900443674996e-05,5.155503095011227e-05,4.9926275096368045e-05
-2.291044256708119e-05,-8.030909270928532e-07,1.8681286746868864e-05,6.150997069198638e-05,4.884588997811079e-05
-2.1413099602796137e-05,1.906471879919991e-05,2.3252670871443115e-05,5.653422340401448e-05,5.058920942246914e-05
-2.410798697383143e-05,4.129161607124843e-05,2.605176814540755e-05,4.431092384038493e-05,5.127007170813158e-05
-2.4475337340845726e-05,6.194732850417495e-05,2.0258517906768247e-05,3.021245720447041e-05,4.8387653805548325e-05
-2.4391276383539662e-05,7.33884735382162e-05,7.3996152423205785e-06,1.7587391994311474e-05,4.778627771884203e-05
-2.8529781047836877e-05,7.67648671171628e-05,-6.207449587236624e-06,1.1210530828975607e-05,4.6966968511696905e-05
-3.643069794634357e-05,7.669645856367424e-05,-1.917400732054375e-05,7.471810022252612e-06,4.796019857167266e-05
-4.265043753548525e-05,6.922906322870404e-05,-2.845375638571568e-05,-1.7956131159735378e-07,5.177868661121465e-05
-4.92753206344787e-05,5.5122942285379395e-05,-2.5495670342934318e-05,-1.2617661923286505e-05,5.22565605933778e-05
-5.5622287618461996e-05,4.9598336772760376e-05,-1.4818516319792252e-05,-1.9165168851031922e-05,4.852132042287849e-05
-6.153909635031596e-05,5.517489626072347e-05,-6.611003300349694e-06,-1.8383758288109675e-05,5.011092434870079e-05
-7.07229773979634e-05,5.8012999943457544e-05,-4.429340151546057e-06,-1.7808199118007906e-05,5.514690565178171e-05
-7.663555152248591e-05,5.145136674400419e-05,-3.5271764318167698e-06,-1.9234183127991855e-05,5.840018638991751e-05
-7.756998820696026e-05,4.9165500968229026e-05,3.100964931945782e-06,-2.729019797698129e-05,5.949438127572648e-05
-7.731220102868974e-05,5.333124499884434e-05,7.951827683427837e-06,-3.922870018868707e-05,5.434352715383284e-05
-7.293556700460613e-05,6.123712955741212e-05,1.0807888429553714e-05,-4.634149809135124e-05,4.93951010867022e-05
-6.450857472373173e-05,6.797854439355433e-05,1.5102724319149274e-05,-4.3317792005836964e-05,5.200202940613963e-05
-5.559533019550145e-05,7.059521158225834e-05,1.99201258510584e-05,-3.640642171376385e-05,6.192505679791793e-05
-4.7534977056784555e-05,6.468920037150383e-05,2.297570426890161e-05,-3.1849380320636556e-05,7.039494084892794e-05
-4.3089174141641706e-05,5.231676914263517e-05,2.0407556803547777e-05,-3.295152055216022e-05,7.182855915743858e-05
-3.4310440241824836e-05,4.447734318091534e-05,1.5147568774409592e-05,-3.5124601708957925e-05,6.903161556692794e-05
-1.326696656178683e-05,3.776581070269458e-05,1.4152272342471406e-05,-3.0722756491741166e-05,6.583632784895599e-05
7.366674708464416e-06,1.4643455870100297e-05,1.501186125096865e-05,-2.0051145838806406e-05,6.229806604096666e-05
1.3714950910070911e-05,-2.1126179490238428e-05,1.3941720681032166e-05,-5.222841537033673e-06,5.9849648096133024e-05
5.9949661590508185e-06,-3.68114524462726e-05,1.4527534403896425e-05,9.428987141291145e-06,5.9433896240079775e-05
-8.328955118486192e-06,-2.7157098884345032e-05,1.821415025915485e-05,1.3191944162826985e-05,5.918288661632687e-05
-1.9403465557843447e-05,-1.3833094271831214e-05,1.8643562725628726e-05,2.3349430193775333e-06,5.9859488828806207e-05
-2.2274161892710254e-05,-1.1774438462452963e-05,1.0189678505412303e-05,-1.5386865925393067e-05,6.328171730274335e-05
-2.2651989638688974e-05,-1.672585858614184e-05,2.492024577804841e-06,-3.085931166424416e-05,6.704817496938631e-05
-2.6634830646798946e-05,-1.3953186680737417e-05,4.676077423937386e-06,-3.334049688419327e-05,6.757653318345547e-05
-3.522560655255802e-05,3.5721225231100107e-06,9.62805006565759e-06,-2.167459751944989e-05,6.49473731755279e-05
-4.2384956032037735e-05,2.4261651560664177e-05,9.39711208047811e-06,-5.3144503908697516e-06,5.9895643062191084e-05
-4.670228736358695e-05,3.706256757141091e-05,6.150583431008272e-06,4.326023372414056e-06,5.481790140038356e-05
-4.4335585698718205e-05,3.841894067591056e-05,1.2105628002245794e-06,1.0748828572104685e-05,5.4502670536749065e-05
-3.525157808326185e-05,3.407920667086728e-05,-1.6585809134994633e-06,2.1962936443742365e-05,6.145014776848257e-05
-2.5959006961784326e-05,3.170911440975033e-05,8.850806239024678e-07,3.1076648156158626e-05,6.553642015205696e-05
-1.29034460769617e-05,2.7333888283465058e-05,3.115671233899775e-06,3.494101110845804e-05,6.70548397465609e-05
9.099221642827615e-06,1.7192483937833458e-05,1.2862944913649699e-06,3.702694448293187e-05,7.121507223928347e-05
3.07815644191578e-05,1.404651629854925e-05,6.785538971598726e-06,3.573213325580582e-05,7.332508539548144e-05
4.194898428977467e-05,1.82584481080994e-05,1.563960722705815e-05,2.8012140319333412e-05,7.496571925003082e-05
4.472637010621838e-05,1.6418298400822096e-05,1.714878271741327e-05,1.776750650606118e-05,7.711762737017125e-05
3.8661397411487997e-05,1.180001436296152e-05,1.3965860489406623e-05,9.31791691982653e-06,7.79908659751527e-05
2.530105848563835e-05,1.0617460247885901e-05,8.748860636842437e-06,-3.2836774153111037e-06,7.74067739257589e-05
1.2025149771943688e-05,6.8615490818046965e-06,3.750732048501959e-06,-1.5044752217363566e-05,7.697715045651421e-05
8.568995326641016e-06,3.0269563922047382e-06,-1.9390824945730856e-06,-2.5676112272776663e-05,7.902552169980481e-05
1.2087095456081443e-05,-1.3797583164887328e-07,-1.0575997293926775e-05,-3.382403519935906e-05,8.387900015804917e-05
1.6284280718537048e-05,-2.285753680553171e-06,-2.2622432879870757e-05,-4.068348425789736e-05,8.86021662154235e-05
1.9829025404760614e-05,1.0733103863458382e-06,-3.063957774429582e-05,-5.017342482460663e-05,8.975481614470482e-05
2.227135337307118e-05,7.64723608881468e-06,-3.1368534109788015e-05,-6.123246566858143e-05,8.847354911267757e-05
2.6506741050980054e-05,1.1123132935608737e-05,-2.948817564174533e-05,-6.694976764265448e-05,8.431803871644661e-05
3.185770401614718e-05,1.382858317811042e-05,-2.923937609011773e-05,-5.947444151388481e-05,7.95102387201041e-05
3.409590863157064e-05,2.0911013052682392e-05,-2.6710546080721542e-05,-3.9573944377480075e-05,7.74385771364905e-05
3.073120387853123e-05,2.6955274734064005e-05,-1.3482586837199051e-05,-1.276051716558868e-05,7.837453449610621e-05
2.2130465367808938e-05,3.214921161998063e-05,7.791390089550987e-06,1.0999413461831864e-05,8.113184594549239e-05
4.152118435740704e-06,4.0728889871388674e-05,2.202052746724803e-05,2.388795473962091e-05,8.118871483020484e-05
-2.2784244720241986e-05,5.232331022853032e-05,2.366895932937041e-05,2.3077065634424798e-05,7.664689474040642e-05
-5.08993944094982e-05,6.0142530855955556e-05,2.29935012612259e-05,1.5223376067297067e-05,7.074727182043716e-05
-7.152440957725048e-05,6.115835276432335e-05,2.511213460820727e-05,5.3442663556779735e-06,6.676041084574535e-05
-8.394128963118419e-05,5.4563377489103004e-05,2.513382787583396e-05,-7.648809514648747e-06,6.203247176017612e-05
-9.013926319312304e-05,4.424143844516948e-05,1.6330315702361986e-05,-2.9276956411194988e-05,5.623943798127584e-05
-8.165475446730852e-05,3.3050320780603215e-05,3.6003862646794005e-07,-5.2251874876674265e-05,5.464174319058657e-05
-5.905380749027245e-05,1.9982093363068998e-05,-9.350557775178459e-06,-6.369539914885536e-05,5.947124373051338e-05
-4.216751767671667e-05,4.29648753197398e-06,-7.435749012074666e-06,-6.012829908286221e-05,6.405460590030998e-05
-4.3375934183131903e-05,-1.2441533726814669e-05,-5.889020030735992e-06,-4.2223287891829386e-05,6.639427738264203e-05
-5.590647924691439e-05,-1.655006235523615e-05,-4.083558906131657e-06,-2.2632852051174268e-05,6.757515075150877e-05
-6.401372229447588e-05,-2.7823593882203568e-06,1.3991597143103718e-06,-1.3122430573275778e-05,6.428989581763744e-05
-6.0307374951662496e-05,6.597617812076351e-06,1.7974705315282336e-06,-7.799403647368308e-06,5.949652404524386e-05
-4.965484913554974e-05,5.243435680313269e-06,-1.235819354405976e-06,-3.993986865680199e-06,5.8006182371173054e-05
-2.8365562684484757e-05,6.4744990595499985e-06,-6.74774901199271e-06,-4.4088960748922545e-06,6.131295958766714e-05
-1.2892469385406002e-06,1.653660729061812e-05,-1.0109833056048956e-05,-1.0369366464146879e-05,6.724298873450607e-05
1.5478412024094723e-05,2.6060564778163098e-05,-3.926322278857697e-06,-7.208648639789317e-06,7.026590901659802e-05
2.1069039576104842e-05,2.769125421764329e-05,1.9597225673351204e-06,7.46700243325904e-06,6.983222556300461e-05
1.836254341469612e-05,2.685594154172577e-05,2.4320527813870285e-07,1.8597731468616985e-05,6.699097866658121e-05
7.138299224607181e-06,2.5796000045374967e-05,-7.549937890871661e-06,1.1081599041062873e-05,6.14284654147923e-05
-7.3150149546563625e-06,2.5839126465143636e-05,-1.743124084896408e-05,-2.0465215129661374e-05,5.666559445671737e-05
-1.5303903637686744e-05,2.9774970244034193e-05,-2.3255737687577493e-05,-6.057818973204121e-05,5.574849637923762e-05
-1.7837581253843382e-05,3.6372352042235434e-05,-2.0258208678569645e-05,-8.351967699127272e-05,5.760712883784436e-05
-2.3579692424391396e-05,4.1272167436545715e-05,-1.1777879990404472e-05,-7.998842193046585e-05,5.6882683566072956e-05
-2.9894639737904072e-05,4.548909782897681e-05,-4.776885361934546e-06,-6.294427294051275e-05,5.178490755497478e-05
-2.805679469020106e-05,5.149601201992482e-05,-2.1399878278316464e-06,-4.688740591518581e-05,4.5272547140484676e-05
-2.1149302483536303e-05,5.765174137195572e-05,-3.2796631330711534e-06,-3.3423828426748514e-05,4.052303484058939e-05
-1.8854123482014984e-05,5.748471085098572e-05,-4.858373813476646e-06,-6.657598987658275e-06,3.617406036937609e-05
-2.330505412828643e-05,5.2127583330729976e-05,8.238146165240323e-07,4.169422754785046e-05,3.00529627565993e-05
-3.182635555276647e-05,5.0283080781809986e-05,1.999890446313657e-05,9.965537901734933e-05,2.569048956502229e-05
-4.346070272731595e-05,5.309497646521777e-05,4.477259426494129e-05,0.00013629849127028137,2.880196552723646e-05
-5.577154297498055e-05,5.296895687934011e-05,5.7197798014385626e-05,0.00012114238779759035,3.695658961078152e-05
-5.932584826950915e-05,5.087377212475985e-05,5.196891288505867e-05,6.279215449467301e-05,4.076470577274449e-05
-5.582730227615684e-05,5.180785228731111e-05,4.37477974628564e-05,1.3960245269117877e-05,4.2522566218394786e-05
-5.407701974036172e-05,5.1914317737100646e-05,4.011651253676973e-05,-3.877099970850395e-06,4.803135016118176e-05
-5.459872409119271e-05,4.892986544291489e-05,3.636041219579056e-05,-8.220235031330958e-06,5.0659866246860474e-05
-5.509491165867075e-05,4.652405550586991e-05,2.780294744297862e-05,-1.6838519513839856e-05,4.3741183617385104e-05
-5.368173515307717e-05,4.6245324483606964e-05,1.7003536413540132e-05,-2.451746513543185e-05,3.984572322224267e-05
-5.170590884517878e-05,4.409670873428695e-05,1.3141449926479254e-05,-1.2154833711974788e-05,4.584703128784895e-05
-4.689109118771739e-05,3.758874663617462e-05,2.0156980099272914e-05,1.1583661944314372e-05,5.683090057573281e-05
-4.1598490497563034e-05,2.8566242690430954e-05,2.917399615398608e-05,2.3212709493236616e-05,6.649173883488402e-05
-3.841602665488608e-05,1.847516614361666e-05,3.0014974981895648e-05,1.13027117549791e-05,7.013471622485667e-05
-2.7244883312960155e-05,1.1754857041523792e-05,2.5134902898571454e-05,-1.8536860807216726e-05,7.409355021081865e-05
-1.2299426998652052e-05,1.4271595318859909e-05,2.1832287529832684e-05,-4.612798147718422e-05,7.951432780828327e-05
-3.1093884444999276e-06,1.82222302100854e-05,1.8672370060812682e-05,-6.237496563699096e-05,8.355796308023855e-05
-1.6502943935847725e-06,1.2089280971849803e-05,7.770674528728705e-06,-7.513465243391693e-05,8.589166827732697e-05
-5.064866400061874e-06,-1.3778030734101776e-06,-9.622164725442417e-06,-7.758928404655308e-05,8.132757648127154e-05
-1.1570037713681813e-05,-1.41670434459229e-05,-2.4272330847452395e-05,-5.5833992519183084e-05,6.378597754519433e-05
-2.303655128343962e-05,-2.3238470021169633e-05,-3.125979128526524e-05,-1.4478345292445738e-05,4.291980076231994e-05
-3.378523979336023e-05,-3.5708409996004775e-05,-2.9644754249602556e-05,1.960876579687465e-05,3.365617521922104e-05
-3.9772436139173806e-05,-4.95702370244544e-05,-2.2063246433390304e-05,2.0421717636054382e-05,3.783372449106537e-05
-3.780144834308885e-05,-5.2728166338056326e-05,-1.356049415335292e-05,-9.397454050485976e-06,4.908034679829143e-05
-3.06164838548284e-05,-3.8555284845642745e-05,-6.846601536381058e-06,-4.055434692418203e-05,5.928835889790207e-05
-2.7991720344289206e-05,-8.999359124572948e-06,-7.416992957587354e-07,-4.712034569820389e-05,6.363655847962946e-05
-3.624667806434445e-05,2.9984679713379592e-05,8.661845640745014e-06,-2.7875692467205226e-05,6.225656397873536e-05
-4.624371649697423e-05,6.767735612811521e-05,2.17038941627834e-05,3.780862471103319e-06,5.9754289395641536e-05
-5.197406426304951e-05,9.817770478548482e-05,3.166851092828438e-05,3.2840944186318666e-05,5.774177407147363e-05
-5.951230559730902e-05,0.00012736470671370625,3.485611523501575e-05,5.512997813639231e-05,5.464449350256473e-05
-6.712972390232608e-05,0.00014931638725101948,3.331963671371341e-05,7.728223863523453e-05,5.5692504247417673e-05
-6.110838876338676e-05,0.00015378114767372608,3.181442662025802e-05,0.00010629493772285059,6.666091940132901e-05
-4.0162431105272844e-05,0.00013309168571140617,3.229581852792762e-05,0.00013423424388747662,7.904096855781972e-05
-2.3550503101432696e-05,8.66548070916906e-05,3.653927342384122e-05,0.00014242854376789182,7.719655695836991e-05
-2.6801551939570345e-05,3.54143776348792e-05,4.878400432062335e-05,0.00012613106810022146,5.928269092692062e-05
-4.182483462500386e-05,3.4611882711033104e-06,5.68791147088632e-05,9.375589434057474e-05,4.474682282307185e-05
-5.943566793575883e-05,-2.349898522879812e-06,5.0592603656696156e-05,5.2019458962604403e-05,4.832807098864578e-05
-8.4587765741162e-05,1.126153892982984e-05,3.677666973089799e-05,7.076154815877089e-06,6.241399387363344e-05
-0.00010735227988334373,2.6162995709455572e-05,2.1637535610352643e-05,-2.8341220968286507e-05,7.413174898829311e-05
-0.00011075053043896332,3.30853508785367e-05,3.1964186746336054e-06,-5.14311104780063e-05,8.247289952123538e-05
-8.907095616450533e-05,4.1928120481316e-05,-1.3564046639658045e-05,-6.271354504860938e-05,9.098849113797769e-05
-5.7601238950155675e-05,5.498307291418314e-05,-2.0107365344301797e-05,-5.945356315351091e-05,9.580553887644783e-05
-2.5090894268942066e-05,6.593961006728932e-05,-1.4698565792059526e-05,-4.930324575980194e-05,9.465978655498475e-05
7.514923254348105e-06,7.194495265139267e-05,-5.3395760915009305e-06,-4.710286157205701e-05,8.836502092890441e-05
3.262505560996942e-05,7.749039650661871e-05,-3.3698099741741316e-06,-5.1254242862341926e-05,7.776884740451351e-05
4.668714973377064e-05,9.078694711206481e-05,-4.4923572204425e-06,-5.2098912419751287e-05,6.105392094468698e-05
5.3291500080376863e-05,0.00011035140050807968,-3.162604798490065e-06,-4.8386616981588304e-05,4.504972821450792e-05
5.451533797895536e-05,0.00012227184197399765,1.1146809129058965e-06,-3.8955386116867885e-05,3.4730870538624004e-05
4.838270615437068e-05,0.00011254446144448593,7.242217179737054e-06,-2.340154242119752e-05,1.943503229995258e-05
3.4490996767999604e-05,8.488613821100444e-05,1.5879588318057358e-05,-6.381059847626602e-06,-4.352883024694165e-06
1.8073260434903204e-05,5.3544343245448545e-05,2.3796877940185368e-05,1.7031379684340209e-06,-1.6226525985985063e-05
8.893634912965354e-06,2.7925201720790938e-05,2.6681356757762842e-05,-1.5583082131342962e-06,-2.403328608124866e-06
1.0497688890609425e-05,8.767187864577863e-06,2.0754307115566917e-05,-9.404066986462567e-06,2.4177432351280004e-05
1.4430395822273567e-05,-9.323235644842498e-06,8.907492883736268e-06,-1.5795774743310176e-05,4.3468011426739395e-05
9.400187991559505e-06,-2.893230521294754e-05,1.977356305360445e-06,-2.2159452782943845e-05,4.9333899369230494e-05
-6.340979780361522e-06,-4.885961243417114e-05,-2.2622243989189883e-07,-3.0937848350731656e-05,4.899509440292604e-05
-2.550378667365294e-05,-6.376688543241471e-05,-3.479624865576625e-06,-4.1397619497729465e-05,5.029140447732061e-05
-3.656171975308098e-05,-5.810381844639778e-05,-7.306644420168595e-06,-4.9631998990662396e-05,5.7289627875434235e-05
-3.924905468011275e-05,-2.8682108677458018e-05,-8.612599231128115e-06,-5.4167347116163e-05,6.476778071373701e-05
-3.8544614653801546e-05,4.254089617461432e-06,-1.0027688404079527e-05,-5.8047062339028344e-05,6.602373468922451e-05
-3.7097797758178785e-05,1.8183303836849518e-05,-1.2904331015306525e-05,-6.527335790451616e-05,6.061150270397775e-05
-3.4197870263597e-05,1.7793152437661774e-05,-1.383650305797346e-05,-7.174529309850186e-05,5.476501610246487e-05
-3.503874540911056e-05,1.806749241950456e-05,-1.756453093548771e-05,-6.998733442742378e-05,5.2122606575721875e-05
-4.0503338823327795e-05,1.9495742890285328e-05,-2.1717336494475603e-05,-6.542959454236552e-05,5.390293517848477e-05
-4.001133856945671e-05,1.8925178665085696e-05,-1.961961061169859e-05,-6.0764003137592226e-05,5.717180101783015e-05
-2.9581553462776355e-05,1.4797448784520384e-05,-1.65720430231886e-05,-5.7984878367278725e-05,5.9563695685938e-05
-1.714103200356476e-05,1.661613532633055e-05,-1.3259977095003705e-05,-5.5252836318686604e-05,6.089445741963573e-05
-1.4468713743553963e-05,2.0170298739685677e-05,-8.749135304242373e-06,-4.3881169403903186e-05,5.549976049223915e-05
-2.2441972760134377e-05,7.676636414544191e-06,-2.117772510246141e-06,-2.3736803996143863e-05,4.8785579565446824e-05
-2.8531467251013964e-05,-1.1491075383673888e-05,3.351292207298684e-06,-1.1639750482572708e-05,5.030330430599861e-05
-2.615876837808173e-05,-2.6848627385334112e-05,5.460447027871851e-06,-9.449435310671106e-06,5.710409823223017e-05
-2.4654709704918787e-05,-5.7150853535858914e-05,7.507797818107065e-06,-2.6419882033223985e-06,6.747528095729649e-05
-2.647214751050342e-05,-0.00010019321780418977,1.0843920790648554e-05,6.080273578845663e-06,7.722413283772767e-05
-2.3936769139254466e-05,-0.0001220470730913803,1.4323670256999321e-05,1.5158468158915639e-05,8.331705612363294e-05
-1.9907432943000458e-05,-0.00011059290409320965,2.0337398382253014e-05,2.887464506784454e-05,8.562637958675623e-05
-2.603422944957856e-05,-8.700559556018561e-05,2.8161124646430835e-05,4.6493227273458615e-05,7.783390901749954e-05
-4.1019797208718956e-05,-6.531194958370179e-05,3.299866875750013e-05,5.3991214372217655e-05,5.896856964682229e-05
-5.046994920121506e-05,-4.4144784624222666e-05,3.30078873957973e-05,4.3905038182856515e-05,4.183412602287717e-05
-5.185576810617931e-05,-2.385126026638318e-05,2.7234304070589133e-05,2.4481461878167465e-05,3.325717989355326e-05
-5.14989769726526e-05,9.321601282863412e-06,1.4507865671475884e-05,9.142170711129438e-06,3.108724195044488e-05
-5.032136323279701e-05,6.972187838982791e-05,8.789288585830946e-07,1.2169936098871403e-06,3.525203646859154e-05
-4.954070391249843e-05,0.00013384190970100462,-7.227321475511417e-06,-6.051203399692895e-06,3.904749246430583e-05
-4.7575329517712817e-05,0.0001607558224350214,-1.3035179108555894e-05,-1.4366220057127066e-05,3.4325326851103455e-05
-3.89996130252257e-05,0.00013707795005757362,-1.7058991943486035e-05,-2.539516208344139e-05,2.6584171791910194e-05
-3.258658398408443e-05,9.018287528306246e-05,-1.7153848602902144e-05,-3.649573045549914e-05,2.6876239644479938e-05
-4.343645559856668e-05,7.520138751715422e-05,-1.1363924386387225e-05,-3.933783227694221e-05,3.2587249734206125e-05
-6.167618266772479e-05,0.00010208995809080079,4.0973705495161994e-07,-2.9867131161154248e-05,4.210092083667405e-05
-6.3408246205654e-05,0.00012978320592083037,8.380531653529033e-06,-2.1171606931602582e-05,5.3374606068246067e-05
-4.984391125617549e-05,0.00013193488121032715,9.8402797448216e-06,-2.8002430553897284e-05,5.836134005221538e-05
-3.8834998122183606e-05,0.00010705957538448274,1.2199437151139136e-05,-3.190055213053711e-05,5.983145092613995e-05
-2.2139769498608075e-05,7.01627868693322e-05,1.7312269847025163e-05,-2.790598045976367e-05,6.184753874549642e-05
6.69927158014616e-06,4.0955539589049295e-05,2.0011189917568117e-05,-3.4196284104837105e-05,6.012884114170447e-05
4.2501353163970634e-05,2.4160930479411036e-05,1.5092564353835769e-05,-4.554625047603622e-05,5.4958574764896184e-05
8.015208732103929e-05,1.3891673916077707e-05,1.0938712875940837e-05,-4.911763608106412e-05,5.512544157681987e-05
0.0001021125353872776,1.9663544662762433e-05,1.3820756066706963e-05,-4.1548930312274024e-05,6.401853170245886e-05
0.00010094545723404735,3.765420115087181e-05,1.9568769857869484e-05,-3.4490687539801e-05,7.384519267361611e-05
7.613129855599254e-05,5.340670031728223e-05,1.930575308506377e-05,-2.8651205866481178e-05,7.743392052361742e-05
3.7045210774522275e-05,5.9778383729280904e-05,1.379049354000017e-05,-2.0407900592545047e-05,7.438166358042508e-05
2.7727649012376787e-06,6.119741010479629e-05,9.89236832538154e-06,-1.360846908937674e-05,6.683787069050595e-05
-1.535292722110171e-05,6.209926505107433e-05,1.3370602573559154e-05,-9.860774298431352e-06,6.024696631357074e-05
-2.0121169654885307e-05,5.794467870146036e-05,1.831162444432266e-05,-4.710070697910851e-06,5.847921784152277e-05
-1.957727909029927e-05,4.6713423216715455e-05,1.77665933733806e-05,5.164233243704075e-06,6.014474274707027e-05
-2.0704319467768073e-05,3.09019087580964e-05,1.5316190911107697e-05,1.3138642316334881e-05,6.480585579993203e-05
-2.7415710064815357e-05,2.1939969883533195e-05,1.2323434930294752e-05,1.0683580512704793e-05,6.970893446123227e-05
-4.021311906399205e-05,2.6073268600157462e-05,7.168339834606741e-06,-5.993501304146776e-07,7.200691470643505e-05
-5.916159352636896e-05,4.025210000691004e-05,1.4512407915390213e-06,-1.3536444384953938e-05,6.976605800446123e-05
-7.956032641232014e-05,5.191958916839212e-05,-3.8073242194514023e-06,-2.2558559066965245e-05,6.478262366726995e-05
-9.724871051730588e-05,4.7600435209460557e-05,-9.120222784986254e-06,-2.6424982934258878e-05,5.9231915656710044e-05
-0.00010842204210348427,2.3199094357551076e-05,-9.424692507309373e-06,-2.8753542210324667e-05,5.5792701459722593e-05
-0.0001107307180063799,-7.293564976862399e-06,-6.187900453369366e-06,-3.123956412309781e-05,5.6312874221475795e-05
-0.00010619585373206064,-3.354876025696285e-05,-3.552593170752516e-06,-4.0503527998225763e-05,6.005706381984055e-05
-9.919187141349539e-05,-5.9819576563313603e-05,-5.697318101738347e-06,-6.37933480902575e-05,6.722249236190692e-05
-9.114898421103135e-05,-7.417481538141146e-05,-1.130323016695911e-05,-9.484421752858907e-05,7.397594163194299e-05
-7.936263864394277e-05,-6.0809827118646353e-05,-1.8765937056741677e-05,-0.00011902589903911576,7.554741023341194e-05
-6.850915815448388e-05,-2.8580709113157354e-05,-2.099844641634263e-05,-0.00012772050104103982,7.364351768046618e-05
-6.610768468817696e-05,1.642020470171701e-05,-1.6601428797002882e-05,-0.00011393911699997261,6.824651063652709e-05
-6.0906721046194434e-05,6.486210622824728e-05,-1.3541002772399224e-05,-8.397339115617797e-05,6.681882950942963e-05
-4.225678276270628e-05,0.00010367100912844762,-1.1252851436438505e-05,-4.4175634684506804e-05,7.015456503722817e-05
-2.0220939404680394e-05,0.00011724328942364082,-8.510919542459305e-06,2.194129137933487e-06,7.202083361335099e-05
-2.690904352675716e-07,9.868331835605204e-05,-2.5440697299927706e-06,4.681053542299196e-05,7.25041827536188e-05
2.053352363873273e-05,6.896274135215208e-05,6.811692855990259e-06,8.169845386873931e-05,6.886784103699028e-05
3.318874951219186e-05,5.385236727306619e-05,1.8936721971840598e-05,0.00010424122592667118,6.729955930495635e-05
2.9834893211955205e-05,5.5173852160805836e-05,3.070039747399278e-05,0.00011620869918260723,6.542503979289904e-05
2.0761524865520187e-05,4.803523188456893e-05,3.644623939180747e-05,0.0001076840708265081,6.313072663033381e-05
1.6133952158270404e-05,2.5825183911365457e-05,3.2586638553766534e-05,7.455289596691728e-05,5.936520392424427e-05
4.114790044695837e-06,1.6646156382194022e-06,2.2844013074063696e-05,3.274530536145903e-05,5.582837184192613e-05
-1.6576705093029886e-05,-1.1741121852537617e-05,1.3970057807455305e-05,2.611718400657992e-06,5.5464875913457945e-05
-3.5572960769059137e-05,-1.718024032015819e-05,9.081923053599894e-06,-1.0714927157096099e-05,5.504823275259696e-05
-4.8931258788798004e-05,-1.9641975086415187e-05,5.825261268910253e-06,-1.2312175385886803e-05,5.1724444347200915e-05
-5.728686664951965e-05,-1.2454439456632826e-05,4.032310698676156e-06,-9.914645488606766e-06,4.698109478340484e-05
-5.964184310869314e-05,6.7367955125519074e-06,7.068980721669504e-06,-3.6954263578081736e-06,4.552323662210256e-05
-5.3684354497818276e-05,1.9606301066232845e-05,1.085605617845431e-05,6.670713901257841e-06,4.778807851835154e-05
-4.0436214476358145e-05,1.097877884603804e-05,1.0975447366945446e-05,1.48269027704373e-05,5.133067679707892e-05
-2.156835216737818e-05,-4.295673079468543e-06,7.1677472988085356e-06,1.5854559023864567e-05,5.3881198255112395e-05
-2.9081732009217376e-06,-9.728963959787507e-06,3.771294132093317e-06,1.064968546415912e-05,5.5660828365944326e-05
8.811609404801857e-06,-6.684083928121254e-06,4.205977802484995e-06,2.899305400205776e-06,5.5610908020753413e-05
1.0054159247374628e-05,-4.383840860100463e-06,7.492473287129542e-06,-6.021632543706801e-06,5.7223605836043134e-05
3.7123404581507202e-06,-7.4299359766882844e-06,7.438994089170592e-06,-1.2829757906729355e-05,6.122608465375379e-05
-4.3973727770207915e-06,-1.6435002180514857e-05,4.394322331791045e-06,-1.7087108062696643e-05,6.430335633922368e-05
-1.1742959031835198e-05,-2.4934248358476907e-05,1.1786295317506301e-06,-1.9904553482774645e-05,6.530573591589928e-05
-2.4326656784978695e-05,-7.656263733224478e-06,-3.2009293136070482e-06,-1.7048436347977258e-05,6.557268352480605e-05
-4.1192070057149976e-05,4.7745128540555015e-05,-9.729530574986711e-06,-7.200036179710878e-06,6.505603232653812e-05
-6.108602246968076e-05,0.00012362869165372103,-1.6724912711651996e-05,3.49629203810764e-07,6.0300044424366206e-05
-8.052878547459841e-05,0.00017480597307439893,-1.5246793736878317e-05,6.713141260661359e-07,5.75709855183959e-05
-9.502981265541166e-05,0.0001822770427679643,-1.0125131666427478e-05,-3.924478278349852e-06,5.986878750263713e-05
-0.00011398131755413488,0.00015796312072779983,-1.1529574294399936e-05,-5.755066467827419e-06,5.9297424741089344e-05
-0.00013757275883108377,0.000108467967947945,-1.3282049621921033e-05,-2.6200123102171347e-06,5.709129982278682e-05
-0.0001453298464184627,5.378233618102968e-05,-1.405169768986525e-05,-3.3439853268646402e-06,5.7343404478160664e-05
-0.00011741244816221297,5.993297236273065e-06,-1.6141975720529445e-05,-1.5898222045507282e-05,6.17600599071011e-05
-5.358516500564292e-05,-2.254661922052037e-05,-1.7660071534919553e-05,-3.083746196352877e-05,6.419599230866879e-05
2.7711530492524616e-05,-3.100197864114307e-05,-1.6363312170142308e-05,-3.6172732507111505e-05,6.62863822071813e-05
0.00010560300870565698,-2.2622169126407243e-05,-1.263053036382189e-05,-3.3489810448372737e-05,6.697540084132925e-05
0.00015601949417032301,-1.046421948558418e-05,-1.0551369996392168e-05,-2.8901984478579834e-05,6.69531655148603e-05
0.0001688966731308028,-5.279795232127071e-07,-1.156466532847844e-05,-2.6709747544373386e-05,6.734501948812976e-05
0.00015297188656404614,1.5029402675281744e-05,-1.300540770898806e-05,-2.5987137632910162e-05,6.856370600871742e-05
0.00012700323713943362,3.100746471318416e-05,-8.676903235027567e-06,-2.4985271011246368e-05,7.01617100276053e-05
0.00010200347605859861,3.8910216971999034e-05,1.320118258263392e-06,-1.8707311028265394e-05,7.128286233637482e-05
7.280454155988991e-05,3.924475095118396e-05,1.1934980648220517e-05,-4.985083705832949e-06,7.277917757164687e-05
3.5709424992091954e-05,3.7314453948056325e-05,2.002171822823584e-05,1.0098907296196558e-05,7.139003719203174e-05
-2.4078901788016083e-06,3.332579944981262e-05,2.543077243899461e-05,1.8254664610140026e-05,6.603029032703489e-05
-2.8905895305797458e-05,3.328278035041876e-05,2.536646024964284e-05,1.6537311239517294e-05,6.022588786436245e-05
-3.675638436106965e-05,3.474566983641125e-05,2.1892745280638337e-05,9.804481123865116e-06,5.911908010602929e-05
-2.981731086038053e-05,2.7050869903177954e-05,2.0302941265981644e-05,5.953954314463772e-06,6.229974678717554e-05
-2.2628306396654807e-05,1.0741086043708492e-05,1.936472108354792e-05,8.820448783808388e-06,6.750709871994331e-05
-2.077883436868433e-05,3.349254029672011e-06,1.7082076738006435e-05,1.245880139322253e-05,6.871136429253966e-05
-2.3936845536809415e-05,1.0773382200568449e-05,1.5668461855966598e-05,9.992897503252607e-06,6.511923129437491e-05
-3.60270423698239e-05,2.446033977321349e-05,1.5264080502674915e-05,-2.700326433568989e-07,5.879387754248455e-05
-5.600937220151536e-05,3.2591004128335044e-05,1.5342184269684367e-05,-2.1566758732660674e-05,5.626671190839261e-05
-7.544351683463901e-05,3.222367013222538e-05,1.2094988051103428e-05,-4.5742050133412704e-05,5.401422822615132e-05
-8.728120155865327e-05,3.161268250551075e-05,3.0840647013974376e-06,-5.845061969012022e-05,5.4889249440748245e-05
-8.846185664879158e-05,2.7143772967974655e-05,-4.891775233772933e-07,-5.8728499425342306e-05,5.9962225350318477e-05
-8.492257620673627e-05,1.8337521396460943e-05,3.6139856547379168e-06,-5.0441456551197916e-05,6.356085941661149e-05
-7.99149856902659e-05,1.7817315892898478e-05,7.464578175131464e-06,-3.8199352275114506e-05,6.7382279667072e-05
-7.811637624399737e-05,2.3959966711117886e-05,9.864144885796122e-06,-2.3643759050173685e-05,6.810706690885127e-05
-7.536369957961142e-05,3.2381012715632096e-05,1.426520429959055e-05,-5.590848104475299e-06,6.457062409026548e-05
-7.1365138865076e-05,3.865286271320656e-05,2.143301026080735e-05,1.2725902706733905e-05,6.016518091200851e-05
-6.976597069296986e-05,3.93265436287038e-05,3.154097794322297e-05,2.4206910893553868e-05,5.688356395694427e-05
-6.77310599712655e-05,3.4001368476310745e-05,4.02320220018737e-05,2.3797560061211698e-05,5.6453300203429535e-05
-6.726107676513493e-05,2.756610956566874e-05,3.992363781435415e-05,1.4377275874721818e-05,5.831019734614529e-05
-6.484141340479255e-05,2.498802132322453e-05,3.20128929161001e-05,-1.5500703511861502e-06,6.091012983233668e-05
-6.416751421056688e-05,2.2609037841903046e-05,2.433190275041852e-05,-1.7563666915521026e-05,6.145646329969168e-05
-6.637993647018448e-05,1.949780562426895e-05,2.121735451510176e-05,-2.648928784765303e-05,5.799709106213413e-05
-6.934531847946346e-05,2.0835503164562397e-05,1.7470078091719188e-05,-2.8184726033941843e-05,5.3742987802252173e-05
-7.095919136190787e-05,2.7009537006961182e-05,1.1612329217314254e-05,-2.8748107069986872e-05,5.008334119338542e-05
-6.912123353686184e-05,3.2313779229298234e-05,6.3869865698507056e-06,-3.068638397962786e-05,4.6534583816537634e-05
-6.0568465414689854e-05,3.32763884216547e-05,4.3404051552897727e-07,-3.282492980360985e-05,4.530612932285294e-05
-4.406746302265674e-05,3.231163645978086e-05,-5.040525138610974e-06,-3.341072078910656e-05,4.7368321247631684e-05
-2.8102847863920033e-05,3.6061541322851554e-05,-5.895371486985823e-06,-3.19141945510637e-05,5.0823044148273766e-05
-2.6277593860868365e-05,4.362137406133115e-05,-5.245869033387862e-06,-3.010248110513203e-05,5.334837987902574e-05
-3.892622407875024e-05,4.49741528427694e-05,-9.486640010436531e-06,-3.268247746746056e-05,5.552472794079222e-05
-4.907549737254158e-05,3.61413367500063e-05,-1.9051367416977882e-05,-4.0847262425813824e-05,5.802235318697058e-05
-4.031433127238415e-05,2.4635544832563028e-05,-3.1833871616981924e-05,-4.616617297870107e-05,5.769355993834324e-05
-2.20588317461079e-05,1.1827389243990183e-05,-4.058733247802593e-05,-5.0087241106666625e-05,5.5441632866859436e-05
-1.7551248674863018e-05,1.9007907212653663e-06,-4.341505336924456e-05,-5.7364642998436466e-05,5.412561586126685e-05
-2.731227687036153e-05,-1.2791512062904076e-06,-4.01430188503582e-05,-6.26852415734902e-05,5.538456025533378e-05
-4.36153459304478e-05,-3.270148908995907e-06,-2.543946902733296e-05,-5.536005483008921e-05,5.6954373576445505e-05
-5.5052216339390725e-05,-8.643939509056509e-06,-8.107289431791287e-06,-3.858162017422728e-05,5.68788600503467e-05
-5.180796142667532e-05,-1.1359784366504755e-05,-6.90325165919603e-08,-2.4519988073734567e-05,5.6887012760853395e-05
-3.3965796319535e-05,-9.510229574516416e-06,5.997318112349603e-06,-1.2164043255324941e-05,5.800534563604742e-05
-7.941375770315062e-06,-5.797963694931241e-06,1.7225476767634973e-05,6.316095095826313e-06,5.70448610233143e-05
1.1176804036949761e-05,-1.893388116513961e-06,2.959223093057517e-05,4.0235157939605415e-05,5.465577123686671e-05
1.4223013749870006e-05,2.1903235847275937e-06,4.157275543548167e-05,9.099765884457156e-05,5.3462132200365886e-05
9.026086445373949e-06,2.4325754566234536e-06,5.241608596406877e-05,0.00013252462667878717,5.386787233874202e-05
5.581840923696291e-06,-1.7832749108492862e-06,5.586912448052317e-05,0.00013421282346826047,5.5333417549263686e-05
4.881585482507944e-06,-3.3954445370909525e-06,4.720394281321205e-05,0.00010277010005665943,5.837766730110161e-05
4.8426013563585e-06,3.755968009500066e-06,3.335998917464167e-05,6.784945435356349e-05,6.156532617751509e-05
4.1764633351704106e-06,2.0845720428042114e-05,2.2267046006163582e-05,4.455458838492632e-05,6.279711669776589e-05
1.9263106878497638e-06,3.8723206671420485e-05,1.5539002561126836e-05,3.107988595729694e-05,6.10624483670108e-05
-5.922643708800024e-07,5.073444845038466e-05,9.047225830727257e-06,2.1105664927745238e-05,5.698326276615262e-05
-5.302234967530239e-06,5.5167725804494694e-05,1.0069303471027524e-06,1.2320320820435882e-05,5.380900620366447e-05
-1.4745030057383701e-05,5.3622185077983886e-05,-6.445453436754178e-06,4.314611942390911e-06,5.233200135990046e-05
-2.6399700800538994e-05,5.5792861530790105e-05,-1.0686121640901547e-05,-8.704914193913282e-07,5.128170596435666e-05
-3.288322841399349e-05,6.65936604491435e-05,-1.0546858902671374e-05,-6.72887608743622e-06,5.1806873671012e-05
-2.874606434488669e-05,6.964452768443152e-05,-7.805267159710638e-06,-1.72478048625635e-05,5.375537875806913e-05
-1.6786803826107644e-05,5.6663513532839715e-05,-6.868420314276591e-06,-2.673168455658015e-05,5.4979514970909804e-05
-7.643980097782332e-06,4.4110362068749964e-05,-1.0038649634225294e-05,-3.014621506736148e-05,5.688830424332991e-05
-1.0935958925983869e-05,5.149957360117696e-05,-1.3620754543808289e-05,-3.3403452107449993e-05,6.125479558249936e-05
-2.0773995856870897e-05,7.559764344478026e-05,-1.5457477275049314e-05,-4.444547084858641e-05,6.494770059362054e-05
-2.865806527552195e-05,9.373234206577763e-05,-1.71956344274804e-05,-5.616614726022817e-05,6.287747237365693e-05
-3.1743493309477344e-05,9.116996807279065e-05,-1.97240096895257e-05,-5.733038415201008e-05,5.822306775371544e-05
-3.0646475352114066e-05,7.172381447162479e-05,-1.597565642441623e-05,-5.011288885725662e-05,5.74792611587327e-05
-3.0176564905559644e-05,4.6021214075153694e-05,-8.325279850396328e-06,-4.439735857886262e-05,6.244583346415311e-05
-3.0873026844346896e-05,2.7256544854026288e-05,-5.951431830908405e-06,-3.9548936911160126e-05,6.617258623009548e-05
-2.8879121600766666e-05,3.392707367311232e-05,-2.389955398029997e-06,-2.6375460947747342e-05,6.380656122928485e-05
-2.299340849276632e-05,5.0881048082374036e-05,9.155938641924877e-06,-4.174809873802587e-06,6.037274215486832e-05
-1.742071435728576e-05,5.535679156309925e-05,2.226887045253534e-05,1.4548955732607283e-05,5.970954953227192e-05
-1.2303213225095533e-05,5.3715291869593784e-05,3.0158364097587764e-05,2.0681231035268866e-05,6.21113576926291e-05
-1.8612032590681338e-06,5.228662848821841e-05,3.428130366955884e-05,1.9588842405937612e-05,6.349723844323307e-05
5.640529707306996e-06,4.152650944888592e-05,3.874908361467533e-05,1.764971784723457e-05,6.003075395710766e-05
5.46513547305949e-06,2.0139348634984344e-05,4.5465712901204824e-05,1.569442974869162e-05,5.4501659178640693e-05
3.560607240160607e-07,1.399909524479881e-05,4.8376798076787964e-05,1.1442607501521707e-05,5.166212213225663e-05
-1.0213442692474928e-05,3.0341019737534225e-05,4.163811536272988e-05,2.866113391064573e-06,5.3268580813892186e-05
-2.0161091015324928e-05,5.292075002216734e-05,3.123440910712816e-05,-7.162489509937586e-06,5.9419700846774504e-05
-2.774244057945907e-05,6.049030344001949e-05,2.0160592612228356e-05,-1.4293594176706392e-05,6.570114783244208e-05
-3.3176973374793306e-05,5.140151915838942e-05,9.047777894011233e-06,-1.5234257261909079e-05,6.55122785246931e-05
-3.395934254513122e-05,4.1074312321143225e-05,1.0139677897313959e-07,-1.4568364349543117e-05,6.17286641499959e-05
-3.256986019550823e-05,3.999393084086478e-05,-4.38446022599237e-06,-1.8092616301146336e-05,5.953997606411576e-05
-3.310207830509171e-05,4.237169923726469e-05,-2.9288496534718433e-06,-2.2328453269437887e-05,6.07345937169157e-05
-3.300938260508701e-05,3.722054316313006e-05,3.428140189498663e-06,-2.369143294345122e-05,6.283071707002819e-05
-2.88057308353018e-05,2.5101378923864104e-05,7.089156497386284e-06,-2.4221684725489467e-05,6.374069926096126e-05
-2.2466785594588146e-05,1.552161484141834e-05,4.962063940183725e-06,-2.3902701286715455e-05,6.222196680027992e-05
-1.896125468192622e-05,1.3981507436255924e-05,7.301142659343896e-07,-2.4732427846174687e-05,6.0257465520408005e-05
-1.714944482955616e-05,1.193837306345813e-05,-4.731765329779591e-06,-2.8247419322724454e-05,6.145916267996654e-05
-1.4265150639403146e-05,7.6244136835157406e-06,-8.81439154909458e-06,-3.274047048762441e-05,6.463264435296878e-05
-1.3042182217759546e-05,4.857636668020859e-06,-9.403851436218247e-06,-3.614776142057963e-05,6.48586283205077e-05
-1.6923691873671487e-05,2.5696156171761686e-06,-7.095703040249646e-06,-3.4512024285504594e-05,6.271104939514771e-05
-2.219953967141919e-05,-5.028964551456738e-06,-2.99266139336396e-06,-2.8906415536766872e-05,6.264713010750711e-05
-2.0553439753712155e-05,-6.85630311636487e-06,-3.9141326624303474e-07,-2.604675682960078e-05,6.583725189557299e-05
-9.597474672773387e-06,8.515306149092794e-07,-3.924309567082673e-06,-2.511765887902584e-05,6.787956954212859e-05
1.3652979760081507e-06,5.5203122428792994e-06,-9.412961844645906e-06,-2.210866477980744e-05,6.588307587662712e-05
6.549432782776421e-06,7.289371296792524e-06,-1.2313033039390575e-05,-2.7032023353967816e-05,6.629538256675005e-05
-1.660760972299613e-06,-1.3698318070964888e-06,-1.4996218851592857e-05,-4.7156016080407426e-05,6.744648271705955e-05
-1.8638995243236423e-05,-2.0074454369023442e-05,-1.996729406528175e-05,-6.547941302414984e-05,6.453730748035014e-05
-2.6473078833078034e-05,-3.4453580155968666e-05,-2.623846557980869e-05,-7.580112287541851e-05,5.754601806984283e-05
-3.358130561537109e-05,-3.135779843432829e-05,-2.7883408620255068e-05,-8.412369788857177e-05,5.369305654312484e-05
-4.02849109377712e-05,-1.404500835633371e-05,-2.3249311198014766e-05,-8.572935621486977e-05,5.1630475354613736e-05
-4.681467908085324e-05,6.4491837292735e-06,-2.1207271856837906e-05,-7.432504935422912e-05,4.681498103309423e-05
-5.5090244131861255e-05,2.9519209419959225e-05,-1.9334724129294045e-05,-4.765166522702202e-05,4.395583164296113e-05
-5.98683618591167e-05,5.525813685380854e-05,-9.596981726645026e-06,-1.7232658137800172e-05,4.691038702731021e-05
-5.845858686370775e-05,8.807631820673123e-05,7.128370270947926e-06,1.0963161003019195e-05,5.269642497296445e-05
-5.5674237955827266e-05,0.00011490083852550015,2.4474573365296237e-05,3.813797957263887e-05,5.4845240811118856e-05
-6.044177644071169e-05,0.00012317861546762288,3.677698987303302e-05,6.219611532287672e-05,5.39114662387874e-05
-7.091161387506872e-05,0.00010459635814186186,4.3077190639451146e-05,7.612263289047405e-05,5.263858110993169e-05
-7.66227749409154e-05,6.469252548413351e-05,4.601261025527492e-05,7.236427336465567e-05,5.2305338613223284e-05
-7.10372842149809e-05,2.820683403115254e-05,4.4844400690635666e-05,5.474662611959502e-05,5.139616405358538e-05
-5.829715883010067e-05,1.4462666513281874e-05,3.679304427350871e-05,3.82100188289769e-05,5.296252857078798e-05
-4.3682804971467704e-05,1.619462636881508e-05,2.5224142518709414e-05,2.8729789846693166e-05,5.5336520745186135e-05
-3.13355922116898e-05,2.064087129838299e-05,1.5971356333466247e-05,1.954331855813507e-05,5.296062954585068e-05
-2.0362993382150307e-05,2.3269296434591524e-05,1.0841604307643138e-05,8.298768079839647e-06,4.915095632895827e-05
-2.7639762265607715e-06,1.9008375602425076e-05,4.03302055929089e-06,-1.161393811344169e-06,4.941622319165617e-05
2.416670395177789e-05,8.279066605609842e-06,-4.546666332316818e-06,-5.646726549457526e-06,5.342040822142735e-05
4.201595584163442e-05,-2.2619435640081065e-06,-1.0397809091955423e-05,-6.456456503656227e-06,5.675557622453198e-05
4.407222877489403e-05,-1.9409337710385444e-06,-1.3362191566557158e-05,-7.812125659256708e-06,5.60471489734482e-05
3.87160325772129e-05,8.299822184199002e-06,-1.4577261936210562e-05,-9.357358067063615e-06,5.471351323649287e-05
2.6584168153931387e-05,1.6177684301510453e-05,-1.1662094038911164e-05,-6.930707513674861e-06,5.52247220184654e-05
4.0941945371741895e-06,1.864789373939857e-05,-3.313325350973173e-06,-5.622020580631215e-06,5.665418939315714e-05
-1.8791186448652297e-05,2.3296264771488495e-05,2.8467334232118446e-06,-6.71134739604895e-06,5.867461732123047e-05
-3.795011434704065e-05,3.60189369530417e-05,4.315543719712878e-06,-6.720006240357179e-06,5.995556421112269e-05
-4.7656991227995604e-05,5.669660822604783e-05,6.34417983746971e-06,-7.5348948485043366e-06,5.965273157926276e-05
-4.713070666184649e-05,5.8142930356552824e-05,5.874202997802058e-06,-1.0503459634492174e-05,5.6586170103400946e-05
-3.653990279417485e-05,4.2917541577480733e-05,9.657536566010094e-07,-1.3358262549445499e-05,5.63727444387041e-05
-2.017092083406169e-05,2.7295811378280632e-05,-7.239926844704314e-07,-1.161376803793246e-05,5.794207027065568e-05
-1.575419446453452e-05,7.952035048219841e-06,1.582651520948275e-06,-7.871981324569788e-06,5.846252679475583e-05
-1.948535646079108e-05,-7.892773282947019e-06,2.8877063869003905e-06,-7.923454177216627e-06,5.796863115392625e-05
-2.569079697423149e-05,-1.702628105704207e-05,1.2902837625006214e-06,-1.466209960199194e-05,5.637612412101589e-05
-2.267331183247734e-05,-2.493129977665376e-05,-3.424515398364747e-06,-2.1187228412600234e-05,5.694236097042449e-05
-1.1090879524999764e-05,-3.1246432627085596e-05,-9.307217624154873e-06,-1.8302378521184437e-05,5.721615525544621e-05
6.065292268431222e-07,-2.87604834738886e-05,-1.2188718756078742e-05,-1.4076837942411657e-05,5.723021604353562e-05
1.0909008778980933e-05,-1.4886819371895399e-05,-1.0326361916668247e-05,-1.3635138202516828e-05,5.862458419869654e-05
2.032983502431307e-05,3.102423306700075e-06,-6.310616754490184e-06,-1.3921722711529583e-05,6.087430301704444e-05
2.4824765205266885e-05,2.114941889885813e-05,-1.7810903045756277e-06,-1.378258275508415e-05,6.271100573940203e-05
2.042669802904129e-05,3.3190070098498836e-05,4.281007022655103e-06,-1.3051378118689172e-05,6.231985753402114e-05
7.5078792178828735e-06,2.821181624312885e-05,1.1783538866438903e-05,-1.2517516552179586e-05,6.031586235621944e-05
-9.592459718987811e-06,2.1031014512118418e-06,1.7971206034417264e-05,-1.3252561075205449e-05,5.951047933194786e-05
-2.4498876882717013e-05,-2.6028385036624968e-05,2.2357966372510418e-05,-1.2105942005291581e-05,6.008598575135693e-05
-3.246628330089152e-05,-2.4881066565285437e-05,2.6964786229655147e-05,-7.065170393616427e-06,5.9744870668509975e-05
-3.360600021551363e-05,2.3490822513849707e-06,3.426442344789393e-05,-2.808388671837747e-06,5.696363587048836e-05
-3.4966975363204256e-05,2.0934981876052916e-05,4.2140080040553585e-05,-2.4721305180719355e-06,5.453959965961985e-05
-4.1637144022388384e-05,2.1771924366476014e-05,4.207844540360384e-05,-5.755679012509063e-06,5.3996041970094666e-05
-5.134319872013293e-05,2.4484861569362693e-05,3.353623833390884e-05,-8.494944268022664e-06,5.336927279131487e-05
-5.48559328308329e-05,3.265260238549672e-05,2.772136576822959e-05,-8.139564670273103e-06,5.355041503207758e-05
-5.366070399759337e-05,4.288219133741222e-05,2.614118238852825e-05,-9.381063136970624e-06,5.4703603382222354e-05
-4.474791785469279e-05,5.767272523371503e-05,2.4344313715118915e-05,-9.782740562513936e-06,5.611147207673639e-05
-2.8033107810188085e-05,7.214610377559438e-05,2.090133602905553e-05,-5.9542198869166896e-06,5.727000461774878e-05
-1.0875989573833067e-05,9.038401185534894e-05,2.0117884560022503e-05,-4.345198703958886e-06,5.952510764473118e-05
-1.0974222277582157e-05,0.00010701736755436286,2.0226301785442047e-05,-4.658267698687268e-06,6.354722427204251e-05
-2.5774581445148215e-05,0.00010253443178953603,1.3632142326969188e-05,-7.645486221008468e-06,6.33757226751186e-05
-4.1526975110173225e-05,8.59667852637358e-05,7.5895754889643285e-06,-1.5136438378249295e-05,5.3439329349203035e-05
-5.213487384025939e-05,6.527766527142376e-05,7.827456101949792e-06,-2.0682406102423556e-05,4.513047679211013e-05
-5.41474946658127e-05,4.9438247515354306e-05,8.384976354136597e-06,-2.124432285199873e-05,4.497113332035951e-05
-5.2259543735999614e-05,4.5731765567325056e-05,2.9353266199905192e-06,-2.0009601939818822e-05,4.4249474740354344e-05
-4.1335038986289874e-05,5.8742021792568266e-05,-7.2853795245464426e-06,-1.960008557944093e-05,4.285950126359239e-05
-2.506169767002575e-05,7.760902371956035e-05,-1.8466353139956482e-05,-2.2516160242957994e-05,4.532381717581302e-05
-1.3099512216285802e-05,8.585976320318878e-05,-2.304172630829271e-05,-2.4869143089745194e-05,5.039181269239634e-05
-1.2132512893003877e-05,8.503555000061169e-05,-2.1049538190709427e-05,-2.600681546027772e-05,5.584945029113442e-05
-2.0616285837604664e-05,7.931682193884626e-05,-1.7792692233342677e-05,-2.9172848371672444e-05,6.019131978973746e-05
-3.4655065974220634e-05,6.926246715011075e-05,-1.3648553249367978e-05,-3.087114600930363e-05,6.190726708155125e-05
-4.5440632675308734e-05,5.773365046479739e-05,-6.954795935598668e-06,-2.819181463564746e-05,6.0338425100781024e-05
-4.7316418203990906e-05,5.974712985334918e-05,3.81686533046377e-07,-2.518618384783622e-05,5.600789518211968e-05
-4.3567059037741274e-05,7.054007437545806e-05,2.1402729544206522e-06,-2.7338310246705078e-05,5.2731818868778646e-05
-4.6440487494692206e-05,6.15584576735273e-05,1.2925092960358597e-06,-3.109538010903634e-05,5.234602213022299e-05
-6.289393786573783e-05,2.1242585717118345e-05,5.353341748559615e-06,-2.8572701921802945e-05,5.3461993957171217e-05
-7.851317786844447e-05,-1.9397104551899247e-05,1.2275208973733243e-05,-1.7740041585057043e-05,5.403875911724754e-05
-7.772040407871827e-05,-3.346709127072245e-05,1.3727151781495195e-05,-6.15058252151357e-06,5.305473314365372e-05
-6.017616033204831e-05,-2.9095377612975426e-05,1.2082893590559252e-05,4.949698677592096e-07,5.10501122334972e-05
-3.830344940070063e-05,-2.2395863197743893e-05,1.5374929716927e-05,4.730814453068888e-06,4.913797238259576e-05
-2.1271323930704966e-05,-1.3701722309633624e-05,2.3603764930157922e-05,1.2854058695666026e-05,5.020957178203389e-05
-1.4675308193545789e-05,-2.319244231330231e-06,2.5456261937506497e-05,1.9304512534290552e-05,5.371688166633248e-05
-2.209738886449486e-05,5.509604761755327e-06,1.8184195141657256e-05,1.61697571456898e-05,5.883129051653668e-05
-3.249704241170548e-05,6.897553248563781e-06,1.2587586752488278e-05,9.125232281803619e-06,6.536601722473279e-05
-3.60496633220464e-05,7.17620878276648e-06,1.2589030120579991e-05,2.77630510936433e-06,6.867027695989236e-05
-3.700437082443386e-05,1.732976124912966e-05,1.2612415957846679e-05,8.355567047146906e-07,6.663869135081768e-05
-3.271574678365141e-05,2.778180714813061e-05,1.2258949027454946e-05,3.36521793542488e-06,6.654272874584422e-05
-2.658947960298974e-05,3.061543247895315e-05,1.0960698091366794e-05,2.5425590592931258e-06,7.025318336673081e-05
-2.566373223089613e-05,3.251539601478726e-05,6.7709570430452e-06,2.4573880637035472e-06,6.86879939166829e-05
-3.334191569592804e-05,3.1495077564613894e-05,2.7199212127015926e-06,3.871698481816566e-06,6.597275205422193e-05
-4.270939462003298e-05,2.6485904527362436e-05,-1.131136855292425e-06,3.4517929634603206e-06,6.543759809574112e-05
-4.4022635847795755e-05,2.31872054428095e-05,-2.7619391858024755e-06,2.3216309728013584e-06,6.702885002596304e-05
-5.01305767102167e-05,2.9795213777106255e-05,-3.4382899229967734e-06,-1.9322058051329805e-06,6.945981294848025e-05
-6.600448250537738e-05,3.7422232708195224e-05,-3.337582029416808e-06,-6.4037453739729244e-06,7.054235902614892e-05
-8.040230750339106e-05,3.21097977575846e-05,-1.988335952773923e-06,-1.0113059033756144e-05,6.85962222632952e-05
-8.34408201626502e-05,1.1851701856357977e-05,-1.5357180700448225e-06,-9.942322321876418e-06,6.516042776638642e-05
-7.264834130182862e-05,-9.344810678157955e-06,-3.7134143440198386e-06,-7.509948773076758e-06,6.269721779972315e-05
-5.918288297834806e-05,-1.5513809557887726e-05,-5.772044005425414e-06,-5.239482561592013e-06,6.175418093334883e-05
-5.3913634474156424e-05,-5.986920768918935e-06,-3.417387461013277e-06,-3.599911906349007e-06,6.781623960705474e-05
-5.3664505685446784e-05,8.50939341034973e-06,1.5999917195586022e-06,3.6097862476935916e-08,7.519908103859052e-05
-4.653908763430081e-05,1.804535713745281e-05,4.630624061974231e-06,3.335602514198399e-06,7.802325126249343e-05
-3.142836794722825e-05,2.2025235011824407e-05,2.904939037762233e-06,-2.0167137790849665e-06,7.86811942816712e-05
-1.1699820788635407e-05,2.6863044695346616e-05,1.494780121902295e-06,-1.0644064786902163e-05,7.960938091855496e-05
6.415087227651384e-06,4.1479604988126084e-05,3.7084828363731503e-06,-1.0674527402443346e-05,7.898399780970067e-05
1.5811416233191267e-05,6.400015263352543e-05,5.766854883404449e-06,-4.763340257341042e-06,7.57434027036652e-05
2.5245986762456596e-05,7.888529216870666e-05,4.0794707274471875e-06,-3.312517947051674e-06,7.319833821384236e-05
4.3040065065724775e-05,7.445705705322325e-05,4.2258909616066376e-07,-6.3918855630618054e-06,7.359930168604478e-05
6.388912152033299e-05,5.933491047471762e-05,-1.2884366640264489e-07,-8.539816008124035e-06,7.397721492452547e-05
7.736148836556822e-05,4.2819468944799155e-05,3.6970222936361097e-06,-8.010550118342508e-06,7.491518772440031e-05
7.011904381215572e-05,3.6253790312912315e-05,6.273518010857515e-06,-6.633242719544796e-06,7.57367379264906e-05
4.356594945420511e-05,4.103012179257348e-05,8.28289739729371e-06,-5.707283889933024e-06,7.474355516023934e-05
1.564508602314163e-05,4.4636151869781315e-05,1.098272423405433e-05,-8.507365237164777e-06,7.122655370039865e-05
9.284346447202552e-08,4.752789027406834e-05,1.0296814252797049e-05,-1.3229811884230003e-05,6.761787517461926e-05
-5.121419690112816e-06,4.813270061276853e-05,6.839622983534355e-06,-1.5038658602861688e-05,6.625471723964438e-05
-5.74354544369271e-06,3.400008426979184e-05,4.524845735431882e-06,-1.0530511644901708e-05,6.447620398830622e-05
-2.2730673663318157e-06,5.4786687542218715e-06,1.5685612879678956e-06,-7.3754954428295605e-06,5.988604243611917e-05
-1.333651539425773e-06,-2.1487872800207697e-05,-2.372105882386677e-06,-1.2706291272479575e-05,5.8856130635831505e-05
1.171364033325517e-06,-3.108099917881191e-05,-4.904537036054535e-06,-2.0520181351457722e-05,6.30743452347815e-05
8.478523341182154e-06,-2.003628105740063e-05,-7.676303539483342e-06,-2.0195027900626883e-05,6.503451731987298e-05
9.230612704413943e-06,-6.0976026361458935e-06,-5.860934834345244e-06,-1.5908037312328815e-05,6.57390191918239e-05
4.4084126216148434e-07,-2.999725211338955e-06,-1.500503572060552e-06,-1.5217567124636844e-05,6.636746547883376e-05
-1.2656190847337712e-05,-2.766784916730103e-07,-9.69472921497072e-07,-1.3927885447628796e-05,6.57270647934638e-05
-2.9998142053955235e-05,7.582375928905094e-06,-2.0829409095313167e-06,-1.1547930625965819e-05,6.141124322311953e-05
-4.454550435184501e-05,2.1068004571134225e-05,-8.020222139748512e-07,-1.421615706931334e-05,5.6492364819860086e-05
-4.90819729748182e-05,3.731262040673755e-05,2.1380565158324316e-06,-1.9392004105611704e-05,5.4681375331711024e-05
-4.6503435441991314e-05,4.8018526285886765e-05,3.97396024709451e-06,-2.059954022115562e-05,5.611145024886355e-05
-4.4665797759080306e-05,5.003709884476848e-05,4.792021627508802e-06,-1.7811553334468044e-05,5.683061317540705e-05
-4.311255179345608e-05,4.733300374937244e-05,4.703071226686006e-06,-1.589092062204145e-05,5.5713317124173045e-05
-4.095018084626645e-05,4.1398532630410045e-05,3.998729880549945e-06,-1.554705886519514e-05,5.575739487539977e-05
-4.3107989768031985e-05,3.225438922527246e-05,6.083239895815495e-06,-1.3083334124530666e-05,5.6884462537709624e-05
-4.942740997648798e-05,2.6952131520374678e-05,1.0749666216725018e-05,-1.0734937859524507e-05,5.4906009609112516e-05
-5.6657947425264865e-05,3.0610764952143654e-05,1.3419551578408573e-05,-1.2166357009846251e-05,4.997320138500072e-05
-6.259317160584033e-05,3.868909698212519e-05,1.406269075232558e-05,-1.419601176166907e-05,5.0377660954836756e-05
-6.673630559816957e-05,4.2989064240828156e-05,1.3382579709286802e-05,-1.3902290447731502e-05,5.739585685660131e-05
-6.397100514732301e-05,3.586088860174641e-05,1.3464086805470288e-05,-1.7382908481522463e-05,6.149444379843771e-05
-5.4330434068106115e-05,1.908955346152652e-05,1.2763674021698534e-05,-2.1377480152295902e-05,6.112274422775954e-05
-4.4138807425042614e-05,1.1329389053571504e-05,8.650348718219902e-06,-2.3668973881285638e-05,5.932772546657361e-05
-3.3406864531571046e-05,1.6331767255906016e-05,5.051602329331217e-06,-2.7148456865688786e-05,5.543960287468508e-05
-2.3409660570905544e-05,2.091266287607141e-05,2.5315582661278313e-06,-3.066458157263696e-05,4.879594416706823e-05
-1.74575670826016e-05,1.2980928659089841e-05,3.913304681191221e-06,-3.365110023878515e-05,4.676026219385676e-05
-1.074354713637149e-05,2.9595287287520478e-06,7.514340722991619e-06,-3.24663778883405e-05,5.140661232871935e-05
-7.031414043012774e-06,5.896058155485662e-06,9.3685848696623e-06,-2.6957435693475418e-05,5.365652759792283e-05
-5.208821676205844e-06,1.6361063899239525e-05,1.1684329365380108e-05,-2.3648432033951394e-05,5.496081939782016e-05
4.449063055744773e-07,2.2171163436723873e-05,1.4124579138297122e-05,-2.015110476349946e-05,5.7726228988030925e-05
2.320569819858065e-06,2.2978010747465305e-05,1.3752373888564762e-05,-1.4417858437809628e-05,6.16300167166628e-05
-1.7819596678236849e-06,2.6383593649370596e-05,1.0165183994104154e-05,-8.724113286007196e-06,6.224126263987273e-05
-1.2049504221067764e-05,3.212330921087414e-05,7.310546152439201e-06,-3.2690616080799373e-06,5.991970101604238e-05
-2.2973441446083598e-05,4.429812543094158e-05,1.0527592166909017e-05,2.05301739697461e-06,5.580326251219958e-05
-2.8856235076091252e-05,6.40976577415131e-05,2.0313726054155268e-05,2.9800041829730617e-06,5.0478771299822256e-05
-3.3372001780662686e-05,8.303527283715084e-05,2.5822053430601954e-05,-2.298300387337804e-06,4.575106140691787e-05
-3.611227293731645e-05,9.201561624649912e-05,2.1722642486565746e-05,-5.077198238723213e-06,4.376603465061635e-05
-3.54817311745137e-05,8.662264735903591e-05,1.2881812835985329e-05,-2.712633886403637e-06,4.448184699867852e-05
-3.4219174267491326e-05,7.19452800694853e-05,5.741874701925553e-06,-4.4598336899071e-06,4.616887599695474e-05
-3.4264634450664744e-05,5.45963594049681e-05,1.8189867887485889e-06,-1.2117669029976241e-05,4.6265449782367796e-05
-3.4090007829945534e-05,4.253965016687289e-05,4.857305384575739e-07,-1.8573729903437197e-05,4.541366797639057e-05
-3.4171189327025786e-05,3.813939110841602e-05,-2.618920234453981e-06,-2.193552063545212e-05,4.75538254249841e-05
-3.473643300822005e-05,3.6448091123020276e-05,-8.35820992506342e-06,-2.3864546164986677e-05,4.885693851974793e-05
-3.411590296309441e-05,3.391251084394753e-05,-1.2061817869835068e-05,-2.607950045785401e-05,4.707635162048973e-05
-3.0068744308664463e-05,3.117878077318892e-05,-1.4364962225954514e-05,-3.0837014492135495e-05,4.4660719140665606e-05
-2.4383263735217042e-05,2.9552380510722287e-05,-1.8609684047987685e-05,-3.706015559146181e-05,4.629457544069737e-05
-1.7979731637751684e-05,3.2555828511249274e-05,-2.0945019059581682e-05,-3.992815254605375e-05,5.1239796448498964e-05
-1.4134061530057807e-05,3.884737452608533e-05,-1.5904697647783905e-05,-4.002160858362913e-05,5.6855100410757586e-05
-1.63064687512815e-05,3.5926394048146904e-05,-7.181372893683147e-06,-4.0061408071778715e-05,6.093381671234965e-05
-2.1642717911163345e-05,3.005564030900132e-05,-3.0828964554530103e-06,-3.8331585528794676e-05,6.138452590676025e-05
-2.4480619686073624e-05,3.142326750094071e-05,-4.4908451855008025e-06,-3.04159548250027e-05,5.9569945733528584e-05
-2.328226219106e-05,2.8871283575426787e-05,7.397626404781477e-07,-1.694193997536786e-05,5.991373836877756e-05
-3.0525814509019256e-05,1.699427048151847e-05,1.4532146451529115e-05,-2.437798912069411e-06,6.311054312391207e-05
-4.1895764297805727e-05,2.5867859676509397e-06,2.237054104625713e-05,6.499191385955783e-06,6.539194873766974e-05
-3.9419534004991874e-05,-9.905687875289004e-06,2.3946642613736913e-05,7.214543984446209e-06,6.0928385209990665e-05
-2.5867208023555577e-05,-1.1347245163051412e-05,2.6102608899236657e-05,6.395064247044502e-06,5.636952118948102e-05
-1.2906681149615906e-05,-5.124093149788678e-06,2.2164511392475106e-05,1.2066693670931272e-05,5.644830162054859e-05
-8.697023986314889e-06,-3.3160140446852893e-06,1.272715689992765e-05,2.0532843336695805e-05,5.818126737722196e-05
-5.3851763368584216e-06,-4.090854872629279e-06,2.095209765684558e-06,1.9939652702305466e-05,6.135788862593472e-05
-5.4156248552317265e-06,4.956429165758891e-06,-8.512867680110503e-06,2.35561742556456e-06,6.165371451061219e-05
-1.64612883963855e-05,3.286853097961284e-05,-1.763728323567193e-05,-2.4561835743952543e-05,6.383557774825022e-05
-3.0065148166613653e-05,5.998928099870682e-05,-2.1298019419191405e-05,-4.3163956434000283e-05,6.776652298867702e-05
-4.05584869440645e-05,6.563341594301164e-05,-1.7467562429374084e-05,-4.770652958541177e-05,6.928661605343223e-05
-4.221880226396024e-05,4.912104850518517e-05,-1.053624328051228e-05,-4.227528552291915e-05,7.005212682997808e-05
-3.678854773170315e-05,2.538902117521502e-05,-8.237350812123623e-06,-3.2670610380591825e-05,7.062336226226762e-05
-3.3430507755838335e-05,4.134841219638474e-06,-7.822438419680111e-06,-1.875602174550295e-05,7.190611358964816e-05
-3.9831527828937396e-05,-1.625728327780962e-05,-2.5743140668055275e-06,-2.6762986635731068e-06,7.272464426932856e-05
-5.071065606898628e-05,-3.524333442328498e-05,4.847487616643775e-06,6.549752470164094e-06,7.095416367519647e-05
-5.805717592011206e-05,-4.937236735713668e-05,7.067822480166797e-06,-3.4526639325349606e-08,6.83880498399958e-05
-5.803454405395314e-05,-4.705184983322397e-05,4.659795195038896e-06,-2.007511466217693e-05,6.6428015998099e-05
-4.725335384136997e-05,-2.3790998966433108e-05,1.6406600025220541e-06,-3.890146763296798e-05,6.330043834168464e-05
-2.6383571821497753e-05,2.9902619189670077e-06,-2.203353943741604e-07,-4.6188582928152755e-05,6.116954318713397e-05
-6.993150805101322e-07,1.767885623848997e-05,5.133936156198615e-07,-4.7109810111578554e-05,6.173416477395222e-05
1.8074049876304343e-05,3.0406399673665874e-05,-3.3225464903807733e-06,-4.800887472811155e-05,6.0851642047055066e-05
2.1773057596874423e-05,5.359871647669934e-05,-1.5836356396903284e-05,-4.1399547626497224e-05,5.8937112044077367e-05
1.5895278920652345e-05,7.946958794491366e-05,-2.205384043918457e-05,-2.0333874999778345e-05,5.9927740949206054e-05
3.624585588113405e-06,8.580741268815473e-05,-1.1707628800650127e-05,1.083303322957363e-05,6.126348307589069e-05
-1.3676449270860758e-05,7.111510058166459e-05,5.017964213038795e-06,4.2194569687126204e-05,5.52374440303538e-05
-2.661733924469445e-05,5.2508585213217884e-05,2.6573758077574894e-05,6.671306618954986e-05,4.7734447434777394e-05
-2.654052514117211e-05,4.262400034349412e-05,5.317138129612431e-05,8.142895967466757e-05,5.076117304270156e-05
-2.1939482394373044e-05,3.7049685488455e-05,6.944440247025341e-05,9.178934851661325e-05,5.243377381702885e-05
-2.399365621386096e-05,3.925359851564281e-05,6.677952478639781e-05,9.201790089718997e-05,5.006954961572774e-05
-2.9337968953768723e-05,5.651666651829146e-05,5.3790721722180024e-05,7.39068491384387e-05,5.39536849828437e-05
-3.384412048035301e-05,6.865280738566071e-05,3.8971673347987235e-05,4.731547960545868e-05,5.861149838892743e-05
-3.437574196141213e-05,6.065893830964342e-05,2.706545637920499e-05,2.6417574190418236e-05,5.9933820011792704e-05
-3.195276076439768e-05,4.2912884964607656e-05,1.9754494132939726e-05,2.0090419639018364e-05,6.009573917253874e-05
-3.2636096875648946e-05,3.0808718292973936e-05,2.0236284399288706e-05,2.2137101041153073e-05,5.8599747717380524e-05
-3.844117600237951e-05,2.818110260704998e-05,2.428035622870084e-05,2.074519761663396e-05,5.660280294250697e-05
-4.0448885556543246e-05,2.9022285161772743e-05,2.572713856352493e-05,1.2446651453501545e-05,5.648019214277156e-05
-3.912743704859167e-05,2.6244810214848258e-05,2.2533360606757924e-05,3.6915876080456655e-06,5.690495891030878e-05
-4.410625479067676e-05,2.3597478502779268e-05,2.129226595570799e-05,-4.930790851176425e-07,5.759580017183907e-05
-5.2472147217486054e-05,2.3067179427016526e-05,2.0791800125152804e-05,-3.8055304685258307e-06,5.7755776651902124e-05
-5.315246744430624e-05,2.245390714961104e-05,1.7558430045028217e-05,-9.590479749022052e-06,5.6659537222003564e-05
-4.869859549216926e-05,2.6664931283448823e-05,1.533213071525097e-05,-1.7111655324697495e-05,5.310842243488878e-05
-4.590326716424897e-05,3.621442738221958e-05,1.3331398804439232e-05,-2.3056543795973994e-05,4.689020352088846e-05
-4.258068656781688e-05,4.228763282299042e-05,1.0847336852748413e-05,-2.5807397832977585e-05,4.330846422817558e-05
-3.7307087040971965e-05,4.166350845480338e-05,9.016764124680776e-06,-2.631447023304645e-05,4.513231760938652e-05
-3.3566466299816966e-05,4.267281110514887e-05,9.435346328245942e-06,-2.919686994573567e-05,4.7982226533349603e-05
-3.2435829780297354e-05,4.9940059398068115e-05,7.853011084080208e-06,-3.4085966035490856e-05,5.03379269503057e-05
-3.166915848851204e-05,5.596157643594779e-05,4.784564680448966e-06,-3.3029016776708886e-05,5.334494198905304e-05
-3.141122215311043e-05,4.880098276771605e-05,3.1924769245961215e-06,-2.8740634661517106e-05,5.66008166060783e-05
-3.221596489311196e-05,2.3093285562936217e-05,4.335173343861243e-06,-2.9191269277362153e-05,6.0055495850974694e-05
-2.785708238661755e-05,-6.345922429318307e-06,6.547982138727093e-06,-3.174371158820577e-05,6.298095104284585e-05
-1.782852632459253e-05,-1.513964161858894e-05,9.056439012056217e-06,-3.1246097933035344e-05,6.593124271603301e-05
-1.2931654055137187e-05,4.019209427497117e-07,1.055778830050258e-05,-2.4366900106542744e-05,7.17172515578568e-05
-1.7288828530581668e-05,1.773733129084576e-05,1.3085831596981734e-05,-1.901163523143623e-05,7.505777466576546e-05
-3.089631354669109e-05,2.6554864234640263e-05,1.5727486243122257e-05,-2.1535477571887895e-05,7.211484626168385e-05
-5.548248373088427e-05,2.41312609432498e-05,1.6376003259210847e-05,-2.5381550585734658e-05,7.159977394621819e-05
-8.028945012483746e-05,1.4716099030920304e-05,1.595316280145198e-05,-2.9287159122759476e-05,7.390736573142931e-05
-9.830154158407822e-05,6.966546152398223e-06,1.1086140148108825e-05,-3.2125306461239234e-05,7.068057311698794e-05
-0.00011513134086271748,-1.0015534144258709e-06,5.09690062244772e-06,-3.214786556782201e-05,6.410975038306788e-05
-0.00010913794540101662,1.5451410035893787e-06,3.4896927445515757e-06,-3.2710362575016916e-05,5.8412348153069615e-05
-6.812553328927606e-05,1.7265392671106383e-05,3.817139713646611e-06,-3.3874388464028016e-05,5.5979384342208505e-05
-1.0383196240582038e-05,3.644720709417015e-05,4.4046959146726294e-07,-3.37899946316611e-05,5.9246624005027115e-05
3.9881164411781356e-05,4.904542220174335e-05,-4.0222430470748805e-06,-2.8742628273903392e-05,6.105002830736339e-05
6.830813799751922e-05,5.5506043281638995e-05,-3.1944323382049333e-06,-1.9562728994060308e-05,6.0072281485190615e-05
6.765218859072775e-05,5.639746450469829e-05,-7.379190947176539e-07,-1.418254578311462e-05,5.978969420539215e-05
4.448118124855682e-05,5.1854374760296196e-05,-1.3704006107673194e-07,-1.0937184924841858e-05,6.0769660194637254e-05
1.804461862775497e-05,5.03087903780397e-05,-1.1853094292746391e-06,-9.626159226172604e-06,6.32155206403695e-05
6.318774694591411e-07,5.3632556955562904e-05,1.229797703672375e-07,-1.2497675015765708e-05,6.629923154832795e-05
-6.503715667349752e-06,5.354404856916517e-05,4.811784037883626e-06,-1.9593759134295397e-05,6.57448690617457e-05
-1.0332891179132275e-05,4.6443030441878363e-05,8.309876648127101e-06,-2.435178976156749e-05,6.067364665796049e-05
-1.2123005944886245e-05,3.3173386327689514e-05,8.474257811030839e-06,-2.311712160008028e-05,5.587626219494268e-05
-1.2911332305520773e-05,1.0733325325418264e-05,8.525078555976506e-06,-1.8700400687521324e-05,5.310271808411926e-05
-1.0512322660360951e-05,-1.0591970749374013e-05,8.344982234120835e-06,-1.6183035768335685e-05,5.237993900664151e-05
-5.30691886524437e-06,-1.0282813491357956e-05,4.60797491541598e-06,-1.7380894860252738e-05,5.320637865224853e-05
-2.053249090749887e-06,7.381836894637672e-06,-1.0492765341041377e-06,-1.8356169675826095e-05,5.656306893797591e-05
-6.018665885676455e-07,2.2142830857774243e-05,-2.583322839200264e-06,-1.8130100215785205e-05,6.0434504121076316e-05
-1.2859970865974901e-06,2.948943256342318e-05,6.489565862466407e-07,-1.828418498917017e-05,6.0655525885522366e-05
-8.556640750612132e-06,2.8472926715039648e-05,2.6036191229650285e-06,-2.1809537429362535e-05,5.616798807750456e-05
-1.868498293333687e-05,2.6307348889531568e-05,1.1357877838236163e-06,-2.753572516667191e-05,5.3025269153295085e-05
-2.7387673981138505e-05,2.9929386073490605e-05,-1.0102601208927808e-06,-2.4194674551836215e-05,5.0948008720297366e-05
-2.8901775294798426e-05,3.419341373955831e-05,3.6734568311658222e-06,-1.385803898301674e-05,4.8606536438455805e-05
-1.9026805603061803e-05,3.0555525881936774e-05,7.249277587106917e-06,-1.1049693057429977e-05,4.815296415472403e-05
-3.7563106616289588e-06,2.0724819478346035e-05,1.0764846365418634e-06,-1.1379581337678246e-05,5.0652986828936264e-05
8.468270607409067e-06,9.220718311553355e-06,-5.4415954764408525e-06,-1.0365460184402764e-05,5.23608505318407e-05
1.0790086889755912e-05,6.710037268931046e-06,-6.111659786256496e-06,-9.922505341819488e-06,5.0189777539344504e-05
-7.056073627609294e-07,1.554036498419009e-05,-2.0675904579547932e-06,-4.810794962395448e-06,4.934516618959606e-05
-2.0982366550015286e-05,2.7065327230957337e-05,2.292638100698241e-06,4.807141976925777e-06,5.1936833187937737e-05
-3.596080205170438e-05,3.919708251487464e-05,7.352687134698499e-07,7.4005606620630715e-06,5.623119795927778e-05
-4.2554878746159375e-05,5.012055407860316e-05,-2.6377108497399604e-06,7.498811555706197e-06,5.5286545830313116e-05
-4.995009658159688e-05,5.8276425988879055e-05,-4.7282360355893616e-06,7.834714779164642e-06,5.1658960728673264e-05
-5.8606048696674407e-05,6.306154682533816e-05,-7.534987616963917e-06,5.891382897971198e-06,4.840141991735436e-05
-6.126996595412493e-05,6.368553295033053e-05,-1.238665481650969e-05,2.5295109935541404e-06,4.892141805612482e-05
-5.778755075880326e-05,5.644126940751448e-05,-1.89420588867506e-05,-2.66689721684088e-06,5.3371593821793795e-05
-5.155179314897396e-05,4.8992063966579735e-05,-2.4903300072764978e-05,-6.494202807516558e-06,5.761320062447339e-05
-4.315348996897228e-05,4.704116145148873e-05,-2.917655547207687e-05,-6.667678007943323e-06,5.8593304856913164e-05
-3.494437987683341e-05,4.4136431824881583e-05,-3.0905903258826584e-05,-6.513869720947696e-06,5.651512765325606e-05
-2.450611827953253e-05,2.970647437905427e-05,-2.7025082090403885e-05,-1.039632479660213e-05,5.7016353821381927e-05
-8.920836080505978e-06,4.7053340495040175e-06,-1.713239907985553e-05,-1.6339585272362456e-05,6.027528070262633e-05
4.58174054074334e-06,-1.963997601706069e-05,-7.4190174927935e-06,-2.0006362319691107e-05,6.304132693912834e-05
1.0705745808081701e-05,-2.7438069082563743e-05,-1.5292775970010553e-06,-2.0451612726901658e-05,6.311369361355901e-05
7.655837180209346e-06,-1.4756975360796787e-05,3.272176854807185e-06,-1.9314466044306755e-05,6.028723146300763e-05
-9.54646930040326e-06,2.755491095740581e-06,8.38938467495609e-06,-1.4865707271383144e-05,5.691146361641586e-05
-3.3460102713434026e-05,1.180266644951189e-05,1.371083635604009e-05,-9.493756806477904e-06,5.8414101658854634e-05
-4.282221561879851e-05,1.1105721569037996e-05,1.7429796571377665e-05,-3.2796062896522926e-06,6.327316077658907e-05
-3.875115726259537e-05,7.82839379098732e-06,1.8901913790614344e-05,6.667072739219293e-06,6.67692584102042e-05
-4.1266339394496754e-05,1.656743734201882e-05,2.1448200641316362e-05,1.4552780157828238e-05,6.624591333093122e-05
-5.460175816551782e-05,4.252784128766507e-05,2.4916780603234656e-05,1.4381579603650607e-05,6.3952429627534e-05
-6.823040166636929e-05,6.485917401732877e-05,2.726553793763742e-05,6.6829197749029845e-06,6.208502600202337e-05
-7.596957584610209e-05,6.660495273536071e-05,2.799738103931304e-05,-1.439111201761989e-06,6.326102447928861e-05
-7.391758845187724e-05,5.6812670663930476e-05,2.4766637579887174e-05,-3.5463876884023193e-06,6.416594260372221e-05
-5.724762741010636e-05,5.3312349336920306e-05,2.0291292457841337e-05,-4.801619525096612e-06,6.245118129299954e-05
-3.096193540841341e-05,5.3598843805957586e-05,1.8227756299893372e-05,-6.4163255046878476e-06,6.01785650360398e-05
-1.576703834871296e-05,4.634403012460098e-05,1.4915780411683954e-05,-3.5968660085927695e-06,6.013452366460115e-05
-1.9690240151248872e-05,3.3753512980183586e-05,1.421564957126975e-05,4.844053364649881e-06,6.36224722256884e-05
-3.409166311030276e-05,2.348650923522655e-05,1.095737661671592e-05,1.0663981811376289e-05,6.698113429592922e-05
-4.5859382225899026e-05,1.6998963474179618e-05,7.605765858897939e-06,9.150171536020935e-06,6.48793502477929e-05
-4.501132934819907e-05,1.4365223250933923e-05,9.623847290640697e-06,4.319288109400077e-06,5.8975980209652334e-05
-3.684495823108591e-05,9.763353773450945e-06,1.2450529538909905e-05,-1.0031372994490084e-06,5.785849498352036e-05
-3.51186899933964e-05,-2.9717864435951924e-06,1.3857639714842662e-05,-7.254844149429118e-06,6.244442920433357e-05
-4.2579307773848996e-05,-1.191027695313096e-05,1.4383039342646953e-05,-1.28785150081967e-05,6.759918323950842e-05
-4.9848604248836637e-05,-2.7996316021017265e-06,1.4044143426872324e-05,-1.317555143032223e-05,7.041801291052252e-05
-4.9927988584386185e-05,1.7632935850997455e-05,1.2269271792320069e-05,-8.553495717933401e-06,7.302867015823722e-05
-4.093335155630484e-05,3.1572144507663324e-05,1.0670645679056179e-05,-7.188209565356374e-06,7.245691813295707e-05
-3.075731729040854e-05,3.806231325143017e-05,7.945745892357081e-06,-1.2716986930172425e-05,6.699789082631469e-05
-2.6312489353585988e-05,4.618453749571927e-05,4.68169173473143e-06,-1.8233426089864224e-05,6.138708704384044e-05
-2.840723391273059e-05,5.30475917912554e-05,3.198190086095565e-07,-1.7412976376363076e-05,5.801968291052617e-05
-3.269802618888207e-05,4.932662704959512e-05,-5.447893272503279e-06,-1.2137878002249636e-05,5.825528933200985e-05
-3.0974988476373255e-05,3.560544064384885e-05,-1.1018250916094985e-05,-1.123076981457416e-05,6.15178287262097e-05
-1.9304594388813712e-05,1.996869468712248e-05,-1.3972408851259388e-05,-1.6375313862226903e-05,6.397857941919938e-05
-7.308810381800868e-06,7.086298865033314e-06,-1.4262397598940879e-05,-1.9750321371247992e-05,6.404692976502702e-05
-6.486817710538162e-06,4.6052761604187253e-07,-1.1766792340495158e-05,-1.8039232600131072e-05,6.325519643723965e-05
-2.0493707779678516e-05,1.024278662953293e-05,-5.773316843260545e-06,-1.6672634956194088e-05,6.339608080452308e-05
-4.160861863056198e-05,3.680539157357998e-05,3.133222662654589e-06,-1.797140430426225e-05,5.92070136917755e-05
-5.2511324611259624e-05,5.649331433232874e-05,9.45607553148875e-06,-1.8437862308928743e-05,5.379487993195653e-05
-5.100540511193685e-05,5.350766878109425e-05,1.4646990166511387e-05,-1.6302014046232216e-05,4.9580965423956513e-05
-4.180257747066207e-05,4.537183485808782e-05,2.067231798719149e-05,-1.3943008525529876e-05,4.623569475370459e-05
-2.745642814261373e-05,5.909316678298637e-05,2.3206715923151933e-05,-1.1952417480642907e-05,4.3354240915505216e-05
-1.890074236143846e-05,8.105814777081832e-05,1.9871255062753335e-05,-1.351125229120953e-05,4.2167535866610706e-05
-2.3404971216223203e-05,8.646606147522107e-05,1.3181730537326075e-05,-1.723252898955252e-05,4.5822605898138136e-05
-3.127584568574093e-05,8.272399281850085e-05,7.443435151799349e-06,-1.5905219697742723e-05,4.75862470921129e-05
-3.445450420258567e-05,7.80705304350704e-05,5.08347557115485e-06,-1.1079784599132836e-05,4.6927038056310266e-05
-3.7647558201570064e-05,7.604752318002284e-05,4.022623670607572e-06,-1.0920736713160295e-05,4.5696477172896266e-05
-4.847600212087855e-05,7.44535936973989e-05,3.1997885798773495e-06,-1.4133398508420214e-05,4.91516875626985e-05
-6.953249248908833e-05,7.3729817813728e-05,4.2639881030481774e-06,-1.5273577446350828e-05,5.4889213060960174e-05
-9.050471999216825e-05,7.476493919966742e-05,5.853935363120399e-06,-1.6057527318480425e-05,5.693307321052998e-05
-9.914430120261386e-05,7.327539788093418e-05,8.558038643968757e-06,-1.5728286598459817e-05,5.325706297298893e-05
-8.794508903520182e-05,6.967438821448013e-05,1.1674605957523454e-05,-1.4219517652236391e-05,4.9371301429346204e-05
-5.426472853287123e-05,6.256314372876659e-05,1.098071788874222e-05,-1.2798981515516061e-05,5.0851303967647254e-05
-3.0685184810863575e-06,4.588056981447153e-05,7.270931746461429e-06,-9.836916433414444e-06,5.489527029567398e-05
4.2677027522586286e-05,1.3034918083576486e-05,2.031595840890077e-06,-8.476956281810999e-06,5.6905311794253066e-05
6.71279922244139e-05,-2.098504592140671e-05,-4.442257250047987e-06,-1.3628692613565363e-05,5.4498130339197814e-05
7.232064672280103e-05,-3.979329267167486e-05,-8.203664947359357e-06,-1.9346103727002628e-05,5.170307122170925e-05
6.120657053543255e-05,-5.255206269794144e-05,-8.572822480346076e-06,-1.948004137375392e-05,5.061476622358896e-05
4.453808651305735e-05,-6.769786705262959e-05,-7.93714207247831e-06,-1.821369369281456e-05,5.01848007843364e-05
4.118966171517968e-05,-7.471468416042626e-05,-6.403436145774322e-06,-2.0045252313138917e-05,4.71106541226618e-05
5.447399234981276e-05,-6.350070907501504e-05,-5.763516242041078e-07,-2.441017932142131e-05,4.237608300172724e-05
7.302300946321338e-05,-3.728975207195617e-05,6.21980552750756e-06,-3.149898839183152e-05,4.150091262999922e-05
8.817957859719172e-05,-1.3969476640340872e-05,4.316131708037574e-06,-4.26415863330476e-05,4.56224188383203e-05
8.463464473607019e-05,-4.293285201129038e-06,-3.6640492453443585e-06,-5.223643529461697e-05,4.997690120944753e-05
5.032813351135701e-05,-1.6630604022793705e-06,-1.0330034456274007e-05,-5.19094210176263e-05,5.275774674373679e-05
5.117069576954236e-07,-9.60830789153988e-07,-1.4731223018316086e-05,-4.3579442717600614e-05,5.544180021388456e-05
-3.193571319570765e-05,2.0373414599816897e-07,-1.1377761438779999e-05,-3.683465547510423e-05,5.408479046309367e-05
-3.8651356589980423e-05,1.3079417840344831e-05,-2.4451878744002897e-06,-3.23609056067653e-05,4.474776505958289e-05
-3.6565441405400634e-05,3.3691321732476354e-05,3.5155682098775287e-07,-2.5136281692539342e-05,4.4411990529624745e-05
-3.135147562716156e-05,5.027524457545951e-05,-8.464849798883733e-08,-1.1134336091345176e-05,5.349294588086195e-05
-2.8619064323720522e-05,6.226075493032113e-05,4.4827461351815145e-06,8.084028195298743e-06,5.710515324608423e-05
-3.147165625705384e-05,7.858327444409952e-05,1.6591833627899177e-05,2.4877501346054487e-05,5.29671051481273e-05
-3.153891520923935e-05,9.763742127688602e-05,3.838042903225869e-05,4.2734245653264225e-05,4.667140092351474e-05
-2.60722099483246e-05,0.00010227691382169724,5.827437780681066e-05,6.609976117033511e-05,4.61783965874929e-05
-1.9341248844284564e-05,9.022408630698919e-05,6.889830547152087e-05,8.727669046493247e-05,5.038833478465676e-05
-2.4055409085121937e-05,6.245889380807057e-05,7.161842950154096e-05,9.338100062450394e-05,5.31898440385703e-05
-3.191893483744934e-05,2.7169087843503803e-05,6.798176764277741e-05,8.122737926896662e-05,5.2472307288553566e-05
-4.169616295257583e-05,-7.796333193255123e-06,5.861721365363337e-05,5.6170520110754296e-05,5.047688682680018e-05
-5.759306441177614e-05,-2.0220826627337374e-05,4.523156167124398e-05,2.8438820663723163e-05,4.837216329178773e-05
-7.519661448895931e-05,-6.007082902215188e-06,2.8430527891032398e-05,1.0016453416028526e-05,5.0329141231486574e-05
-8.557477849535644e-05,1.3402760487224441e-05,1.1581618309719488e-05,-6.485885961637905e-08,5.294819129630923e-05
-8.384179091081023e-05,1.731872180243954e-05,-4.386714351767296e-07,-9.874273928289767e-06,5.272380440146662e-05
-7.134742190828547e-05,4.168696705164621e-06,-5.701213012798689e-06,-2.3318796593230218e-05,5.373722524382174e-05
-5.1446768338792026e-05,-1.597376467543654e-05,-5.113740826345747e-06,-3.587024912121706e-05,5.985043753753416e-05
-3.0113718821667135e-05,-3.501154787954874e-05,-3.7886504742346006e-06,-4.008485484519042e-05,6.624680827371776e-05
-1.2704322216450237e-05,-3.8019476050976664e-05,-2.6052923658426153e-06,-3.556288356776349e-05,6.858251435915008e-05
-3.933712378056953e-06,-1.8142656699637882e-05,-2.6419852474646177e-06,-3.250055306125432e-05,6.897169805597514e-05
-2.3617837996425806e-07,1.017207614495419e-05,-5.678582510881824e-06,-3.523871782817878e-05,6.856083200545982e-05
-3.8241816469053447e-07,2.8360504074953496e-05,-9.928096915245987e-06,-3.308870145701803e-05,6.580085027962923e-05
-2.37060180552362e-06,4.219227048452012e-05,-1.2517572031356394e-05,-2.4316068447660655e-05,6.527336518047377e-05
-7.2047805588226765e-06,5.8385790907777846e-05,-1.5200839698081836e-05,-2.0931816834490746e-05,6.615095480810851e-05
-8.141689249896444e-06,7.421204645652324e-05,-2.032072916335892e-05,-2.615641824377235e-05,6.464330363087356e-05
-1.9506123862811364e-06,7.606774306623265e-05,-2.5132214432233013e-05,-2.9359527616179548e-05,6.357320671668276e-05
-2.69181578005373e-06,6.697103526676074e-05,-2.0853472960880026e-05,-2.4092267267405987e-05,6.271841266425326e-05
-1.4305061995401047e-05,5.105633317725733e-05,-1.206690285471268e-05,-1.3797179235552903e-05,6.396914250217378e-05
-2.519347981433384e-05,3.269477019784972e-05,-8.65038327901857e-06,-5.448928845908085e-07,6.50782385491766e-05
-3.785702574532479e-05,2.3900023734313436e-05,-7.023545549600385e-06,7.945146535348613e-06,6.326475704554468e-05
-5.6057240726659074e-05,2.3619850253453478e-05,-6.2699514273845125e-06,4.735190032079117e-06,6.1005626776022837e-05
-7.767105853417888e-05,2.932045390480198e-05,-3.6136173093836987e-06,-3.815268883045064e-06,6.174918235046789e-05
-8.602867455920205e-05,3.5957651562057436e-05,4.4797461669077165e-06,-8.330352102348115e-06,6.548858800670132e-05
-7.28461382095702e-05,3.994340659119189e-05,8.70521671458846e-06,-1.0623614798532799e-05,6.97305949870497e-05
-5.173017780180089e-05,3.856154216919094e-05,1.0907354408118408e-05,-1.029765098792268e-05,7.216197263915092e-05
-3.8136669900268316e-05,2.664421481313184e-05,1.4872340216243174e-05,-7.736589395790361e-06,7.593326881760731e-05
-3.5331413528183475e-05,3.6482090308709303e-06,1.9619494196376763e-05,-7.543295851064613e-06,8.016585343284532e-05
-3.845982428174466e-05,-2.2633877961197868e-05,1.824997889343649e-05,-9.817567843128927e-06,8.064024586929008e-05
-4.6550107072107494e-05,-2.8647957151406445e-05,1.1035276656912174e-05,-1.3948577361588832e-05,7.869609544286504e-05
-5.187135320738889e-05,-5.996570052957395e-06,3.0695937311975285e-06,-1.6660218534525484e-05,7.56022782297805e-05
-4.295249527785927e-05,3.074171399930492e-05,-2.7216626676818123e-06,-1.8009495761361904e-05,7.263846782734618e-05
-2.3512213374488056e-05,5.7912937336368486e-05,-4.591468041326152e-06,-1.8210443158750422e-05,7.177500810939819e-05
-7.120198461052496e-06,6.353743083309382e-05,-6.216585461515933e-06,-2.0031198801007122e-05,7.242835272336379e-05
4.03228705181391e-06,5.579128264798783e-05,-9.11749157239683e-06,-2.4117309294524603e-05,7.341222953982651e-05
1.2090295967936981e-05,5.024933852837421e-05,-1.0860479960683733e-05,-2.777086410787888e-05,7.448490214301273e-05
1.794409763533622e-05,4.941858060192317e-05,-8.867765245668124e-06,-2.798615605570376e-05,7.426951196976006e-05
1.7338958059553988e-05,4.308710413170047e-05,-5.559485089179361e-06,-2.5922405257006176e-05,7.303933671209961e-05
5.084307304059621e-06,2.9472286769305356e-05,-2.2232882201933535e-06,-2.4393175408476964e-05,7.123358227545395e-05
-1.2405500456225127e-05,1.4391100194188766e-05,-7.997777515811322e-07,-2.7380989195080474e-05,7.005866791587323e-05
-2.6597714168019593e-05,6.910768661327893e-06,-4.29416877523181e-06,-3.6583482142305e-05,6.975085125304759e-05
-4.248219556757249e-05,9.194480298901908e-06,-9.906457307806704e-06,-4.752157110488042e-05,6.440944707719609e-05
-5.676684304489754e-05,1.8073034880217165e-05,-1.0844310963875614e-05,-5.416827480075881e-05,5.653906919178553e-05
-6.1028582422295585e-05,2.7327840143698268e-05,-1.0256346286041662e-05,-5.6450098782079294e-05,5.473655619425699e-05
-5.834964758832939e-05,3.332248525111936e-05,-9.297174074163195e-06,-5.572961163125001e-05,5.595359834842384e-05
-5.468343078973703e-05,4.152438123128377e-05,-8.040913598961197e-06,-5.0793623813660815e-05,5.7012464822037145e-05
-4.998140866518952e-05,5.215283090365119e-05,-3.3140333925985033e-06,-4.417592572281137e-05,5.9884572692681104e-05
-4.261246431269683e-05,6.19195998297073e-05,1.398206450176076e-06,-3.0328101274790242e-05,6.501157622551546e-05
-3.514782292768359e-05,6.559308530995622e-05,4.476586582313757e-06,-1.1508946954563726e-05,6.735003989888355e-05
-2.9503378755180165e-05,4.89368467242457e-05,9.10318976821145e-06,5.696690550394123e-06,6.323533307295293e-05
-2.3957109078764915e-05,1.9135077309329063e-05,1.4452602044912055e-05,1.7559803382027894e-05,5.832616807310842e-05
-2.4079221475403756e-05,2.415879862383008e-06,1.6377121937694028e-05,2.2551870642928407e-05,5.764021261711605e-05
-3.147354436805472e-05,4.38765073340619e-06,1.868830258899834e-05,2.3173259251052514e-05,5.860883175046183e-05
-3.842721343971789e-05,7.818447556928732e-06,2.3265147319762036e-05,1.7826989278546534e-05,5.7313645811518654e-05
-4.108792927581817e-05,1.1314789844618645e-05,2.2681973860017024e-05,7.109152647899464e-06,5.532298382604495e-05
-3.943220144719817e-05,1.4408965398615692e-05,1.7103862774092704e-05,-2.0545073766697897e-06,5.460648753796704e-05
-3.5856854083249345e-05,1.6655203580739908e-05,1.1763410839193966e-05,-5.007244112675835e-07,5.497652091435157e-05
-3.2760850444901735e-05,1.9715076632564887e-05,1.0933555131487083e-05,5.590305590885691e-06,5.8068002545041963e-05
-2.6657575290300883e-05,2.8530399504234083e-05,1.0799461961141787e-05,5.4081028793007135e-06,6.242437666514888e-05
-1.2927701391163282e-05,4.0561306377639994e-05,8.421299753536005e-06,-2.268060143251205e-06,6.64236067677848e-05
1.6969312355286092e-06,4.3762462155427784e-05,5.344644705473911e-06,-9.121491530095227e-06,6.894276884850115e-05
1.0441542144690175e-05,3.5574052162701264e-05,2.4917435439419933e-06,-1.1292496310488787e-05,7.09878804627806e-05
1.4906537217029836e-05,2.4273720555356704e-05,-9.038223538482271e-07,-1.1117642316094134e-05,7.134909537853673e-05
1.2862537914770655e-05,1.631627674214542e-05,-2.637856368892244e-06,-7.129558071028441e-06,7.070428546285257e-05
-1.169418510471587e-06,7.611122782691382e-06,-5.399107863013342e-07,2.0861300527030835e-06,6.970447429921478e-05
-2.2406755306292325e-05,2.100286337736179e-06,4.9635805225989316e-06,9.4033148343442e-06,6.647952977800742e-05
-4.429733598954044e-05,6.214699169504456e-06,8.273926141555421e-06,2.1959895093459636e-06,6.340895197354257e-05
-6.400066922651604e-05,1.642147617531009e-05,7.49682249079342e-06,-1.554046139062848e-05,6.296976062003523e-05
-7.658133836230263e-05,2.4959907023003325e-05,3.917990852642106e-06,-3.113443381153047e-05,6.600660708500072e-05
-6.952633702894673e-05,3.220377038815059e-05,3.7504815963984584e-07,-3.748717062990181e-05,6.745054270140827e-05
-4.330963929533027e-05,3.8875739846844226e-05,-2.970436980831437e-06,-4.130350498599e-05,6.61239682813175e-05
-2.1467772967298515e-05,4.555096893454902e-05,-3.6823721529799514e-06,-4.2198047594865784e-05,6.488334474852309e-05
-2.0209412468830124e-05,4.6935896534705535e-05,-2.225140860900865e-06,-2.8236790967639536e-05,6.12728763371706e-05
