6.961002509342507e-05,0.00011692478437907994,-4.5792662604071666e-06,2.217096152890008e-05,3.9871109038358554e-05
8.307587268063799e-05,2.2264483050093986e-05,-1.68265387401334e-06,1.364268518955214e-05,4.527029886958189e-05
8.464518032269552e-05,-6.380373815773055e-05,-6.430834105231042e-07,7.069555522321025e-06,5.256728400127031e-05
7.716155232628807e-05,-0.00012535706628113985,-3.5415355341683608e-06,-2.6338940983805514e-07,5.278594107949175e-05
5.387553392210975e-05,-0.00014786591054871678,-4.664721473091049e-06,-6.868976925034076e-06,5.2611045248340815e-05
2.0840094293816946e-05,-0.00013674212095793337,-7.378116151812719e-06,-1.5997682567103766e-05,5.541234349948354e-05
-1.6377629435737617e-05,-0.00010719660349423066,-1.6331896404153667e-05,-2.190129816881381e-05,5.5165521189337596e-05
-4.2431613110238686e-05,-8.218006405513734e-05,-2.248319833597634e-05,-2.404240149189718e-05,5.038069502916187e-05
-4.6118031605146825e-05,-6.531809776788577e-05,-2.066853630822152e-05,-2.6175914172199555e-05,4.428538159118034e-05
-3.714269769261591e-05,-5.298964606481604e-05,-1.220280955749331e-05,-2.8980801289435476e-05,4.209281541989185e-05
-2.593417593743652e-05,-4.9780283006839454e-05,-4.939037353324238e-06,-3.207166082574986e-05,4.359509330242872e-05
-1.4857410860713571e-05,-4.9051108362618834e-05,-2.3948255147843156e-06,-3.275113340350799e-05,4.487385376705788e-05
-9.721514288685285e-06,-2.515133201086428e-05,-4.092271410627291e-06,-3.120900146313943e-05,4.4600765249924734e-05
-1.1840069419122301e-05,2.170205334550701e-05,-5.553863957175054e-06,-3.146745802951045e-05,4.7358185838675126e-05
-1.2721297935058828e-05,6.518806185340509e-05,-6.700540780002484e-06,-3.447011113166809e-05,5.367913036025129e-05
-8.486960723530501e-06,8.596527186455205e-05,-8.544331649318337e-06,-4.103499304619618e-05,5.9526988479774445e-05
-2.836013663909398e-06,9.01487801456824e-05,-1.2161778613517527e-05,-5.5666459957137704e-05,6.27809640718624e-05
5.166822120372672e-06,9.208032133756205e-05,-1.706132388790138e-05,-8.00685811555013e-05,6.533531268360093e-05
1.4572353393305093e-05,9.274137846659869e-05,-2.4564498744439334e-05,-0.00010280484275426716,6.945789937162772e-05
1.0472202120581642e-05,9.289006993640214e-05,-2.8854010452050716e-05,-0.0001109249860746786,7.291560905287042e-05
-1.7928437955561094e-05,9.740891255205497e-05,-2.3632581360288896e-05,-0.00010477902105776593,7.124555122572929e-05
-5.88700313528534e-05,9.93929133983329e-05,-1.576349495735485e-05,-8.868728764355183e-05,6.357314123306423e-05
-9.011158545035869e-05,8.934925426729023e-05,-1.097301810659701e-05,-6.307737930910662e-05,5.600994700216688e-05
-9.970266546588391e-05,7.05733327777125e-05,-8.921346307033673e-06,-2.6868621716857888e-05,5.3050538554089144e-05
-8.687066292623058e-05,4.366281791590154e-05,-4.640593942895066e-06,1.8040767827187665e-05,5.18297019880265e-05
-6.561609916388988e-05,8.512216481904034e-06,6.791998657718068e-06,6.379077967721969e-05,5.307612082106061e-05
-5.129225610289723e-05,-2.9137912861187942e-05,2.7242116630077362e-05,9.495810081716627e-05,5.612603126792237e-05
-4.730681757791899e-05,-6.237441266421229e-05,4.005489608971402e-05,9.380102710565552e-05,5.5723023251630366e-05
-4.901298598269932e-05,-7.23745470168069e-05,3.600510171963833e-05,6.721397221554071e-05,5.821307422593236e-05
-4.557082866085693e-05,-5.24535498698242e-05,3.210308568668552e-05,4.2490093619562685e-05,6.228296115295961e-05
-3.417395055294037e-05,-1.8035787434200756e-05,3.4523567592259496e-05,2.8651118554989807e-05,6.5448613895569e-05
-2.031100302701816e-05,2.729850893956609e-05,3.4746604796964675e-05,1.9510438505676575e-05,6.218612543307245e-05
-1.4148367881716695e-05,6.875315011711791e-05,2.742458127613645e-05,9.328162377642002e-06,4.9245521950069815e-05
-2.726704769884236e-05,0.00010055817983811721,1.878091825346928e-05,-5.482016604219098e-06,4.074068056070246e-05
-4.5785978727508336e-05,0.00012589733523782343,1.5694131434429437e-05,-1.674233135418035e-05,4.298186831874773e-05
-5.2359140681801364e-05,0.00013926002429798245,1.8708937204792164e-05,-1.5984776837285608e-05,4.965822154190391e-05
-4.4726766645908356e-05,0.00012593135761562735,2.5430817913729697e-05,-7.846349035389721e-06,5.613475514110178e-05
-3.445548645686358e-05,6.760448741260916e-05,2.9147358873160556e-05,-1.1240402955081663e-06,6.174578447826207e-05
-3.588049366953783e-05,-1.7171336367027834e-05,2.7983522159047425e-05,2.3060890441684023e-07,6.619928171858191e-05
-4.659411933971569e-05,-7.612905028508976e-05,2.4738212232477963e-05,-8.653400414004864e-07,6.785080040572211e-05
-5.9591086028376594e-05,-7.855976582504809e-05,2.1502564777620137e-05,-5.833351224282524e-06,6.79014774505049e-05
-7.76681918068789e-05,-4.833499406231567e-05,2.1463745724759065e-05,-1.316985708399443e-05,6.766217848053202e-05
-9.488131036050618e-05,-2.8492911951616406e-05,2.4541290258639492e-05,-1.9000912288902327e-05,6.560228939633816e-05
-8.823633834253997e-05,-3.41294908139389e-05,2.5962192012229934e-05,-2.1018664483563043e-05,6.380143167916685e-05
-5.084938675281592e-05,-4.396738586365245e-05,2.62841276708059e-05,-2.1567337171291e-05,6.216367182787508e-05
-5.4623910727968905e-06,-3.682233364088461e-05,2.6221863663522527e-05,-2.3060705643729307e-05,5.9930240240646526e-05
2.91577434836654e-05,-1.3344038961804472e-05,2.4984170522657223e-05,-2.2472731870948337e-05,5.911738844588399e-05
5.052100823377259e-05,6.189134637679672e-06,2.2217622245079838e-05,-1.932025952555705e-05,5.8841331338044256e-05
5.443885675049387e-05,1.2778727068507578e-05,1.847978819569107e-05,-1.6608375517535023e-05,5.622127355309203e-05
3.7073143175803125e-05,2.7256914108875208e-05,1.7004378605633974e-05,-1.95458997040987e-05,5.276515003060922e-05
7.929241292004008e-06,5.316851820680313e-05,1.7259171727346256e-05,-2.4229439077316783e-05,5.086716919322498e-05
-1.1304264262435026e-05,6.541531183756888e-05,1.689693090156652e-05,-2.333029988221824e-05,5.3520387155003846e-05
-1.7145292076747864e-05,6.234439206309617e-05,1.3068322004983202e-05,-1.9479726688587107e-05,5.921733827563003e-05
-2.3027512725093402e-05,5.47293275303673e-05,7.821646249794867e-06,-1.9787046767305583e-05,6.146253872429952e-05
-2.681551268324256e-05,4.283827365725301e-05,8.198187060770579e-06,-2.44516231759917e-05,5.796217737952247e-05
-1.93645064427983e-05,3.4520267945481464e-05,9.950575076800305e-06,-2.9332300982787274e-05,5.1125600293744355e-05
-1.2062051609973423e-05,3.771921183215454e-05,1.3823977496940643e-05,-3.253760587540455e-05,5.128571137902327e-05
-9.572685485181864e-06,5.4362193623092026e-05,1.7023421605699696e-05,-2.9164644729462452e-05,5.5350392358377576e-05
-5.464654805109603e-06,7.68649042584002e-05,1.5961506505846046e-05,-2.412708090560045e-05,5.686569056706503e-05
-3.65561140824866e-06,8.878798689693213e-05,1.745993176882621e-05,-2.4545230189687572e-05,5.9011992561863735e-05
-5.1825086302415e-06,8.751097630010918e-05,1.8482509403838776e-05,-2.417559880996123e-05,6.342138658510521e-05
-1.884813741526159e-06,7.49811006244272e-05,1.1571474715310615e-05,-2.1215777451288886e-05,6.84012338751927e-05
3.6988628835388226e-06,5.602492456091568e-05,1.9638639514596434e-06,-1.722278284432832e-05,6.736918294336647e-05
-1.0087159125760081e-06,4.6964505600044504e-05,-1.7292991287831683e-06,-1.554322079755366e-05,6.14641176071018e-05
-1.867764331109356e-05,6.251762533793226e-05,-6.220282102731289e-07,-1.799991150619462e-05,5.643434269586578e-05
-3.4435855923220515e-05,8.564603922422975e-05,1.3204962669988163e-06,-2.0398096239659935e-05,5.8027584600495175e-05
-3.6117893614573404e-05,8.406852430198342e-05,-1.7977475863517611e-06,-1.8501008526072837e-05,6.442653830163181e-05
-3.2859021303011104e-05,4.657513272832148e-05,-8.845582669891883e-06,-1.7373604350723326e-05,7.225034642033279e-05
-4.1710507503012195e-05,-5.988022621750133e-06,-1.3756734006165061e-05,-2.0503110135905445e-05,7.705610187258571e-05
-6.425397441489622e-05,-3.72967951989267e-05,-1.3014910109632183e-05,-2.2932530555408448e-05,7.545399421360344e-05
-8.062663982855156e-05,-3.545836443663575e-05,-1.25952419693931e-05,-2.049105205514934e-05,6.899453728692606e-05
-8.160548895830289e-05,-1.9456196241662838e-05,-1.3789181139145512e-05,-1.6366564523195848e-05,6.293290061876178e-05
-7.476659811800346e-05,-6.58269982523052e-06,-1.3054122973699123e-05,-1.3810497875965666e-05,6.139265315141529e-05
-6.365400622598827e-05,-5.262350555312878e-07,-1.1592886949074455e-05,-1.131993758463068e-05,6.311447941698134e-05
-3.7637175410054624e-05,3.8773447386120097e-07,-1.1695731700456236e-05,-8.508734026690945e-06,6.481406308012083e-05
9.324480743089225e-06,9.260586921300273e-06,-1.3105436664773151e-05,-6.848262728453847e-06,6.508037040475756e-05
5.8233621530234814e-05,3.200397623004392e-05,-1.125271046475973e-05,-5.876250270375749e-06,6.67284766677767e-05
8.338195766555145e-05,5.447633157018572e-05,-8.455263923679013e-06,-4.008978066849522e-06,6.808812031522393e-05
7.989796722540632e-05,6.282861431827769e-05,-1.1116532732557971e-05,-1.0170394943997962e-06,6.428600318031386e-05
6.255641346797347e-05,5.46150331501849e-05,-1.4905755961081013e-05,1.9868871277139988e-06,5.9561349189607427e-05
4.236894892528653e-05,4.078655183548108e-05,-1.464321667299373e-05,2.971105914184591e-06,6.116707663750276e-05
1.8179620383307338e-05,3.811813076026738e-05,-1.2546450307127088e-05,1.9174387944076443e-06,6.481829041149467e-05
-5.8369005273561925e-06,2.4309310902026482e-05,-1.0090691830555443e-05,2.3042707653075922e-06,6.289670272963122e-05
-1.8165266737923957e-05,-6.432484951801598e-06,-8.47974752105074e-06,4.299748525227187e-06,5.676243745256215e-05
-1.739317667670548e-05,-2.7968399081146345e-05,-8.660408639116213e-06,5.32051808477263e-06,5.513620635611005e-05
-9.424438758287579e-06,-3.151973578496836e-05,-8.515445188095327e-06,6.8593863034038804e-06,5.485996007337235e-05
-8.582580449001398e-06,-3.226622720831074e-05,-9.262919775210321e-06,4.681190148403402e-06,5.2300845709396526e-05
-1.9023338609258644e-05,-4.288621130399406e-05,-1.0344514521420933e-05,2.1248131361062406e-06,5.49875658180099e-05
-3.2925217965384945e-05,-5.2940871682949364e-05,-9.028604836203158e-06,6.849051601420797e-07,6.330523319775239e-05
-5.218736987444572e-05,-4.1534480260452256e-05,-6.760305950592738e-06,-1.5668728110540542e-06,6.863971066195518e-05
-7.351669046329334e-05,-2.941318143712124e-06,-1.7697356042845058e-06,-3.6607777929020813e-06,7.044316589599475e-05
-8.367910049855709e-05,3.2222098525380716e-05,7.283516424649861e-06,-4.263033133611316e-06,6.954387208679691e-05
-7.410885882563889e-05,4.583307236316614e-05,1.4287969861470629e-05,-3.068985506615718e-06,6.574020517291501e-05
-5.761158899986185e-05,4.75275119242724e-05,1.3132933418091852e-05,-2.4470241442031693e-06,6.080784442019649e-05
-4.572410762193613e-05,4.546648051473312e-05,7.18825913281762e-06,-1.7965974166145315e-06,6.113971176091582e-05
-4.496930705499835e-05,2.747683902271092e-05,1.9112383142783074e-06,-4.915417775919195e-06,6.29875430604443e-05
-5.504591536009684e-05,7.587034815514926e-06,-7.710004865657538e-07,-1.280387004953809e-05,5.7145087339449674e-05
-6.79245640640147e-05,2.286001472384669e-05,-4.978811375622172e-06,-1.9634879208751954e-05,4.899613850284368e-05
-7.284672756213695e-05,7.435146108036861e-05,-1.0905591807386372e-05,-2.222366128989961e-05,4.88767254864797e-05
-6.273375038290396e-05,0.00013089751882944256,-1.5262625311152078e-05,-2.659947313077282e-05,5.711896301363595e-05
-4.9625206884229556e-05,0.00016624202544335276,-1.623892421775963e-05,-3.7183610402280465e-05,6.510187813546509e-05
-4.499794158618897e-05,0.00017048101290129125,-1.3959660464024637e-05,-5.1973987865494564e-05,6.841420690761879e-05
-4.680852725869045e-05,0.00014742092753294855,-1.0735849173215684e-05,-7.092571468092501e-05,6.564651994267479e-05
-4.957970668328926e-05,0.0001162800399470143,-1.1692935913742986e-05,-9.693575702840462e-05,6.21641956968233e-05
-5.191269519855268e-05,8.168108615791425e-05,-1.6824555132188834e-05,-0.00011420890950830653,6.190828571561724e-05
-5.201189560466446e-05,3.493004260235466e-05,-2.1447529434226453e-05,-0.00010831357940332964,6.333962664939463e-05
-5.358237467589788e-05,-1.9953935407102108e-05,-2.09627269214252e-05,-8.275431900983676e-05,6.323451088974252e-05
-5.2561274060280994e-05,-6.269789446378127e-05,-1.3508262782124802e-05,-4.4702013838104904e-05,5.926780795562081e-05
-2.920030237874016e-05,-8.726717351237312e-05,-3.4759773370751645e-07,-3.6845674458163558e-06,5.571611109189689e-05
3.545751496858429e-06,-0.00010005710646510124,1.322015577898128e-05,2.9878461646148935e-05,5.4905671277083457e-05
2.8347991246846505e-05,-9.66042498475872e-05,2.4015809685806744e-05,5.765505557064898e-05,5.8585625083651394e-05
3.879779251292348e-05,-7.498364720959216e-05,4.2131949157919735e-05,8.804962271824479e-05,6.471079541370273e-05
1.823474303819239e-05,-4.201914634904824e-05,6.842076982138678e-05,0.0001221520797116682,6.988042878219858e-05
-1.3226549526734743e-05,-2.1798938178108074e-05,9.18061487027444e-05,0.00014596429537050426,7.127935532480478e-05
-3.788440881180577e-05,-1.743319080560468e-05,9.949359082384035e-05,0.0001398892782162875,6.266551645239815e-05
-5.3127543651498854e-05,-1.1272088158875704e-05,8.638852159492671e-05,0.0001115610430133529,5.2707640861626714e-05
-6.895525439176708e-05,2.3827526547393063e-06,6.104225030867383e-05,7.675201777601615e-05,4.728787098429166e-05
-8.928902389016002e-05,2.033027703873813e-05,3.809686313616112e-05,4.831131809623912e-05,4.7909496061038226e-05
-0.00010488484258530661,4.0318929677596316e-05,2.4254908566945232e-05,2.524287447158713e-05,4.944041938870214e-05
-0.00011691325198626146,6.522591866087168e-05,1.7008738723234273e-05,8.628236173535697e-06,5.013422924093902e-05
-0.00012829535990022123,9.16694407351315e-05,1.3149016012903303e-05,5.710906521017023e-07,5.1092087232973427e-05
-0.00013032123388256878,0.0001156936414190568,1.1893384908034932e-05,-2.988664618897019e-06,5.2022245654370636e-05
-0.0001094429608201608,0.00012322291149757802,1.2088667062926106e-05,-1.0383226253907196e-05,5.325529491528869e-05
-6.652221054537222e-05,9.957604197552428e-05,1.0294387720932718e-05,-2.614080767671112e-05,5.584468453889713e-05
-1.5463787349290214e-05,5.266682637738995e-05,6.342135748127475e-06,-4.5490905904443935e-05,6.187063263496384e-05
2.4733828468015417e-05,1.0098863640450872e-05,5.1013157644774765e-06,-5.748801049776375e-05,6.661488441750407e-05
4.652556526707485e-05,-9.430741556570865e-06,7.511693183914758e-06,-5.640829840558581e-05,6.999336619628593e-05
5.522497303900309e-05,-4.305496986489743e-06,7.79270976636326e-06,-4.962304956279695e-05,7.161514804465696e-05
5.86950991419144e-05,1.1873022231156938e-05,4.9221657718589995e-06,-3.88775224564597e-05,7.278373959707096e-05
4.165242353337817e-05,4.150850872974843e-05,1.2494803058871184e-06,-2.6480123779037967e-05,7.489663403248414e-05
-1.16162509584683e-05,9.503160981694236e-05,-2.259894017697661e-06,-1.5937594071147032e-05,7.574881601613015e-05
-8.443372644251212e-05,0.0001511252048658207,-5.9360359045967925e-06,-2.1901145373703912e-05,7.165178249124438e-05
-0.0001353884144918993,0.0001790503301890567,-7.909377018222585e-06,-4.444688238436356e-05,6.117587327025831e-05
-0.0001400697510689497,0.00015648391854483634,-8.432008144154679e-06,-6.050650335964747e-05,4.864428046857938e-05
-0.00010622348781907931,9.964313358068466e-05,-7.414887022605399e-06,-6.25305256107822e-05,4.2776464397320524e-05
-4.141695535508916e-05,4.3088526581414044e-05,-7.0342580329452176e-06,-5.806349145132117e-05,4.3087937228847295e-05
2.674506868061144e-05,-6.880925866425969e-06,-8.778752089710906e-06,-4.992758113075979e-05,4.51453379355371e-05
7.108991121640429e-05,-6.0984039009781554e-05,-9.712330211186782e-06,-3.684596958919428e-05,4.8853864427655935e-05
8.75839832588099e-05,-0.00011759152403101325,-1.179380706162192e-05,-1.7548796677147038e-05,5.0826198275899515e-05
7.179412205005065e-05,-0.00013887092063669115,-1.2125447028665803e-05,4.807990535482531e-06,5.0474231102271006e-05
5.4369738791137934e-05,-9.482836321694776e-05,-4.315610112826107e-06,3.3355703635606915e-05,5.3201096307020634e-05
5.3277100960258394e-05,-2.004590533033479e-05,1.00191591627663e-05,5.9218567912466824e-05,5.7065077271545306e-05
5.605085243587382e-05,2.8186364943394437e-05,2.011379365285393e-05,6.659051723545417e-05,6.091749310144223e-05
4.642259591491893e-05,3.6845518479822204e-05,2.355879951210227e-05,5.565309038502164e-05,6.379187107086182e-05
2.4690463760634884e-05,3.454063698882237e-05,1.9771941879298538e-05,3.8587069866480306e-05,6.444957398343831e-05
4.280270331946667e-06,4.192460619378835e-05,1.2227647857798729e-05,2.5372844902449287e-05,6.371342169586569e-05
-1.3693594155483879e-05,5.092450010124594e-05,6.694237526971847e-06,1.6843789126141928e-05,6.3111845520325e-05
-2.9309370802366175e-05,6.802871212130412e-05,4.3027312131016515e-06,9.216541911882814e-06,6.166078674141318e-05
-4.1672166844364256e-05,0.00011079527030233294,3.955443844461115e-06,3.2426200959889684e-06,6.114443385740742e-05
-5.045172292739153e-05,0.00016229432367254049,3.0660776246804744e-06,-2.823039039867581e-06,6.323488923953846e-05
-6.171074346639216e-05,0.00017852512246463448,1.9329363567521796e-06,-1.2373237041174434e-05,6.394871161319315e-05
-7.742169691482559e-05,0.00014711631229147315,1.7726923715599696e-06,-2.0690813471446745e-05,6.103229316067882e-05
-9.294472692999989e-05,0.00010078027844429016,4.494194399740081e-06,-2.5554532840033062e-05,5.7795215980149806e-05
-0.00010403779742773622,7.565595296910033e-05,6.521478553622728e-06,-2.8324002414592542e-05,5.7642268075142056e-05
-0.00011562226427486166,6.765073339920491e-05,4.4635889935307205e-06,-2.8638380172196776e-05,5.354681343305856e-05
-0.00012710237933788449,4.49015133199282e-05,-4.7171729988804145e-07,-2.693525493668858e-05,4.4513824832392856e-05
-0.00012749168672598898,1.6519183191121556e-05,-2.0688114545919234e-06,-2.2397420252673328e-05,4.028929106425494e-05
-0.00010517636110307649,2.1432490029837936e-05,2.608764134492958e-06,-1.5626594176865183e-05,4.6008841309230775e-05
-6.991648115217686e-05,5.1770741265499964e-05,1.0810689673235174e-05,-1.0186689905822277e-05,5.586188126471825e-05
-4.384881322039291e-05,4.988994260202162e-05,1.673464612395037e-05,-4.251495738571975e-06,6.021198714734055e-05
-2.5271527192671783e-05,1.698709456832148e-05,1.677728687354829e-05,4.496207566262456e-06,5.9508627600735053e-05
1.412393658029032e-06,3.806496238212276e-07,1.5863690350670367e-05,1.2349267308309209e-05,6.18345002294518e-05
3.8989612221485004e-05,3.068686567075929e-07,1.775312739482615e-05,5.889129170100205e-06,6.291041790973395e-05
5.4784886742709205e-05,6.158334599604132e-06,1.1751892998290714e-05,-1.0972840755130164e-05,6.265989941312e-05
4.025148882647045e-05,1.1628586435108446e-05,1.5534182011833764e-06,-2.646183747856412e-05,6.340611435007304e-05
2.2064945369493216e-05,4.387485660117818e-06,-2.5076806196011603e-06,-3.223196472390555e-05,6.802642747061327e-05
3.5449761526251677e-06,2.8781507808162132e-06,-4.558624368655728e-06,-3.0436363886110485e-05,7.250878843478858e-05
-1.498414985690033e-05,1.4812944755249191e-05,-8.415304364461917e-06,-3.1441009923582897e-05,7.030653796391562e-05
-2.8550623028422706e-05,1.7573871446074918e-05,-1.1111666935903486e-05,-3.558101161615923e-05,6.158999167382717e-05
-2.7326710551278666e-05,-1.596370384504553e-05,-9.809825314732734e-06,-3.767875023186207e-05,5.069428516435437e-05
-2.1841537090949714e-05,-6.687182758469135e-05,-8.632628123450559e-06,-3.2630494388286024e-05,4.74778025818523e-05
-2.499994297977537e-05,-8.5653860878665e-05,-6.470351308962563e-06,-2.3325894289882854e-05,4.9236539780395105e-05
-4.2641077016014606e-05,-6.905740883667022e-05,6.73153465413634e-07,-1.8685786926653236e-05,5.1161263399990276e-05
-7.22278855391778e-05,-4.045602690894157e-05,9.445298928767443e-06,-2.1219853806542233e-05,5.0959843065356836e-05
-9.631591092329472e-05,-2.1254549210425466e-05,1.5298395737772807e-05,-2.5175644623232074e-05,5.1994902605656534e-05
-9.989405225496739e-05,-2.014978599618189e-05,2.0215506083332002e-05,-2.482453601260204e-05,5.426972347777337e-05
-8.17541586002335e-05,-3.239317811676301e-05,2.7522029995452613e-05,-2.2633763364865445e-05,5.453600897453725e-05
-5.252171467873268e-05,-3.634167296695523e-05,3.685125557240099e-05,-2.2342237571137957e-05,5.4463067499455065e-05
-2.3686116037424654e-05,-2.213480183854699e-05,4.1157483792630956e-05,-2.3693206458119676e-05,5.802851228509098e-05
-2.906210738728987e-06,-6.232218311197357e-06,3.77664364350494e-05,-2.2818010620540008e-05,6.244391261134297e-05
1.838826028688345e-05,1.4951594096146437e-07,3.08538947138004e-05,-1.5686175174778327e-05,6.306698924163356e-05
4.7008834371808916e-05,8.434309165750165e-06,2.476601002854295e-05,-6.635972567892168e-06,6.159002805361524e-05
7.432475103996694e-05,2.5545019525452517e-05,2.053440584859345e-05,-2.219254383817315e-06,5.901159966015257e-05
8.084857108769938e-05,4.249189078109339e-05,1.8740067389444448e-05,-3.2315210773958825e-06,5.570807115873322e-05
6.111837865319103e-05,5.42102825420443e-05,1.7640144506003708e-05,-6.360124189086491e-06,5.246530781732872e-05
2.2831583919469267e-05,6.335088255582377e-05,1.264141610590741e-05,-1.118259024224244e-05,4.934650496579707e-05
-1.160689953394467e-05,7.270642527146265e-05,5.43588976142928e-06,-2.4589080567238852e-05,4.881934728473425e-05
-2.7008758479496464e-05,8.162315498339012e-05,-8.507755069331324e-07,-4.1089435399044305e-05,5.0233909860253334e-05
-3.0464732844848186e-05,8.121609425870702e-05,-5.50144977751188e-06,-5.207484355196357e-05,5.1086211897199973e-05
-2.7750302251661196e-05,6.332179327728227e-05,-8.185139449778944e-06,-5.701317422790453e-05,5.4463118431158364e-05
-1.6764208339736797e-05,4.32321940024849e-05,-4.414976956468308e-06,-5.1530878408811986e-05,5.604761827271432e-05
-1.0951229342026636e-05,4.038265979033895e-05,2.131957216988667e-06,-4.673003058996983e-05,5.708335083909333e-05
-2.5258934329031035e-05,5.404870898928493e-05,2.470295385137433e-06,-4.988771979697049e-05,6.0389535065041855e-05
-5.085936209070496e-05,6.450683576986194e-05,8.036478789108514e-07,-5.195105404709466e-05,6.202048825798556e-05
-7.391924737021327e-05,6.219627539394423e-05,-2.0916293124173535e-06,-5.0698617997113615e-05,5.875733040738851e-05
-8.334151789313182e-05,5.41750923730433e-05,-6.779080194974085e-06,-5.6655782827874646e-05,5.443568079499528e-05
-7.677770190639421e-05,4.236327367834747e-05,-1.1116769201180432e-05,-6.49599896860309e-05,5.464467540150508e-05
-6.436168041545898e-05,3.0601659091189504e-05,-8.664312190376222e-06,-6.186365499161184e-05,5.7318560720887035e-05
-5.496627272805199e-05,2.9921215173089877e-05,2.4861881797733076e-07,-4.4246873585507274e-05,6.056092752260156e-05
-4.945077671436593e-05,3.4916214644908905e-05,9.467726158618461e-06,-2.147495251847431e-05,6.110168033046648e-05
-4.335771518526599e-05,4.083672320120968e-05,1.974393853743095e-05,-7.024755745987932e-07,5.793822492705658e-05
-3.7158792110858485e-05,4.9049842345993966e-05,2.8197238862048835e-05,1.623909338377416e-05,5.593103196588345e-05
-3.312388435006142e-05,5.308535401127301e-05,3.144778747810051e-05,2.9704615371883847e-05,5.764282832387835e-05
-2.9683320462936535e-05,4.285725663066842e-05,3.1461164326174185e-05,4.3351803469704464e-05,6.04861525062006e-05
-2.543427217460703e-05,2.1390229449025355e-05,3.1146300898399204e-05,5.7910125178750604e-05,6.174522422952577e-05
-1.90903119801078e-05,5.956733843959228e-07,2.5934192308341153e-05,6.70179069857113e-05,6.271419988479465e-05
-1.2925305782118812e-05,-1.5112806977413129e-05,1.3843730812368449e-05,5.625349149340764e-05,6.198677147040144e-05
-6.438589934987249e-06,-1.4119182196736801e-05,-7.625265396882241e-08,2.9939514206489548e-05,5.995997344143689e-05
5.273630449664779e-06,8.351391443284228e-06,-8.79938670550473e-06,1.2423422958818264e-05,5.8900401199935004e-05
1.2373625395412091e-05,3.1918203603709117e-05,-1.076271291822195e-05,1.5621728380210698e-05,5.7312343415105715e-05
3.6572471344697988e-06,4.097863347851671e-05,-8.90637056727428e-06,2.6344469006289728e-05,5.643226540996693e-05
-1.3077778021397535e-05,4.1054008761420846e-05,-6.03165062784683e-06,2.9791417546221055e-05,5.6136574130505323e-05
-3.091895268880762e-05,3.3440515835536644e-05,-3.4846011658373754e-06,2.2744816305930726e-05,5.319626143318601e-05
-4.612445627572015e-05,2.455769026710186e-05,-5.3936119002173655e-06,6.822884643042926e-06,5.134637831361033e-05
-5.905874786549248e-05,2.1513715182663873e-05,-9.95265509118326e-06,-1.3769526049145497e-05,5.297255120240152e-05
-6.72130481689237e-05,2.5206230930052698e-05,-1.5163082935032435e-05,-3.1546387617709115e-05,5.684142161044292e-05
-7.028310938039795e-05,2.955033960461151e-05,-2.1468911654665135e-05,-3.719717642525211e-05,6.075395504012704e-05
-7.150793680921197e-05,2.5945513698388822e-05,-2.23974566324614e-05,-3.056485002161935e-05,5.800654616905376e-05
-6.694432522635907e-05,2.521365058782976e-05,-1.9015187717741355e-05,-3.3241572964470834e-05,5.1164905016776174e-05
-5.2737224905285984e-05,3.501454193610698e-05,-1.4691665455757175e-05,-3.9974318497115746e-05,4.6784047299297526e-05
-3.287506478955038e-05,4.549686855170876e-05,-1.007146875053877e-05,-3.657761772046797e-05,4.8541201977059245e-05
-1.8212826034869067e-05,4.7748293582117185e-05,-7.72746261645807e-06,-2.509408659534529e-05,5.2165865781717e-05
-1.0407849913462996e-05,4.392112168716267e-05,-5.618189334199997e-06,-8.994619747682009e-06,5.44402064406313e-05
-6.4633363763277885e-06,4.363547486718744e-05,8.046689004004293e-07,5.761944066762226e-06,5.4922671552048996e-05
-1.1410017577873077e-05,5.254125426290557e-05,1.2064731890859548e-05,1.8043698219116777e-05,5.382132076192647e-05
-2.983552622026764e-05,6.92967078066431e-05,2.186418350902386e-05,3.051595194847323e-05,5.224704000283964e-05
-5.220368257141672e-05,8.34571328596212e-05,2.7166568543179892e-05,4.7457007894990966e-05,5.073312422609888e-05
-5.9964168031001464e-05,8.507727034157142e-05,2.9668588467757218e-05,6.402970757335424e-05,5.159599822945893e-05
-4.922306470689364e-05,7.463517977157608e-05,2.500236041669268e-05,6.394497904693708e-05,5.556479300139472e-05
-3.526542423060164e-05,5.043884812039323e-05,1.4776194802834652e-05,3.619355265982449e-05,6.0121365095255896e-05
-2.7346433853381313e-05,2.014392703131307e-05,7.190864380390849e-06,1.3126026487952913e-06,6.0479011153802276e-05
-1.0871744962059893e-05,1.0346525414206553e-05,7.800927050993778e-06,-1.569885171193164e-05,6.0875448980368674e-05
2.3027032511890866e-05,1.8068334611598402e-05,9.595883057045285e-06,-1.806065483833663e-05,6.601055792998523e-05
5.4543626902159303e-05,1.499443533248268e-05,1.3871195960746263e-06,-2.854781996575184e-05,6.885221955599263e-05
6.665231921942905e-05,4.501403509493684e-06,-1.2749720553983934e-05,-5.405042611528188e-05,6.376207602443174e-05
6.948062218725681e-05,1.1215130143682472e-05,-2.2969657948124222e-05,-8.322443318320438e-05,5.568705091718584e-05
6.596949242521077e-05,2.5494484361843206e-05,-2.7924830646952614e-05,-0.00010455604933667928,4.9926075007533655e-05
4.454950612853281e-05,2.8046455554431304e-05,-2.8534135708468966e-05,-0.00010811158426804468,4.849308243137784e-05
1.1211450328119099e-05,2.155229594791308e-05,-2.2193540644366294e-05,-8.91128511284478e-05,5.125220923218876e-05
-2.9005250326008536e-05,1.5165872355282772e-05,-1.1014101801265497e-05,-5.6911118008429185e-05,5.09598758071661e-05
-6.484831828856841e-05,1.1554160664672963e-05,6.82673953633639e-06,-2.314907032996416e-05,4.555447230814025e-05
-5.753512232331559e-05,9.606183994037565e-06,2.5727735192049295e-05,8.012989383132663e-06,4.458655166672543e-05
-1.2699319086095784e-05,7.867038789299841e-07,3.532519258442335e-05,3.615757668740116e-05,5.063224307377823e-05
2.217674773419276e-05,-1.8596967493067496e-05,4.1578939999453723e-05,6.103484338382259e-05,6.145231600385159e-05
1.8609622202347964e-05,-1.4494243259832729e-05,4.645175067707896e-05,8.167109626810998e-05,6.88147556502372e-05
-1.370001245959429e-05,9.623591722629499e-06,4.3805142922792584e-05,8.320718188770115e-05,6.520652095787227e-05
-5.429766679299064e-05,2.4905213649617508e-05,3.330125400680117e-05,5.790615250589326e-05,5.540039637708105e-05
-9.038793359650299e-05,3.7367030017776415e-05,2.6533518393989652e-05,2.070494338113349e-05,4.9414305976824835e-05
-0.0001075186810339801,5.637186040985398e-05,2.3865135517553426e-05,-6.1702912717009895e-06,4.850696859648451e-05
-0.00010216534428764135,8.066990994848311e-05,2.678055716387462e-05,-1.1571932191145606e-05,5.1165166951250285e-05
-7.049072883091867e-05,0.00010419384489068761,3.0245610105339438e-05,-8.972207069746219e-06,5.58098909095861e-05
-2.90447314910125e-05,0.00011430059385020286,2.7006421078112908e-05,-7.784727131365798e-06,5.80301129957661e-05
2.2952458493818995e-06,0.00010223677236353979,2.007859256991651e-05,-8.209189218177926e-06,5.885547579964623e-05
6.5793037720141e-06,7.223265856737271e-05,1.318351860390976e-05,-3.21244419865252e-06,5.559000783250667e-05
-1.65245928656077e-05,4.8452562623424456e-05,1.5748370060464367e-05,1.0274332453263924e-05,4.7693552915006876e-05
-5.673357009072788e-05,4.763573451782577e-05,2.7005578886019066e-05,3.275562630733475e-05,4.000544868176803e-05
-9.312230395153165e-05,4.7798155719647184e-05,4.291250297683291e-05,5.378192145144567e-05,3.9527996705146506e-05
-0.00011242672917433083,2.583687637525145e-05,5.185695044929162e-05,5.964330193819478e-05,4.432215791894123e-05
-0.00013094235328026116,-1.619538124941755e-05,4.8700756451580673e-05,4.2465628212084994e-05,4.945870387018658e-05
-0.00015390430053230375,-6.0240588936721906e-05,3.69412409781944e-05,7.6933647505939e-06,5.399131987360306e-05
-0.00015592927229590714,-8.628855721326545e-05,2.5699906473164447e-05,-2.4759516236372292e-05,5.7417255447944626e-05
-0.00011296482261968777,-8.012538455659524e-05,1.7074275092454627e-05,-4.378085213829763e-05,6.073455006117001e-05
-4.511247607297264e-05,-5.434743798105046e-05,8.178823918569833e-06,-5.657864312524907e-05,6.121413025539368e-05
5.179204435989959e-06,-3.124457725789398e-05,-1.1254122682657908e-06,-7.204776193248108e-05,5.9067941037938e-05
1.3485308954841457e-05,1.8402896557745407e-06,-1.0144475709239487e-05,-8.993048686534166e-05,6.149209366412833e-05
-1.1274534017502447e-06,5.132816659170203e-05,-2.239998684672173e-05,-0.00010490405838936567,6.752621266059577e-05
6.123379534983542e-06,0.00010204561840509996,-3.811108763329685e-05,-0.00011125766468467191,6.822987052146345e-05
5.6743847380857915e-05,0.00016941565263550729,-4.6395831304835156e-05,-0.00010740737343439832,6.711745663778856e-05
0.00011473726772237569,0.0002330066345166415,-4.496996552916244e-05,-8.946871821535751e-05,7.091109728207812e-05
0.00013575136836152524,0.0002394854964222759,-3.624622695497237e-05,-6.107472290750593e-05,7.794355042278767e-05
0.00010471419955138117,0.00017833960009738803,-2.6662261007004417e-05,-2.7435260562924668e-05,8.165171311702579e-05
6.626144022447988e-05,9.208064875565469e-05,-2.3825192329240963e-05,-2.1695186660508625e-06,8.262295159511268e-05
5.2302872063592076e-05,3.5277749702800065e-05,-1.623278330953326e-05,1.2629364391614217e-05,8.895897190086544e-05
4.00534481741488e-05,2.2214415366761386e-05,4.870336397289066e-06,2.4436965759377927e-05,9.677791240392253e-05
2.2186686692293733e-05,8.701511433173437e-06,2.703444260987453e-05,2.9439292120514438e-05,9.700350346975029e-05
-8.568597991143179e-07,-4.5902252168161795e-05,4.4881377107230946e-05,2.5547342374920845e-05,8.668140071677044e-05
-3.5430661228019744e-05,-9.083983604796231e-05,5.483636778080836e-05,2.4382623450946994e-05,6.811834464315325e-05
-7.412843115162104e-05,-9.137350571108982e-05,5.417086504166946e-05,3.065858982154168e-05,4.615966463461518e-05
-9.054744441527873e-05,-6.215840403456241e-05,5.208648508414626e-05,4.223910946166143e-05,3.4183762181783095e-05
-7.47409721952863e-05,-1.2693185453827027e-05,5.6017423048615456e-05,6.041604865458794e-05,4.07090010412503e-05
-4.680728670791723e-05,4.5858105295337737e-05,5.956130917184055e-05,7.430875848513097e-05,5.4314787121256813e-05
-2.8114320230088197e-05,9.2207825218793e-05,5.630652958643623e-05,7.329943036893383e-05,6.194232264533639e-05
-1.800150675990153e-05,9.819023398449644e-05,4.6252891479525715e-05,5.7622604799689725e-05,5.932581188972108e-05
-5.4856582210049964e-06,5.2910421800334007e-05,3.0947481718612835e-05,3.445392576395534e-05,5.592504021478817e-05
1.3459047295327764e-05,-8.93934520718176e-06,1.2975920071767177e-05,8.678975973452907e-06,6.016864790581167e-05
3.1891511753201485e-05,-2.5313089281553403e-05,-2.759318022071966e-06,-1.3130116713000461e-05,7.07225626683794e-05
3.679865403682925e-05,1.7845096635937807e-06,-1.3255556041258387e-05,-2.8335334718576632e-05,7.964055112097412e-05
2.2465717847808264e-05,-6.295694220170844e-06,-1.928831625264138e-05,-4.225896191201173e-05,7.962135714478791e-05
-1.2788214007741772e-06,-7.681766874156892e-05,-2.3925222194520757e-05,-5.6709573982516304e-05,7.019539771135896e-05
-1.5458505004062317e-05,-0.00012686577974818647,-2.6651065127225593e-05,-6.400441634468734e-05,6.013681922922842e-05
-1.1582311344682239e-05,-9.54930146690458e-05,-2.4975292035378516e-05,-5.8778048696694896e-05,6.11305731581524e-05
-5.383121333579766e-06,-2.122227306244895e-05,-2.229971687484067e-05,-4.677697870647535e-05,6.918466533534229e-05
-1.4705682588100899e-05,3.263049075030722e-05,-2.2018597519490868e-05,-3.992019628640264e-05,7.253368676174432e-05
-4.124045153730549e-05,4.3540963815758005e-05,-2.015766585827805e-05,-4.290031210985035e-05,6.999105971772224e-05
-8.037373481784016e-05,2.3735798095003702e-05,-1.7482358089182526e-05,-4.7854493459453806e-05,6.235976616153494e-05
-0.00011108332546427846,1.1193809768883511e-05,-1.5031771908979863e-05,-4.8572313971817493e-05,5.141347355674952e-05
-0.00010302924056304619,1.814200368244201e-05,-1.298970073548844e-05,-4.5644126657862216e-05,4.539887231658213e-05
-7.859739707782865e-05,-1.0193145953962812e-06,-1.8919632566394284e-05,-4.7916666517267004e-05,4.58184331364464e-05
-8.631467062514275e-05,-5.157418854651041e-05,-2.719545955187641e-05,-5.45689654245507e-05,4.6972698328318074e-05
-0.00011638877185760066,-5.087592944619246e-05,-2.7605647119344212e-05,-5.0721933803288266e-05,4.431852721609175e-05
-0.0001384051429340616,1.5153234016906936e-05,-2.1273443053360097e-05,-4.093891038792208e-05,4.229719706927426e-05
-0.00014002926764078438,7.794508564984426e-05,-1.6685738955857232e-05,-3.824389204964973e-05,4.512910163612105e-05
-0.0001273389207199216,0.00012124892964493483,-1.6166826753760688e-05,-3.8201742427190766e-05,5.133395461598411e-05
-0.0001121812965720892,0.00014163229207042605,-1.8082715541822836e-05,-3.7773821532027796e-05,5.5529773817397654e-05
-8.828406862448901e-05,0.00013226197916083038,-2.148201565432828e-05,-4.252948929206468e-05,5.550657442654483e-05
-5.544111263589002e-05,0.00011004032421624288,-2.2492080461233854e-05,-4.7681682190159336e-05,5.8483488828642294e-05
-1.490069098508684e-05,8.931597403716296e-05,-2.0187673726468347e-05,-4.550765879685059e-05,6.366544403135777e-05
1.5843765140743926e-05,6.774995563318953e-05,-1.906468787638005e-05,-5.00517307955306e-05,6.63617902318947e-05
1.5537880244664848e-05,4.856202576775104e-05,-2.8098484108340926e-05,-9.052293899003416e-05,6.375549855874851e-05
-1.2275848348508589e-05,3.690147423185408e-05,-4.928554699290544e-05,-0.00015628272376488894,5.8106266806134954e-05
-4.153954068897292e-05,-1.5644922086721635e-06,-7.122405077097937e-05,-0.000199279427761212,5.560930731007829e-05
-4.203812204650603e-05,-8.478302333969623e-05,-7.772063690936193e-05,-0.00019449510728009045,5.745617454522289e-05
-7.584024842799408e-06,-0.00015290823648683727,-6.904658948769793e-05,-0.00015333479677792639,6.518601003335789e-05
3.795261727645993e-05,-0.00014973570068832487,-5.452679397421889e-05,-9.656792099121958e-05,7.645144069101661e-05
6.551023398060352e-05,-9.937169670592993e-05,-3.544097489793785e-05,-2.9213086236268282e-05,8.255918510258198e-05
6.942843901924789e-05,-5.584771133726463e-05,-1.327898098679725e-05,4.588704905472696e-05,8.141591388266534e-05
5.5938366131158546e-05,-2.9504726626328193e-05,9.371250598633196e-06,0.00011605369945755228,8.036520011955872e-05
3.266773637733422e-05,1.023490426632634e-06,3.3994489058386534e-05,0.0001687853946350515,8.008766599232331e-05
7.429686775139999e-06,4.433222784427926e-05,6.0260543250478804e-05,0.00019848078954964876,7.368767546722665e-05
-1.1889684174093418e-05,8.29731288831681e-05,8.339565829373896e-05,0.00019516026077326387,6.17240511928685e-05
-2.066712659143377e-05,9.670204599387944e-05,0.00010046089300885797,0.0001569268060848117,5.220758976065554e-05
-1.3723155461775605e-05,7.175991049734876e-05,0.00010905581439146772,0.00011221726890653372,4.701380748883821e-05
6.42094892100431e-06,1.1292135241092183e-05,0.00010530707368161529,8.577504195272923e-05,4.293222809792496e-05
3.067128636757843e-05,-4.4309279473964125e-05,8.865226118359715e-05,7.173898484325036e-05,4.0515573346056044e-05
4.134896516916342e-05,-6.397928518708795e-05,5.7931290939450264e-05,3.5884462704416364e-05,4.3282365368213505e-05
3.2060183002613485e-05,-3.0446732125710696e-05,1.7151218344224617e-05,-2.809173929563258e-05,5.0037553592119366e-05
1.3686235433851834e-05,3.0366136343218386e-05,-1.823176171455998e-05,-7.888162508606911e-05,5.66361122764647e-05
-6.201980795594864e-06,7.049293344607577e-05,-3.4432017855579033e-05,-9.901867451844737e-05,6.117334123700857e-05
-2.104354280163534e-05,8.568082557758316e-05,-2.7959627914242446e-05,-9.224360837833956e-05,6.334210775094107e-05
-3.147633105982095e-05,6.958152516745031e-05,-9.41410780797014e-06,-6.874747487017885e-05,6.265113188419491e-05
-3.999579348601401e-05,1.8837925381376408e-05,7.254980573634384e-06,-3.9309914427576587e-05,6.019771171850152e-05
-5.208184302318841e-05,-2.7065432732342742e-05,9.922437129716855e-06,-1.3501019566319883e-05,5.400120062404312e-05
-7.274899689946324e-05,-2.52450136031257e-05,1.325346715930209e-06,6.797708920203149e-06,4.664922380470671e-05
-9.112001862376928e-05,1.2271952073206194e-05,-5.644924954140151e-07,3.146563176414929e-05,4.5234170102048665e-05
-9.031184163177386e-05,5.816075281472877e-05,1.3943150406703353e-05,5.915291330893524e-05,5.0798429583664984e-05
-7.106569682946429e-05,0.0001052078150678426,3.549354005372152e-05,8.046297443797812e-05,5.788027556263842e-05
-4.293272286304273e-05,0.00014266057405620813,5.406706623034552e-05,9.145912918029353e-05,6.221437797648832e-05
-2.0998786567361094e-05,0.00015121817705221474,6.765859143342823e-05,9.773589408723637e-05,6.108797242632136e-05
-1.9853358026011847e-05,0.00013416219735518098,7.437964086420834e-05,0.00010773173562483862,5.2961586334276944e-05
-3.3688742405502126e-05,9.456049156142399e-05,7.161966641433537e-05,0.00012228982814121991,4.394738789414987e-05
-4.452729262993671e-05,3.233303868910298e-05,6.136771844467148e-05,0.00012443814193829894,4.266592441126704e-05
-3.902671596733853e-05,-2.195993329223711e-05,4.901684951619245e-05,0.00010445529187563807,4.948284913552925e-05
-1.657283428357914e-05,-3.523035047692247e-05,4.172700937488116e-05,7.76814777054824e-05,5.614238398266025e-05
6.304906492005102e-06,-8.679523489263374e-06,4.152620749664493e-05,5.87253671255894e-05,5.563884406001307e-05
1.2035729014314711e-05,3.621494397521019e-05,3.622503936639987e-05,3.831285721389577e-05,4.7564735723426566e-05
7.75797525420785e-06,7.849019311834127e-05,1.7838012354332022e-05,5.4345259741239715e-06,3.877258859574795e-05
6.295239472819958e-06,0.00011058282689191401,-5.8358186834084336e-06,-3.236010525142774e-05,3.76199786842335e-05
7.137589363992447e-06,0.00012832399806939065,-1.797135337255895e-05,-5.8016878028865904e-05,4.6183529775589705e-05
9.112390216614585e-06,0.00010811589163495228,-1.632701423659455e-05,-6.785835284972563e-05,5.878716547158547e-05
9.565202162775677e-06,5.5748994782334194e-05,-1.717436680337414e-05,-7.077486225171015e-05,6.900161679368466e-05
-9.55418499870575e-08,1.5789806639077142e-05,-2.5498269678791985e-05,-7.618025119882077e-05,6.866430339869112e-05
-1.188304213428637e-05,1.213338350680715e-06,-3.739038947969675e-05,-9.01037419680506e-05,6.224749085959047e-05
-1.785498534445651e-05,-9.804208275454585e-06,-4.599754902301356e-05,-0.00010318036220269278,5.7770084822550416e-05
-2.7267496989225037e-05,-3.142418063362129e-05,-4.446729872142896e-05,-0.00010357796418247744,5.565382161876187e-05
-3.6693705624202266e-05,-6.392879004124552e-05,-3.83666338166222e-05,-8.660362800583243e-05,5.2256778872106224e-05
-3.21624793286901e-05,-8.392525342060253e-05,-3.061881579924375e-05,-5.508083995664492e-05,5.2265346312196925e-05
-1.3910362213209737e-05,-7.767089118715376e-05,-2.5052588171092793e-05,-2.8979480703128502e-05,5.696104926755652e-05
-4.2021219996968284e-06,-4.568180884234607e-05,-2.3063961634761654e-05,-1.866071397671476e-05,5.5864740716060624e-05
-1.6544148820685223e-05,9.721004971652292e-06,-2.369107460253872e-05,-1.734439683787059e-05,5.1935057854279876e-05
-3.2267733331536874e-05,6.019240026944317e-05,-2.1208768885117024e-05,-1.2831415915570688e-05,5.0467264372855425e-05
-4.00255921704229e-05,7.038603507680818e-05,-1.2724888620141428e-05,-3.625960971476161e-06,5.016777868149802e-05
-5.0015161832561716e-05,4.2654148273868486e-05,-6.107307854108512e-06,-2.8980446131754434e-06,4.49406543339137e-05
-7.400495815090835e-05,2.9244338293210603e-05,-4.017714218207402e-06,-1.198111567646265e-05,3.632977677625604e-05
-0.00010763030149973929,7.479629130102694e-05,-2.100355004586163e-06,-2.1195990484557115e-05,3.389487028471194e-05
-0.00013075806782580912,0.0001437382452422753,2.664208068381413e-06,-2.3475427951780148e-05,4.102186721866019e-05
-0.0001280793221667409,0.00018601251940708607,7.834148163965438e-06,-1.979841363208834e-05,5.243236955720931e-05
-0.00010501956421649083,0.00019334146054461598,9.692545063444413e-06,-1.6937538021011278e-05,6.0350808780640364e-05
-7.915044989204034e-05,0.000174335393239744,6.740883236489026e-06,-1.7332504285150208e-05,6.384210428223014e-05
-5.7041321269935e-05,0.0001419880281900987,-1.2471901982280542e-06,-1.8630225895321928e-05,6.139895413070917e-05
-3.280470264144242e-05,0.00011244643246755004,-1.2449435416783672e-05,-2.094680894515477e-05,5.248872548690997e-05
-2.5931828986358596e-06,8.629400690551847e-05,-1.9153991161147133e-05,-2.3824835807317868e-05,4.3295160139678046e-05
2.085186497424729e-05,5.566198888118379e-05,-1.3180362657294609e-05,-2.7168985980097204e-05,4.170030661043711e-05
1.9924907974200323e-05,2.9719469239353202e-05,1.6833715790198767e-06,-2.4091430532280356e-05,4.985721898265183e-05
-2.7647381557471817e-06,1.204396176035516e-05,9.014338502311148e-06,-1.350742059003096e-05,6.153736467240378e-05
-1.8036751498584636e-05,-6.395543096004985e-06,2.1571054276137147e-06,-1.2031888218189124e-05,6.943855987628922e-05
3.077934422890394e-07,-2.2764847017242573e-05,-6.094767741160467e-06,-2.4277291231555864e-05,7.170747267082334e-05
4.7415203880518675e-05,-2.4221781131927855e-05,-8.159679964592215e-06,-3.29171416524332e-05,7.325584738282487e-05
7.344378536799923e-05,-1.63327331392793e-05,-1.1084780453529675e-05,-3.0391276595764793e-05,7.747891504550353e-05
4.13487505284138e-05,5.130585577717284e-06,-1.5142012671276461e-05,-2.426816354272887e-05,7.765695045236498e-05
-1.8611361156217754e-05,1.9869927200488746e-05,-1.8736209312919527e-05,-2.18089553527534e-05,6.908692739671096e-05
-6.126475636847317e-05,1.4543083125317935e-05,-1.7213951650774106e-05,-2.1900214051129296e-05,5.670704194926657e-05
-7.060982898110524e-05,8.930002877605148e-06,-1.0637278137437534e-05,-2.099127414112445e-05,4.990606612409465e-05
-5.7931214541895315e-05,1.325283847108949e-05,-3.499522790662013e-06,-1.9056991732213646e-05,5.582396624959074e-05
-2.603368011477869e-05,1.8580596588435583e-05,3.1756540010974277e-06,-1.6437725207651965e-05,6.618977204198018e-05
2.2291756977210753e-05,1.3438717360259034e-05,6.833911811554572e-06,-1.7047028450178914e-05,7.13101981091313e-05
5.525425876840018e-05,1.5163468560785986e-05,8.230380444729235e-06,-2.1810685211676173e-05,7.259384437929839e-05
5.327340477379039e-05,2.2281052224570885e-05,8.764638550928794e-06,-2.4196850063162856e-05,7.248410111060366e-05
1.9901328414562158e-05,2.4277855118270963e-05,9.882306585495826e-06,-2.194758053519763e-05,7.13459012331441e-05
-2.6708905352279544e-05,3.0114468245301396e-05,1.0953332093777135e-05,-1.9363824321771972e-05,7.120093505363911e-05
-6.484465848188847e-05,4.1687391785671934e-05,1.2451459951989818e-05,-2.4228276743087918e-05,7.423776696668938e-05
-8.740863995626569e-05,4.051414362038486e-05,1.3445011973090004e-05,-3.897953865816817e-05,7.980834197951481e-05
-9.285031410399824e-05,2.615550511109177e-05,1.2666784641623963e-05,-5.3230567573336884e-05,8.408418216276914e-05
-7.836039003450423e-05,2.1840538465767168e-05,1.2605447409441695e-05,-5.727358075091615e-05,8.463756239507347e-05
-4.668892142944969e-05,4.7227906179614365e-05,1.2429854905349202e-05,-4.919098864775151e-05,8.125128078972921e-05
-1.0063879926747177e-05,9.406003664480522e-05,8.08961340226233e-06,-3.84937557100784e-05,7.400465983664617e-05
2.2516807803185657e-05,0.00013005267828702927,2.742241122177802e-06,-3.3881256968015805e-05,6.424269668059424e-05
4.607305163517594e-05,0.00013482850044965744,2.6316529329051264e-06,-2.5579291104804724e-05,6.012151425238699e-05
5.920329931541346e-05,0.00011855239426949993,8.438650183961727e-06,-1.918540647238842e-06,6.560472684213892e-05
6.728951848344877e-05,9.478701394982636e-05,1.6897636669455096e-05,2.6560393962427042e-05,7.060107600409538e-05
7.726263720542192e-05,6.265610863920301e-05,2.6580002668197267e-05,4.181604163022712e-05,6.790261977585033e-05
8.060735126491636e-05,2.910202238126658e-05,3.3842003176687285e-05,3.888163701049052e-05,6.505552300950512e-05
6.13025767961517e-05,-3.984496572684293e-07,3.2218471460510045e-05,2.538779517635703e-05,6.661647785222158e-05
5.45732245882391e-06,-1.6549280189792626e-05,2.270510231028311e-05,1.2217774383316282e-05,6.605143425986171e-05
-6.999484321568161e-05,-2.416834104224108e-05,1.314214568992611e-05,7.672630317756557e-07,6.0755024605896324e-05
-0.0001064789539668709,-3.7575278838630766e-05,1.1487918527564034e-05,-6.577822659892263e-06,5.671368489856832e-05
-0.00011670816456899047,-5.446635259431787e-05,1.6567790225963108e-05,-9.420928108738735e-06,5.5599008192075416e-05
-0.00013853666314389557,-5.679276364389807e-05,1.6481872080476023e-05,-8.059682841121685e-06,5.355674875318073e-05
-0.00014546161401085556,-4.978123979526572e-05,1.1514877769513987e-05,-2.1240118712739786e-06,4.930482100462541e-05
-0.00013183814007788897,-5.6322143791476265e-05,8.744556907913648e-06,-3.6639169138652505e-06,4.7131925384746864e-05
-0.00011979528790106997,-6.629231938859448e-05,1.0019623005064204e-05,-1.1331920177326538e-05,5.274263821775094e-05
-0.00012240825162734836,-5.658242298522964e-05,1.1984109733020887e-05,-1.2176238669781014e-05,6.059736551833339e-05
-0.00013205426512286067,-3.194354212610051e-05,9.213797966367565e-06,-1.0861435839615297e-05,6.485928315669298e-05
-0.00013446930097416043,-2.6530329705565237e-05,6.074566954339389e-06,-1.727874951029662e-05,6.454033427871764e-05
-0.00012002549919998273,-3.91497160308063e-05,5.314632289810106e-06,-2.442110599076841e-05,6.470079824794084e-05
-8.940356929088011e-05,-3.126937372144312e-05,6.431040219467832e-06,-2.3452825189451687e-05,6.807145109632984e-05
-6.515176937682554e-05,-6.25067696091719e-06,5.526726454263553e-06,-1.7728452803567052e-05,7.079888018779457e-05
-6.389570626197383e-05,-1.1502889719849918e-05,2.532256303311442e-06,-1.5942632671794854e-05,6.669980211881921e-05
-6.658956408500671e-05,-4.4542397517943755e-05,-1.3590045000455575e-06,-1.6191284885280766e-05,5.9634105127770454e-05
-4.5710061385761946e-05,-5.612153836409561e-05,-2.0606330508599058e-06,-1.405226157658035e-05,5.9179390518693253e-05
-6.1235809880599845e-06,-3.5398923500906676e-05,-2.8682989068329334e-06,-1.3040124940744136e-05,6.380517152138054e-05
2.5678682504803874e-05,6.9061684371263254e-06,-5.254035386315081e-06,-1.265853461518418e-05,6.738452066201717e-05
3.35943404934369e-05,6.930442032171413e-05,-1.4858877648293856e-06,-6.3119268816080876e-06,6.896436389070004e-05
3.093908162554726e-05,0.00012848532060161233,1.0061676221084781e-05,7.64512242312776e-06,6.890983786433935e-05
2.931811468442902e-05,0.00014953732897993177,2.0919354938087054e-05,1.7344362277071923e-05,6.578884494956583e-05
1.7408774510840885e-05,0.00013204447168391198,2.354857679165434e-05,1.1320735211484134e-05,5.944567601545714e-05
-1.6825017155497335e-05,0.00010139251389773563,1.748642898746766e-05,-2.929020411102101e-06,5.194915138417855e-05
-6.295314233284444e-05,8.943722787080333e-05,7.862607162678614e-06,-8.449875167571008e-06,5.020298340241425e-05
-9.589342516846955e-05,9.520845196675509e-05,5.404495823313482e-06,-5.973844963591546e-06,5.5817490647314116e-05
-9.391919593326747e-05,8.399104990530759e-05,7.58754458729527e-06,-5.734399564971682e-06,6.122632476035506e-05
-6.273266626521945e-05,4.914532109978609e-05,8.198349860322196e-06,-7.796777026669588e-06,6.039367872290313e-05
-3.6187168007018045e-05,1.218966099258978e-05,5.266087100608274e-06,-8.569290912419092e-06,5.5392061767634004e-05
-2.9757597076240927e-05,-2.0446765120141208e-05,4.22109815190197e-06,-7.92351238487754e-06,5.227344809100032e-05
-2.6538895326666534e-05,-4.4707405322697014e-05,1.079640605894383e-05,-5.831672751810402e-06,5.704005161533132e-05
-5.628010057989741e-06,-4.758025170303881e-05,2.1409912733361125e-05,-2.829449840646703e-06,6.635627505602315e-05
2.7023277652915567e-05,-5.016945215174928e-05,2.6207335395156406e-05,-1.8072062175633619e-06,7.125655974959955e-05
3.354536966071464e-05,-6.234686588868499e-05,2.4193608624045737e-05,-1.694353613856947e-06,6.912639219081029e-05
-3.2911512448663416e-07,-5.9215639339527115e-05,2.153102650481742e-05,-1.521373320656494e-07,6.508363003376871e-05
-4.7599925892427564e-05,-3.634421591414139e-05,2.3038743165670894e-05,-9.90449848359276e-07,6.207468686625361e-05
-7.46278528822586e-05,-7.771981472615153e-06,2.4465958631481044e-05,-5.2052537284907885e-06,6.226863479241729e-05
-7.707362965447828e-05,2.8030481189489365e-05,1.9923456420656294e-05,-1.3296348697622307e-05,6.525446224259213e-05
-6.774805660825223e-05,7.994074985617772e-05,1.0715243661252316e-05,-2.1367854060372338e-05,6.472429959103465e-05
-5.8796125813387334e-05,0.0001370740938000381,2.6454761155036977e-06,-2.2923895812709816e-05,5.9813868574565277e-05
-5.884194251848385e-05,0.0001738950959406793,-1.2857691444878583e-06,-1.932785744429566e-05,5.879793388885446e-05
-5.1703940698644146e-05,0.0001756790152285248,-1.8824624703484005e-06,-1.575476380821783e-05,6.088442387408577e-05
-3.217231642338447e-05,0.00015099892334546894,-1.4487231965176761e-06,-1.0718672456278e-05,5.943744326941669e-05
-3.6692704270535614e-06,0.00011391629232093692,-1.280958940697019e-06,-4.50142670160858e-06,5.6418914027744904e-05
3.1004987249616534e-05,7.492252188967541e-05,-1.601826284058916e-06,-1.8187981822848087e-06,5.4324806114891544e-05
7.147863652789965e-05,4.117980643059127e-05,-6.2065751080808695e-06,-4.1815865188254975e-06,5.36935476702638e-05
0.00011099402763647959,1.7067501175915822e-05,-1.2604658877535257e-05,-9.093141670746263e-06,5.3740135626867414e-05
0.0001341963215963915,-6.752750323357759e-07,-1.495052856625989e-05,-1.5354704373748973e-05,5.378410060075112e-05
0.00012798712123185396,-1.3808671610604506e-05,-1.2561827134049963e-05,-2.2902549972059205e-05,5.4355165048036724e-05
9.194304584525526e-05,-1.7337493773084134e-05,-9.690731531009078e-06,-2.4876737370504998e-05,5.429615339380689e-05
4.6261411625891924e-05,-6.594412752747303e-06,-1.0132851457456127e-05,-2.1456093236338347e-05,5.171989687369205e-05
1.4996110621723346e-05,1.4456341887125745e-05,-1.2385596164676826e-05,-2.0280333046684973e-05,4.7798715968383476e-05
2.1822495455126045e-06,2.827465141308494e-05,-1.2453619092411827e-05,-2.472376036166679e-05,4.5715893065789714e-05
-3.4799970762833254e-06,3.6045003071194515e-05,-1.2518117728177458e-05,-2.5651108444435522e-05,4.80679955217056e-05
-6.108408342697658e-06,5.1212664402555674e-05,-1.2871510080003645e-05,-2.3385500753647648e-05,5.021508695790544e-05
-1.0967763955704868e-05,6.527475488837808e-05,-8.610092663730029e-06,-2.3349861294263974e-05,4.934987737215124e-05
-1.7086878870031796e-05,6.810475315432996e-05,-1.9746125872188713e-06,-2.020676947722677e-05,4.716565308626741e-05
-1.7494417988928035e-05,6.441435834858567e-05,1.4518634543492226e-06,-1.8881306459661573e-05,4.283179805497639e-05
-1.6796109775896184e-05,5.4454409109894186e-05,7.585919092889526e-07,-1.6314981621690094e-05,3.7701309338444844e-05
-3.388306504348293e-05,4.0219711081590503e-05,1.630070300961961e-06,-8.719942343304865e-06,3.919555456377566e-05
-6.893069803481922e-05,3.5871664294973016e-05,4.586698651110055e-06,-1.3135721701473813e-06,4.166903818259016e-05
-0.0001045835015247576,3.6475539673119783e-05,5.775965291832108e-06,3.779426606342895e-06,4.0672210161574185e-05
-0.00012924913608003408,3.647959601948969e-05,9.431782928004395e-06,-1.3401765954768052e-06,3.791294147958979e-05
-0.0001386793883284554,4.0983770304592326e-05,1.0066000868391711e-05,-1.2699618309852667e-05,3.554500290192664e-05
-0.00013395056885201484,4.3197189370403066e-05,1.9283891106169904e-06,-2.5533210646244697e-05,3.519223173498176e-05
-0.00011399363575037569,3.938914233003743e-05,-1.1942634046135936e-05,-3.7516412703553215e-05,3.392176586203277e-05
-8.07142278063111e-05,3.728581214090809e-05,-2.0583993318723515e-05,-4.079716018168256e-05,3.828629633062519e-05
-5.006409628549591e-05,3.724415728356689e-05,-2.1704348910134286e-05,-3.5089877201244235e-05,4.647178138839081e-05
-3.833216760540381e-05,3.3827767765615135e-05,-1.7275226127821952e-05,-2.3141710698837414e-05,5.216177669353783e-05
-4.425354563863948e-05,3.742938133655116e-05,-1.1039156561309937e-05,-5.887771294510458e-06,5.269817484077066e-05
-5.722074638470076e-05,4.504507887759246e-05,-8.40521988720866e-06,9.6921276053763e-06,5.1451072067720816e-05
-6.608429976040497e-05,3.4213371691294014e-05,-8.302969945361838e-06,1.833504757087212e-05,5.0148773880209774e-05
-6.041195592842996e-05,-5.364880053093657e-06,-9.09055961528793e-06,2.2147058189148083e-05,5.087620229460299e-05
-3.831083085970022e-05,-5.0144695705967024e-05,-3.2033724437496858e-06,2.6584802981233224e-05,5.679682726622559e-05
-9.816361853154376e-06,-6.2740953580942e-05,1.1446192729636095e-05,3.527554144966416e-05,6.70853623887524e-05
7.442777132382616e-06,-3.813931471086107e-05,2.4804952772683464e-05,4.0678212826605886e-05,7.480103522539139e-05
7.011505203990964e-06,-1.0148087312700227e-05,2.4980237867566757e-05,3.1137329642660916e-05,7.145277049858123e-05
-2.6349771360401064e-06,5.145008344697999e-06,1.6683392459526658e-05,1.4125606867310125e-05,6.441564619308338e-05
-7.059004929033108e-06,1.6206067812163383e-05,1.1749060831789393e-05,3.894860128639266e-06,6.140341429272667e-05
3.637100007836125e-07,2.199084519816097e-05,9.777868399396539e-06,-6.30076954166725e-07,5.8842470025410876e-05
6.805042630730895e-06,1.6837149814818986e-05,7.6119536061014514e-06,-4.594625806930708e-06,5.9456637245602906e-05
5.804624834127026e-06,3.303467110526981e-06,8.18682019598782e-06,-8.785748832451645e-06,6.462076999014243e-05
7.436475243594032e-06,-1.1213685866096057e-05,1.1375796930224169e-05,-7.903409823484253e-06,6.607792602153495e-05
1.0461235433467664e-05,-2.124747152265627e-05,1.4236788956623059e-05,-1.9503406747389818e-06,6.400112761184573e-05
8.06267598818522e-06,-2.571395452832803e-05,1.5435229215654545e-05,8.96336359801353e-07,6.158273754408583e-05
-3.099839602782595e-07,-3.404178278287873e-05,1.6049856640165672e-05,-1.4508209460473154e-06,6.186156679177657e-05
-7.0144760684343055e-06,-1.4411823030968662e-05,1.2378191058814991e-05,-1.7908207610162208e-06,6.228148413356394e-05
-3.968581950175576e-06,3.693064354592934e-05,6.385073902492877e-06,-3.024819079655572e-07,5.583343227044679e-05
1.7093944961743546e-06,7.385892968159169e-05,2.4986235303003923e-07,1.7794650375435594e-06,4.779152732226066e-05
-1.6714603816581075e-06,8.744950173422694e-05,-2.8466415642469656e-06,4.832356353290379e-06,4.411146801430732e-05
-1.2315987078181934e-05,8.096484816633165e-05,-4.45296473117196e-06,6.274428869801341e-06,4.317751881899312e-05
-1.495222113589989e-05,6.702887185383588e-05,-4.754837846121518e-06,3.984174327342771e-06,4.553694088826887e-05
-1.0204405953118112e-05,6.223175296327099e-05,-3.4791219150065444e-07,-9.73964446870923e-08,5.079766197013669e-05
-3.387427796042175e-06,7.182553963502869e-05,7.675658707739785e-06,-2.4980599846458063e-06,5.434979539131746e-05
3.0739688554604072e-06,8.903376874513924e-05,1.380879166390514e-05,-5.557074928219663e-06,5.531919305212796e-05
9.46175191529619e-07,0.0001073857129085809,1.1217915925954003e-05,-1.0204944373981562e-05,5.652810796163976e-05
-2.02442843146855e-05,0.00012746980064548552,5.042358225182397e-06,-1.3683424185728654e-05,5.505192166310735e-05
-5.766813046648167e-05,0.00013838388258591294,2.992736199303181e-06,-1.75044551724568e-05,5.3275023674359545e-05
-8.285578223876655e-05,0.00012188376422272995,8.421755410381593e-06,-2.3480150048271753e-05,5.4671654652338475e-05
-7.073724555084482e-05,8.835817425278947e-05,1.6065499949036166e-05,-2.7518159186001867e-05,6.046185808372684e-05
-3.7129022530280054e-05,6.966619548620656e-05,1.878807415778283e-05,-2.5070903575397097e-05,6.759343523299322e-05
-1.5284025721484795e-05,7.786353671690449e-05,1.398778931616107e-05,-1.8714294128585607e-05,7.123106479411945e-05
-1.2222125405969564e-05,9.994026913773268e-05,7.3090673140541185e-06,-1.2923090253025293e-05,7.138246292015538e-05
-1.080453148460947e-05,0.00011261976760579273,6.666026820312254e-06,-1.000381053017918e-05,6.871538062114269e-05
7.138872206269298e-06,9.335814684163779e-05,1.3170683814678341e-05,-1.0267171091982163e-05,6.628363189520314e-05
3.827035106951371e-05,4.041937063448131e-05,1.8775106582324952e-05,-1.1001457096426748e-05,6.826097524026409e-05
6.121519254520535e-05,-2.321249121450819e-05,2.09291774808662e-05,-7.154140803322662e-06,7.291750080185011e-05
5.690347825293429e-05,-7.497676415368915e-05,1.990860801015515e-05,-3.069518470510957e-06,7.487221591873094e-05
3.368384568602778e-05,-0.00011259673192398623,1.6862019037944265e-05,-8.382175110455137e-06,7.486010872526094e-05
2.5958903279388323e-05,-0.00014627673954237252,1.2548304766824003e-05,-1.7291013136855327e-05,7.481014472432435e-05
4.228458783472888e-05,-0.0001645279990043491,8.567351869714912e-06,-1.9777051420533098e-05,7.42881529731676e-05
5.2881554438499734e-05,-0.00017685852071736008,5.373882686399156e-06,-2.065064290945884e-05,6.950397073524073e-05
3.51424932887312e-05,-0.0001958179782377556,4.5782286406392814e-08,-2.571141885709949e-05,6.21609651716426e-05
3.498990736261476e-06,-0.00019094490562565625,-1.6005270708774333e-06,-2.8006739739794284e-05,5.4694944992661476e-05
-2.0824729290325195e-05,-0.00013770711666438729,1.7271540855290368e-06,-2.8970001949346624e-05,4.87747929582838e-05
-4.2344337998656556e-05,-6.891526572871953e-05,4.435134542291053e-06,-2.979294367833063e-05,4.7442321374546736e-05
-6.609859701711684e-05,-2.4451990611851215e-05,7.014733455434907e-06,-2.6332201741752215e-05,4.969059591530822e-05
-8.839278598316014e-05,1.5517640349571593e-05,8.280827387352474e-06,-2.205578493885696e-05,5.269675239105709e-05
-0.00010390967509010807,5.852304821019061e-05,4.929632723360555e-06,-2.586108894320205e-05,5.316012175171636e-05
-0.00011316122981952503,8.337723556905985e-05,-4.077834546478698e-06,-3.57813187292777e-05,5.220518869464286e-05
-0.00011590753274504095,9.06944478629157e-05,-1.2531704669527244e-05,-4.222398638376035e-05,5.2630210120696574e-05
-0.00011102890857728198,9.766707080416381e-05,-1.3980919902678579e-05,-4.091996743227355e-05,5.597275958280079e-05
-9.062896424438804e-05,0.0001081908994819969,-9.85139104159316e-06,-3.4060809412039816e-05,6.290722376434132e-05
-5.919885734329e-05,0.00011855929915327579,-6.14924874753342e-06,-2.6037141651613638e-05,7.025031663943082e-05
-3.937400470022112e-05,0.0001300743460888043,-5.479196715896251e-06,-1.9556249753804877e-05,7.137755892472342e-05
-3.8543450500583276e-05,0.0001342650648439303,-2.4910561933211284e-06,-1.698487722023856e-05,6.54515388305299e-05
-4.8259411414619535e-05,0.0001163197957794182,2.7775124635809334e-06,-1.8842396457330324e-05,5.970586062176153e-05
-5.5144995712907985e-05,7.78362518758513e-05,7.205983820313122e-06,-2.2461656044470146e-05,6.0067279264330864e-05
-4.7199675464071333e-05,4.044688103022054e-05,1.0030941666627768e-05,-2.0620522263925523e-05,6.356184894684702e-05
-1.9375400370336138e-05,2.4309410946443677e-05,1.3460277841659263e-05,-1.0228344763163477e-05,6.557905726367608e-05
1.2931797755300067e-05,3.0040951969567686e-05,1.917009831231553e-05,3.968325927417027e-06,6.658943311776966e-05
3.281617318862118e-05,3.717472282005474e-05,2.5456507501075976e-05,1.665779018367175e-05,6.707407010253519e-05
3.7053603591630235e-05,3.282613033661619e-05,2.8733667932101525e-05,2.079425576084759e-05,6.430376379285008e-05
2.832710561051499e-05,3.0297373086796142e-05,2.5962679501390085e-05,1.4714728422404733e-05,5.9424688515719026e-05
9.50374760577688e-06,4.470018029678613e-05,1.9901937776012346e-05,8.727591193746775e-06,6.02976288064383e-05
-1.9397406504140235e-05,6.336653314065188e-05,1.6826135833980516e-05,8.429547051491681e-06,6.600590859306976e-05
-5.8575289585860446e-05,7.17278235242702e-05,1.8464614186086692e-05,1.1831031770270783e-05,6.935592682566494e-05
-8.477462688460946e-05,7.755002297926694e-05,2.4066115656751208e-05,1.5118242117750924e-05,6.773430504836142e-05
-7.593309419462457e-05,9.314170893048868e-05,2.9771852496196516e-05,1.5422352589666843e-05,6.380780541803688e-05
-5.57736711925827e-05,0.00010930081771221012,3.1683899578638375e-05,1.0424827451060992e-05,5.927150778006762e-05
-5.1440129027469084e-05,0.00010873174323933199,2.635836608533282e-05,4.0187660488300025e-06,5.155895632924512e-05
-6.306623254204169e-05,9.079129085876048e-05,1.5954810805851594e-05,-4.213154625176685e-06,4.32326560257934e-05
-7.398750312859192e-05,6.720643432345241e-05,4.367140263639158e-06,-1.590019019204192e-05,3.931830360670574e-05
-6.798531103413552e-05,6.318753730738536e-05,-7.728094715275802e-06,-3.083888805122115e-05,4.2011073674075305e-05
-4.1489285649731755e-05,8.129060006467625e-05,-1.6925718227867037e-05,-3.999524051323533e-05,4.967023050994612e-05
-5.1288802751514595e-06,9.201962529914454e-05,-1.7543476133141667e-05,-3.658894638647325e-05,5.9644637076416984e-05
2.191210114688147e-05,8.432694448856637e-05,-1.2767532098223455e-05,-2.962090184155386e-05,7.092326268320903e-05
3.263670805608854e-05,6.228176061995327e-05,-1.0519205716263968e-05,-2.380780642852187e-05,7.419522444251925e-05
2.6545827495283447e-05,2.542696165619418e-05,-1.2763453014486004e-05,-1.927036646520719e-05,6.939662125660107e-05
1.0724647836468648e-05,-1.567316758155357e-05,-1.5727120626252145e-05,-1.1238666047574952e-05,6.575257430085912e-05
-3.4854974728659727e-06,-4.900966087006964e-05,-1.5261532098520547e-05,1.706293915049173e-06,6.626679532928392e-05
-1.294357207370922e-05,-7.622067641932517e-05,-1.0730689609772526e-05,1.420169064658694e-05,6.581505294889212e-05
-2.255852086818777e-05,-0.00010432720591779798,-4.023604105896084e-06,1.9472370695439167e-05,6.189787382027134e-05
-3.364162694197148e-05,-0.00012562274059746414,3.83106879553452e-07,1.638851063034963e-05,5.834172770846635e-05
-4.369386442704126e-05,-0.00012451820657588542,2.3528230030933628e-06,1.0717865734477527e-05,5.733627040171996e-05
-5.390811929828487e-05,-9.327287989435717e-05,2.34869207815791e-06,4.776531113748206e-06,5.789933493360877e-05
-6.499376468127593e-05,-4.183881537755951e-05,3.210631348338211e-06,-6.327057235466782e-06,5.8520752645563334e-05
-7.324814214371145e-05,9.5770128609729e-06,6.056493020878406e-06,-1.7682168618193828e-05,5.9146288549527526e-05
-7.755531987641007e-05,5.459847307065502e-05,8.870491001289338e-06,-2.3246089767781086e-05,6.048154318705201e-05
-8.002123649930581e-05,9.202045475831255e-05,8.774874913797248e-06,-2.5952060241252184e-05,6.100528844399378e-05
-7.47614903957583e-05,0.00011150154750794172,4.224811164021958e-06,-2.2443367925006896e-05,6.0923543060198426e-05
-5.945927478023805e-05,0.00010860646580113098,-1.1650128044493613e-06,-8.30328372103395e-06,6.361922714859247e-05
-4.103322498849593e-05,9.51338151935488e-05,-3.189566996297799e-06,8.944936780608259e-06,6.708915316266939e-05
-2.7726551707019098e-05,8.598374552093446e-05,2.867859336674883e-07,2.2793472453486174e-05,6.786943413317204e-05
-2.0181902073090896e-05,7.966420525917783e-05,7.85356587584829e-06,2.815163679770194e-05,6.402648432413116e-05
-1.7763743016985245e-05,6.674318865407258e-05,1.2019094356219284e-05,2.073400901281275e-05,6.012095036567189e-05
-2.1132778783794492e-05,5.6631277402630076e-05,1.2963447261427063e-05,1.2099429113732185e-05,5.8622576034395024e-05
-2.3850598154240288e-05,6.282899266807362e-05,1.6894087821128778e-05,6.62215870761429e-06,6.100497193983756e-05
-1.6020556358853355e-05,6.504815974039957e-05,2.0752499040099792e-05,7.533032544415619e-07,6.263203249545768e-05
6.611647222598549e-06,3.959286550525576e-05,1.7212943930644542e-05,-6.952506737434305e-06,6.127030064817518e-05
2.4697979824850336e-05,-5.99278655499802e-06,9.725602467369754e-06,-1.3549332834372763e-05,6.180773925734684e-05
1.6572401364101097e-05,-4.077751509612426e-05,1.0315978897779132e-06,-2.1685351384803653e-05,5.93035074416548e-05
-1.7710222891764715e-05,-2.6246916604577564e-05,-6.0731099438271485e-06,-3.3068896300392225e-05,4.990357410861179e-05
-6.298335938481614e-05,2.5608167561586015e-05,-3.4052686714858282e-06,-3.584580554161221e-05,4.5515811507357284e-05
-8.361136133316904e-05,6.461616430897266e-05,3.5899697650165763e-06,-3.0533519748132676e-05,5.15907522640191e-05
-7.710929639870301e-05,5.1080780394840986e-05,4.2476899579924066e-06,-2.486256016709376e-05,6.0982249124208465e-05
-6.606390525121242e-05,-6.125665549916448e-06,-1.633326149885761e-07,-2.3360402337857522e-05,6.772422784706578e-05
-4.66141318611335e-05,-5.199115548748523e-05,-2.941596676464542e-06,-2.5246530640288256e-05,7.179804379120469e-05
-3.0211679131753044e-06,-5.334316301741637e-05,-2.3985287498362595e-06,-2.7498059353092685e-05,7.378705049632117e-05
6.135638250270858e-05,-2.9622093279613182e-05,1.0076048511109548e-06,-2.606768612167798e-05,7.462906069122255e-05
0.00012261958909220994,-1.1244845154578798e-05,4.2991828195226844e-06,-2.138506170012988e-05,7.668924081372097e-05
0.00015311689639929682,-7.947604899527505e-06,6.506636964331847e-06,-1.790271016943734e-05,7.962015661178157e-05
0.00013439149188343436,-1.9622902982519008e-05,6.8120634750812314e-06,-1.8429696865496226e-05,7.888495019869879e-05
6.779302202630788e-05,-4.180464748060331e-05,3.5189514164812863e-06,-2.109349225065671e-05,7.274013478308916e-05
-2.679295721463859e-05,-6.283150287345052e-05,-3.6080316476727603e-06,-2.2967515178606845e-05,6.324284913716838e-05
-0.00011628846550593153,-6.791391206206754e-05,-7.503962478949688e-06,-2.122466867149342e-05,5.42364978173282e-05
-0.0001656022504903376,-5.0133647164329886e-05,-2.3115021576813888e-06,-1.664301089476794e-05,5.248346133157611e-05
-0.0001562447869218886,-5.1071192501694895e-06,6.7249516177980695e-06,-1.4677812941954471e-05,5.792517549707554e-05
-0.00010431635746499524,5.492709533427842e-05,1.3094474525132682e-05,-1.1865900887642056e-05,6.554723950102925e-05
-4.927275949739851e-05,9.811029303818941e-05,1.5410940250148997e-05,-5.960099315416301e-06,6.647440750384703e-05
-2.073338328045793e-05,0.00010767419735202566,1.5235110367939342e-05,-4.2556243329272547e-07,6.125766958575696e-05
-2.1203166397754103e-05,9.941832831827924e-05,1.623903699510265e-05,2.2331321360979928e-06,5.627919745165855e-05
-4.7983736294554546e-05,8.917223021853715e-05,1.921661532833241e-05,6.1851105783716775e-06,5.472874909173697e-05
-7.684430602239445e-05,7.15067217242904e-05,1.4981448657636065e-05,9.094888810068369e-06,5.581548612099141e-05
-8.021452958928421e-05,3.959681271226145e-05,4.972125225322088e-06,7.0968012551020365e-06,5.914546636631712e-05
-6.792530621169135e-05,3.3131429972854676e-06,2.8240597202966455e-06,6.849444389445125e-07,6.2042563513387e-05
-5.8030724176205695e-05,-2.2529997295350768e-05,5.473019427881809e-06,-3.7853908452234464e-06,6.174699956318364e-05
-4.922768857795745e-05,-3.125309376628138e-05,6.074225893826224e-06,-5.206368768995162e-06,5.804041575174779e-05
-4.308030111133121e-05,-2.3153043002821505e-05,4.4601201807381585e-06,-1.0387053407612257e-05,5.224273263593204e-05
-4.162715413258411e-05,-3.4321124076086562e-06,2.2769083898310782e-06,-1.6249934560619295e-05,4.782151518156752e-05
-3.3902422728715464e-05,1.818925011320971e-05,3.7152165077714017e-06,-2.2321717551676556e-05,4.743358658743091e-05
-1.021199750539381e-05,3.226295666536316e-05,7.458757409040118e-06,-2.4980969101306982e-05,5.001105819246732e-05
2.1631769413943402e-05,3.236369593651034e-05,6.568576282006688e-06,-2.4023562218644656e-05,5.175631304155104e-05
4.185936268186197e-05,2.3835988031351008e-05,3.5374996514292434e-06,-2.0464409317355603e-05,5.0493617891334e-05
4.736481423606165e-05,2.1179217583267018e-05,7.274744348251261e-06,-1.4176496733853128e-05,5.08884149894584e-05
4.5967924961587414e-05,2.183591277571395e-05,1.6456566299893893e-05,-9.583446626493242e-06,5.6662149290787056e-05
3.992721758550033e-05,1.940109723364003e-05,2.358500933041796e-05,-9.440061148779932e-06,5.921059346292168e-05
2.4903194571379572e-05,1.4142367035674397e-05,2.285105802002363e-05,-1.313497887167614e-05,5.5350945331156254e-05
5.893925845157355e-07,8.237177098635584e-06,1.697520747256931e-05,-1.7578026017872617e-05,5.314517693477683e-05
-2.2635311324847862e-05,8.708252607902978e-06,1.2720470294880215e-05,-1.9406923456699587e-05,5.4662523325532675e-05
-2.8933476642123424e-05,2.3621838408871554e-05,1.4228136024030391e-05,-1.587753286003135e-05,5.560516001423821e-05
-1.8504260879126377e-05,4.875881859334186e-05,1.824492574087344e-05,-9.609556400391739e-06,5.375200998969376e-05
-1.0305107025487814e-05,7.132686005206779e-05,2.125386890838854e-05,-6.255301741475705e-06,4.925538451061584e-05
-1.5021673789306078e-05,9.117387526202947e-05,2.1993033442413434e-05,-1.030554631142877e-05,4.4936718040844426e-05
-2.4675196982570924e-05,0.00011545354936970398,2.0995463273720816e-05,-1.4270966858020984e-05,4.5251857955008745e-05
-3.677167842397466e-05,0.00013593061885330826,1.8950433513964526e-05,-1.6212681657634676e-05,4.9886457418324426e-05
-5.613284884020686e-05,0.0001415631122654304,1.245591829501791e-05,-1.72553973243339e-05,5.1161827286705375e-05
-7.238415128085762e-05,0.00013725658936891705,5.692695140169235e-06,-1.6193878764170222e-05,4.794895357917994e-05
-7.574076153105125e-05,0.00013297359691932797,6.649258466495667e-06,-1.4163946616463363e-05,4.3063144403276965e-05
-6.358033715514466e-05,0.0001334770058747381,1.3138165741111152e-05,-1.1422143870731816e-05,4.4852084101876244e-05
-3.00970805255929e-05,0.00012183169747004285,1.5948691725498065e-05,-6.142603069747565e-06,5.3522053349297494e-05
1.0095874131366145e-05,0.00010442377242725343,1.3441303053696174e-05,1.5064538274600636e-06,6.330808537313715e-05
3.290960376034491e-05,9.022356971399859e-05,1.0941053005808499e-05,4.970650593350001e-07,7.021012424957007e-05
3.7725589209003374e-05,6.650527939200401e-05,1.2705648259725422e-05,-7.607604857184924e-06,7.09882951923646e-05
2.892240991059225e-05,3.34622454829514e-05,1.7430109437555075e-05,-1.5528405128861777e-05,7.102399104041979e-05
6.929909886821406e-06,-3.878099960274994e-06,1.5365154467872344e-05,-2.1929070499027148e-05,7.074576569721103e-05
-2.9621416615555063e-05,-2.7800000680144876e-05,7.473339337593643e-06,-2.9775739676551893e-05,6.727501022396609e-05
-6.596059392904863e-05,-3.1310017220675945e-05,-1.096932919608662e-06,-3.9085731259547174e-05,5.7513712818035856e-05
-7.5422169174999e-05,-2.0026776837767102e-05,-8.600903129263315e-06,-4.794057895196602e-05,4.991074456484057e-05
-6.274080806178972e-05,-9.192109246214386e-06,-1.507343040429987e-05,-5.58717038074974e-05,4.951383743900806e-05
-5.316103124641813e-05,-7.948189704620745e-06,-2.4045379177550785e-05,-5.789497299701907e-05,5.2728668379131705e-05
-5.970153142698109e-05,-1.2472982234612573e-05,-3.308817758806981e-05,-4.952759627485648e-05,5.606777631328441e-05
-7.334905239986256e-05,-1.7824728274717927e-05,-3.336264853714965e-05,-3.0120172596070915e-05,6.0319584008539096e-05
-7.730888319201767e-05,-2.34068684221711e-05,-2.1577276129391976e-05,-5.325308393366868e-06,6.690657028229907e-05
-6.376414239639416e-05,-2.7760908778873272e-05,-6.614271569560515e-06,1.5448196791112423e-05,7.108195131877437e-05
-4.780241579283029e-05,-2.888141716539394e-05,4.409710072650341e-06,2.6184859962086193e-05,7.205233123386279e-05
-4.388068919070065e-05,-2.280522858200129e-05,1.4942667803552467e-05,3.1438747100764886e-05,7.228796312119812e-05
-4.7923469537636265e-05,-1.5121513570193201e-06,3.059202936128713e-05,4.301466833567247e-05,7.22357799531892e-05
-5.004979539080523e-05,2.6732663172879256e-05,4.779116716235876e-05,6.543814379256219e-05,6.963797204662114e-05
-4.502099909586832e-05,4.629363684216514e-05,5.9324167523300275e-05,8.226706268033013e-05,6.519533053506166e-05
-4.111111047677696e-05,6.0811977164121345e-05,6.172122084535658e-05,8.034888742258772e-05,5.7414730690652505e-05
-4.48846876679454e-05,8.626378257758915e-05,5.587152554653585e-05,6.37842167634517e-05,4.960367004969157e-05
-5.639324808726087e-05,0.00010628205200191587,4.344827902968973e-05,4.2460571421543136e-05,4.867606548941694e-05
-7.56148510845378e-05,9.336117364000529e-05,2.7931171644013375e-05,2.2572365196538158e-05,5.257484735921025e-05
-9.62770645855926e-05,5.5672764574410394e-05,9.172467798634898e-06,4.143277237744769e-06,5.1025730499532074e-05
-0.00010293516970705241,1.491537841502577e-05,-6.9330321821325924e-06,-1.1355570677551441e-05,4.416531010065228e-05
-7.925759564386681e-05,-1.5064764738781378e-05,-9.25607582757948e-06,-2.0216446500853635e-05,4.348165020928718e-05
-3.6756966437678784e-05,-2.731274980760645e-05,-2.199156824644888e-06,-1.9599217921495438e-05,4.992258982383646e-05
-9.70237761066528e-06,-2.61218174273381e-05,2.041245807049563e-06,-1.4533270586980507e-05,5.322832294041291e-05
-5.589690317719942e-06,-1.8226521206088364e-05,3.6155004181637196e-06,-1.2996045370528009e-05,5.330099520506337e-05
-3.027918182851863e-06,-1.5740622984594665e-05,8.10778874438256e-06,-1.715807411528658e-05,5.4176070989342406e-05
7.300749530259054e-06,-7.778677172609605e-06,1.3916225725552067e-05,-2.2293394067673944e-05,5.861978206667118e-05
1.3945609680376947e-05,2.4467826733598486e-05,1.7638578356127255e-05,-2.5158846256090328e-05,6.24111999059096e-05
1.1230932614125777e-05,6.0271951952017844e-05,1.6794154362287372e-05,-2.4640770789119415e-05,5.746531314798631e-05
3.929118065570947e-06,7.339608418988064e-05,1.2780804354406428e-05,-2.4276025214930996e-05,5.041855183662847e-05
2.8117694910179125e-06,6.634481542278081e-05,9.863489140116144e-06,-2.6361847631051205e-05,5.0612154154805467e-05
1.2883304407296237e-05,5.628920189337805e-05,1.3393610061029904e-05,-2.6399788112030365e-05,5.888674422749318e-05
2.2044518118491396e-05,5.4495878430316225e-05,2.0717454390251078e-05,-2.518962719477713e-05,6.761077383998781e-05
1.7986665625358e-05,5.0408885726938024e-05,2.169837534893304e-05,-2.5112274670391344e-05,7.00805030646734e-05
1.5150134231589618e-06,3.706551797222346e-05,1.6671747289365157e-05,-2.8554743039421737e-05,6.372739881044254e-05
-1.9600642190198414e-05,3.175997335347347e-05,1.1589250789256766e-05,-3.2945168641163036e-05,5.2100829634582624e-05
-3.37627534463536e-05,5.407886055763811e-05,1.1222164175705984e-05,-3.3298598282271996e-05,4.4319222070043907e-05
-3.748367089428939e-05,8.988692570710555e-05,1.6760108337621205e-05,-2.7921754735871218e-05,4.807474397239275e-05
-3.4185213735327125e-05,0.00010315897088730708,2.113763548550196e-05,-1.9513518054736778e-05,5.870812674402259e-05
-2.4491453586961143e-05,8.319347398355603e-05,1.7159527487820014e-05,-1.3962332559458446e-05,6.579148612217978e-05
-8.992715265776496e-06,4.7379802708746865e-05,1.0416432814963628e-05,-1.2525400052254554e-05,6.666744593530893e-05
5.141200290381676e-06,1.2711106137430761e-05,9.986990335164592e-06,-1.3392688742897008e-05,6.45512918708846e-05
1.2300613889237866e-05,-1.1786092727561481e-05,1.1739041838154662e-05,-1.6020783732528798e-05,6.257263157749549e-05
1.2083977708243765e-05,-2.6556172088021412e-05,7.292747795872856e-06,-1.847746352723334e-05,6.398739787982777e-05
5.756231985287741e-06,-4.3783202272607014e-05,-1.2766486534587784e-08,-1.9972319933003746e-05,6.666626723017544e-05
3.0350709039339563e-06,-5.583374877460301e-05,-1.8519048126108828e-06,-1.7755995941115543e-05,6.627981929341331e-05
1.610067192814313e-05,-4.763096512760967e-05,5.3734611356048845e-06,-9.997876077250112e-06,6.639594357693568e-05
3.608554834499955e-05,-2.2746555259800516e-05,1.1600406651268713e-05,-4.520917627814924e-06,6.746397411916405e-05
4.544330295175314e-05,1.0450426088937093e-05,1.0114132237504236e-05,-5.95202982367482e-06,6.748716259608045e-05
3.83726874133572e-05,4.056923353346065e-05,6.707547981932294e-06,-8.398459613090381e-06,6.41455189906992e-05
1.94621279661078e-05,6.261796806938946e-05,5.847883812748478e-07,-1.2305172276683152e-05,5.901740223634988e-05
-5.8179389270662796e-06,7.763970643281937e-05,-7.040747732389718e-06,-1.5024728782009333e-05,5.8517147408565506e-05
-2.8493210265878588e-05,8.119332778733224e-05,-9.467265044804662e-06,-1.0995234333677217e-05,5.8909168728860095e-05
-2.5669802198535763e-05,7.550408190581948e-05,-4.478185473999474e-06,-6.687827863061102e-06,5.814004907733761e-05
1.3626997485971515e-07,5.635857814922929e-05,-1.7602393427296192e-06,-4.686026841227431e-06,5.4571955843130127e-05
1.9771068764384836e-05,2.9088188966852613e-05,-1.163439037554781e-06,-5.054651410318911e-06,5.1669390813913196e-05
9.729836165206507e-06,1.9000357497134246e-05,1.8849347043214948e-06,-3.941302111343248e-06,5.298383257468231e-05
-1.8012900909525342e-05,2.9207831175881438e-05,4.592158802552149e-06,-4.676045136875473e-06,5.2458799473242834e-05
-3.9887658203952014e-05,3.48961038980633e-05,2.0939583009749185e-06,-9.256144039682113e-06,5.084081567474641e-05
-5.7869947340805084e-05,2.5200586605933495e-05,-4.1829921428870875e-06,-1.569622145325411e-05,4.821557740797289e-05
-8.869016164680943e-05,6.462827059294796e-06,-1.1866812201333232e-05,-2.3205928300740197e-05,4.560266461339779e-05
-0.00012119071470806375,4.411693339534395e-07,-1.918170710268896e-05,-3.060133531107567e-05,4.513385283644311e-05
-0.00012480287114158273,1.6007716112653725e-05,-2.1845535229658708e-05,-3.4734308428596705e-05,4.8318866902263835e-05
-0.00010173513874178752,3.980694600613788e-05,-1.9094430172117427e-05,-3.2454139727633446e-05,5.294082438922487e-05
-7.833029667381197e-05,5.479247192852199e-05,-1.2320844689384103e-05,-2.5464592908974737e-05,5.835731644765474e-05
-7.172943878686056e-05,5.689293539035134e-05,-4.340559826232493e-06,-1.588031227583997e-05,6.192781438585371e-05
-7.339337753364816e-05,5.5618686019442976e-05,-9.765960840013577e-07,-7.4247004704375286e-06,6.100633618189022e-05
-7.085888501023874e-05,5.0061848014593124e-05,-7.83266204962274e-06,-6.26416340310243e-06,5.633423643303104e-05
-6.737608782714233e-05,2.978437623823993e-05,-1.5773966879351065e-05,-1.5191626516752876e-05,5.2273451728979126e-05
-7.276083488250151e-05,2.51448523158615e-06,-1.6773912648204714e-05,-2.1378975361585617e-05,5.3925778047414497e-05
-7.64728247304447e-05,-6.619119631068315e-06,-1.3881691302231047e-05,-1.9557521227397956e-05,6.0573831433430314e-05
-6.45018444629386e-05,6.272221639846975e-07,-1.0891361853282433e-05,-1.657243956287857e-05,6.796100205974653e-05
-4.858443935518153e-05,1.0536839909036644e-05,-1.2167882232461125e-05,-1.5028834241093136e-05,6.884782487759367e-05
-4.564350820146501e-05,2.0177936676191166e-05,-2.0566820239764638e-05,-1.8374999854131602e-05,6.144816870801151e-05
-4.753562461701222e-05,3.166051465086639e-05,-3.131949051748961e-05,-2.2590626031160355e-05,5.362005322240293e-05
-3.2518313673790544e-05,4.136215284233913e-05,-3.3857802918646485e-05,-2.7006388336303644e-05,5.05853931827005e-05
-9.458094609726686e-06,3.833348091575317e-05,-2.8289894544286653e-05,-2.6093695851159282e-05,5.458203304442577e-05
8.704870197107084e-06,2.3421387595590204e-05,-2.1836007363162935e-05,-1.1145342796226032e-05,5.995200262987055e-05
2.1335843484848738e-05,1.1187533345946576e-05,-1.273558518732898e-05,3.389568973943824e-06,5.836539639858529e-05
1.8734837794909254e-05,3.4598426736920374e-06,-5.309506832418265e-06,9.827433132159058e-06,5.461577165988274e-05
8.617384082754143e-06,-5.434444574348163e-06,1.2565730003188946e-06,8.875497769622598e-06,5.092337232781574e-05
1.0711189133871812e-05,-8.981461178336758e-06,6.651433068327606e-06,7.436302439600695e-06,5.1973973313579336e-05
2.178429531340953e-05,4.002158220828278e-06,1.088825683837058e-05,8.316863386426121e-06,5.665143544320017e-05
1.9489796613925137e-05,2.031228541454766e-05,1.5846026144572534e-05,8.145152605720796e-06,6.178177864057943e-05
-2.2411700228985865e-06,3.02044481941266e-05,1.8615002773003653e-05,2.0914651486236835e-06,6.349659088300541e-05
-3.873570676660165e-05,3.518277299008332e-05,1.6977113773464225e-05,-5.517387762665749e-06,6.266433047130704e-05
-7.233860378619283e-05,3.82412072212901e-05,1.4647150237578899e-05,-8.512469321431126e-06,6.248019053600729e-05
-9.227023110724986e-05,4.324073961470276e-05,1.613221684237942e-05,-7.361451025644783e-06,6.273749750107527e-05
-9.891519584925845e-05,4.629281102097593e-05,1.949545185198076e-05,-4.425732186064124e-06,6.103805935708806e-05
-8.487741433782503e-05,3.749760435312055e-05,2.1046782421763055e-05,-2.992585450556362e-06,5.691733895218931e-05
-4.7863413783488795e-05,1.4967232345952652e-05,1.9657383745652623e-05,-5.516620603884803e-06,5.385501208365895e-05
-2.5650108455010923e-06,2.0664652211621615e-08,1.950110890902579e-05,-1.4286446457845159e-05,5.2875075198244303e-05
2.7905271053896286e-05,9.301383215643e-06,1.80586885107914e-05,-2.3718828742858022e-05,5.341721043805592e-05
3.7438992876559496e-05,2.4873048459994607e-05,1.4184896826918703e-05,-2.8271017072256655e-05,5.3139974625082687e-05
2.930261689471081e-05,2.3913669792818837e-05,1.1276300028839614e-05,-2.5535742679494433e-05,5.3299052524380386e-05
1.1189063116034959e-05,1.4573422049579676e-05,1.2425660315784626e-05,-2.104918530676514e-05,5.4805663239676505e-05
-6.345680503727635e-06,1.0447692147863563e-05,1.567762956256047e-05,-1.9103668819298036e-05,5.6209973990917206e-05
-1.7437712813261896e-05,1.269268432224635e-05,1.9647395674837753e-05,-1.7330086848232895e-05,5.7090634072665125e-05
-2.525287345633842e-05,2.5744500817381777e-05,2.3748116291244514e-05,-1.1323721992084756e-05,6.249088619370013e-05
-2.3912616597954184e-05,6.793901411583647e-05,2.7579537345445715e-05,-5.123997198097641e-06,7.25499412510544e-05
-9.787439012143295e-06,0.00013352639507502317,2.9931170502095483e-05,-2.3442230485670734e-06,7.885134982643649e-05
8.708770110388286e-06,0.0001895043533295393,2.8266476874705404e-05,-2.040931349256425e-06,7.767838542349637e-05
6.351649972202722e-06,0.00021751636813860387,2.637659781612456e-05,-4.291154255042784e-06,7.19734889571555e-05
-1.6117368431878276e-05,0.0002039308164967224,2.5251572878914885e-05,-5.871691882930463e-06,6.579078763024881e-05
-2.787310404528398e-05,0.00014264782657846808,1.738702667353209e-05,-6.867490810691379e-06,6.537915032822639e-05
-2.0521199985523708e-05,4.595977588905953e-05,9.709193363960367e-06,-1.1518898645590525e-05,6.656337063759565e-05
-5.947402769379551e-06,-6.391833449015394e-05,6.476440830738284e-06,-1.41112304845592e-05,6.538089655805379e-05
1.1479758654786565e-07,-0.00015896366676315665,5.4936804190219846e-06,-1.2764555322064552e-05,6.27258705208078e-05
-3.302685058770294e-07,-0.0002255563740618527,5.889768999622902e-06,-9.049590516951866e-06,6.339592800941318e-05
1.5385781182430947e-07,-0.00025271173217333853,5.126233190821949e-06,-7.331343113037292e-06,6.834132364019752e-05
5.439507731352933e-06,-0.00023352328571490943,6.746414328517858e-06,-8.33600734040374e-06,7.168107549659908e-05
8.410956070292741e-06,-0.00017710156680550426,9.290782145399135e-06,-6.933837539691012e-06,7.020193879725412e-05
3.372404307810939e-06,-0.00011086118320235983,1.1729020116035827e-05,-3.867535724566551e-06,6.584788934560493e-05
-3.989654487668304e-06,-5.172617602511309e-05,1.140485801442992e-05,-2.967481123050675e-06,6.101707185734995e-05
-9.472936653764918e-06,3.879054929711856e-06,7.95152664068155e-06,-5.367506219045026e-06,5.9505215176614e-05
-1.6533829693798907e-05,6.728711741743609e-05,6.323731213342398e-06,-7.584200830024201e-06,6.390229100361466e-05
-2.7652629796648398e-05,0.00013653462519869208,8.818899004836567e-06,-8.858105502440594e-06,6.818283873144537e-05
-4.113373870495707e-05,0.00018624428776092827,1.149741183326114e-05,-9.972665793611668e-06,6.730206223437563e-05
-5.0475420721340925e-05,0.00019148553838022053,1.1193581485713366e-05,-1.1328974323987495e-05,6.418288830900565e-05
-4.725425606011413e-05,0.00015481817536056042,9.78757998382207e-06,-1.277090996154584e-05,6.053071774658747e-05
-4.118196011404507e-05,0.00010527382255531847,8.312766112794634e-06,-1.5183270988927688e-05,5.5866141337901354e-05
-5.184973997529596e-05,6.471973756561056e-05,7.196427304734243e-06,-1.4304987416835502e-05,5.4895626817597076e-05
-8.09692865004763e-05,4.015122976852581e-05,8.918585990613792e-06,-9.264798791264184e-06,5.4751522839069366e-05
-0.00010566511627985165,3.0929157219361514e-05,8.658927981741726e-06,-6.46834405415575e-06,5.030035390518606e-05
-0.00010364443005528301,3.596048554754816e-05,3.5326540910318727e-06,-8.741129022382665e-06,4.430862099980004e-05
-7.925897079985589e-05,4.5191278331913054e-05,4.089178219146561e-06,-1.2096746104361955e-05,4.454859663383104e-05
-5.169079304323532e-05,4.230843478580937e-05,9.431510989088565e-06,-1.5684679965488613e-05,5.072640851722099e-05
-2.5915223886840977e-05,4.5297427277546376e-05,6.672726613032864e-06,-1.78456448338693e-05,5.595997208729386e-05
-8.952994903665967e-06,6.840199785074219e-05,-3.5408788789936807e-06,-1.8370963516645133e-05,5.7704313803697005e-05
-7.329985578508058e-07,8.172423986252397e-05,-9.08657875697827e-06,-1.8253962480230257e-05,6.064561603125185e-05
6.425643277907511e-06,7.901708886492997e-05,-7.66374978411477e-06,-1.4980480045778677e-05,6.0646732890745625e-05
8.65589845489012e-06,7.795433339197189e-05,-5.880194748897338e-06,-8.523703399987426e-06,5.540856727748178e-05
8.917499144445173e-06,8.105955930659547e-05,-8.235670975409448e-06,4.641986208753224e-07,5.60501248401124e-05
4.2617371036612894e-06,7.060094503685832e-05,-1.3552858945331536e-05,4.344783519627526e-06,5.9787202189909294e-05
-6.004808255966054e-06,4.2990781366825104e-05,-1.9179538867319934e-05,8.134043696372828e-07,5.7847679272526875e-05
-1.660022280702833e-05,2.2102105504018255e-05,-2.086247332044877e-05,-2.4625428522995207e-06,5.401382077252492e-05
-2.7643480279948562e-05,1.806554791983217e-05,-1.4489013665297534e-05,-3.2314630971086444e-06,5.408672586781904e-05
-3.767498128581792e-05,2.2526734028360806e-05,-5.069343387731351e-06,-4.552758127829293e-06,5.907040758756921e-05
-4.650521805160679e-05,3.085698699578643e-05,-2.1052435386081925e-06,-9.715779924590606e-06,6.40853468212299e-05
-4.791599349118769e-05,3.0428836907958612e-05,-5.764359229942784e-06,-1.3588095498562325e-05,6.50516667519696e-05
-4.280244684196077e-05,1.8358892702963203e-05,-8.684919521328993e-06,-1.3214793398219626e-05,6.242677773116156e-05
-3.78730364900548e-05,7.097615252860123e-06,-9.163140020973515e-06,-1.2882951523351949e-05,5.8579280448611826e-05
-3.67778520740103e-05,9.735042112879455e-06,-7.896612260083202e-06,-1.3165200471121352e-05,5.964363299426623e-05
-4.4316409912426025e-05,2.013474477280397e-05,-6.314260645012837e-06,-1.0920808563241735e-05,6.284797564148903e-05
-6.0251397371757776e-05,2.499737274774816e-05,-1.5353122080341564e-06,-8.376468031201512e-06,6.277635111473501e-05
-7.309953798539937e-05,2.280484841321595e-05,5.382475592341507e-06,-6.558819677593419e-06,6.279462832026184e-05
-6.775042857043445e-05,1.2134202734159771e-05,8.378743586945347e-06,-1.7045922504621558e-06,6.426508480217308e-05
-4.0844257455319166e-05,-1.1092228305642493e-05,4.897010967397364e-06,5.579359367402503e-06,6.309642776614055e-05
-6.231054157979088e-06,-4.0757346141617745e-05,-2.225081971118925e-06,1.0565784577920567e-05,5.6332988606300205e-05
1.6726722606108524e-05,-6.266198761295527e-05,-6.613959612877807e-06,1.2139580576331355e-05,4.666100358008407e-05
1.852780405897647e-05,-6.817307439632714e-05,-5.617740498564672e-06,7.108269073796691e-06,3.998325701104477e-05
6.8637959884654265e-06,-5.130525096319616e-05,-4.604585228662472e-06,-7.292005648196209e-06,3.984475915785879e-05
-6.101317353568447e-07,-3.1689003662904724e-05,-8.158371201716363e-06,-1.837604577303864e-05,4.5268894609762356e-05
6.610277068830328e-06,-2.6801160856848583e-05,-1.1553033800737467e-05,-2.0227420463925228e-05,4.845984949497506e-05
2.042078267550096e-05,-2.0502006009337492e-05,-1.374303701595636e-05,-1.9958715711254627e-05,4.294072277843952e-05
2.1466656107804738e-05,4.497577265283326e-06,-1.6268664694507606e-05,-1.874132976809051e-05,3.675807602121495e-05
1.680797322478611e-05,5.0567097787279636e-05,-1.4600067515857518e-05,-1.6503070582984947e-05,3.931841274606995e-05
2.3678987417952158e-05,8.934590732678771e-05,-7.033750989648979e-06,-1.3361526725930162e-05,4.9606707761995494e-05
2.666764339664951e-05,9.149708785116673e-05,-2.043887661784538e-06,-9.721904461912345e-06,5.847227657795884e-05
5.465880803967593e-06,8.306922973133624e-05,-1.4278641629061894e-06,-7.581451427540742e-06,5.960776616120711e-05
-3.433138772379607e-05,8.597448322689161e-05,-1.5579519185848767e-06,-5.88467901252443e-06,6.023584501235746e-05
-6.998967728577554e-05,9.896117990138009e-05,-3.219100790374796e-07,-5.0442322390154e-06,6.171018321765587e-05
-8.519260882167146e-05,0.0001103778849937953,3.6435485526453704e-06,-2.367547494941391e-06,6.029699579812586e-05
-8.316516323247924e-05,0.00011645420454442501,6.88776981405681e-06,-5.674563681168365e-07,6.249857688089833e-05
-6.56076954328455e-05,0.00012133971904404461,6.115777978266124e-06,-4.244242973072687e-06,6.901966116856784e-05
-3.944150739698671e-05,0.00011852352326968685,1.6603496533207363e-06,-1.1518934115883894e-05,6.870471406728029e-05
-1.806091131584253e-05,9.454719111090526e-05,1.3744727311859606e-07,-1.7223481336259283e-05,5.897566370549612e-05
-3.7045288081571925e-06,5.690383477485739e-05,4.192276264802786e-06,-2.0335199224064127e-05,5.211721872910857e-05
9.041341400006786e-06,2.7458927434054203e-05,3.3595335935387993e-06,-2.3910748495836742e-05,5.328752376954071e-05
1.541557503514923e-05,9.731706086313352e-06,-5.294638413033681e-06,-3.082129842368886e-05,5.854467599419877e-05
8.948613867687527e-06,-1.0850655598915182e-05,-1.0600473615340889e-05,-3.746392030734569e-05,6.180374475661665e-05
-7.980521331774071e-06,-3.722427209140733e-05,-8.480731594318058e-06,-3.683046088553965e-05,6.018548083375208e-05
-2.951841634057928e-05,-4.832321792491712e-05,-2.83749204754713e-06,-3.039693365280982e-05,5.626876372843981e-05
-4.937329140375368e-05,-3.388272307347506e-05,2.7533649245015113e-06,-2.5711082344059832e-05,5.156239421921782e-05
-5.750282434746623e-05,-1.0095023753819987e-05,1.468811092308897e-06,-3.354793807375245e-05,4.9704689445206895e-05
-5.2316270739538595e-05,6.004301212669816e-06,-7.608685791637981e-06,-5.952536594122648e-05,5.3654563089367e-05
-4.669591362471692e-05,1.105763567466056e-05,-1.8835276932804845e-05,-9.238741040462628e-05,5.982055881759152e-05
-5.2694867918035015e-05,6.503768872789806e-06,-2.5553667001076974e-05,-0.00011434630869189277,6.154697621241212e-05
-6.994833529461175e-05,1.1749657460313756e-06,-2.2866264771437272e-05,-0.00011485406139399856,5.766410322394222e-05
-8.073195203905925e-05,-3.1553841495224333e-07,-1.546419480291661e-05,-9.433070226805285e-05,5.4790391004644334e-05
-8.05330419098027e-05,-3.6307760638010222e-06,-1.1656971764750779e-05,-6.335939542623237e-05,5.576174226007424e-05
-7.222832209663466e-05,-1.2073798643541522e-05,-1.0623549314914271e-05,-2.994917485921178e-05,5.654273627442308e-05
-5.966216849628836e-05,-1.959373548743315e-05,-3.3593030366319e-06,1.3238299345630367e-07,5.502155181602575e-05
-3.929715239792131e-05,-2.8680537070613354e-05,9.9942280940013e-06,2.949896952486597e-05,5.302940553519875e-05
-1.8057076886179857e-05,-2.9669727155123837e-05,2.3060330931912176e-05,5.909360697842203e-05,5.442689507617615e-05
-1.9913070445909398e-06,-2.1087571440148167e-05,3.906652636942454e-05,9.473136015003547e-05,5.650491948472336e-05
9.394591870659497e-06,-2.1125661078258418e-05,6.100189420976676e-05,0.00012705034168902785,5.3456842579180375e-05
4.387565695651574e-06,-2.7452726499177516e-05,8.30462304293178e-05,0.0001356105349259451,4.65518023702316e-05
-1.1088768587796949e-05,-9.539211532683112e-06,9.93384383036755e-05,0.00012349034659564495,4.7070781874936074e-05
-1.963725298992358e-05,3.229775029467419e-05,0.00010545393161009997,0.00010453165305079892,5.6844120990717784e-05
-2.163018871215172e-05,6.880021101096645e-05,9.509921801509336e-05,8.418271318078041e-05,6.48374916636385e-05
-3.435718099353835e-05,8.88112626853399e-05,7.13909394107759e-05,5.8955563872586936e-05,6.522035982925445e-05
-5.0353770348010585e-05,0.00010067398397950456,4.504707612795755e-05,3.7069890822749585e-05,6.186443351907656e-05
-5.8518886362435296e-05,0.0001107003481592983,2.3510398023063317e-05,2.2987209376879036e-05,6.151404522825032e-05
-5.887723818887025e-05,0.00011331761197652668,9.08049514691811e-06,1.02658559626434e-05,6.367215246427804e-05
-6.027424751664512e-05,0.00010405179637018591,-1.200484263108592e-07,-5.964908268651925e-06,6.431304063880816e-05
-6.761855911463499e-05,9.225435496773571e-05,-2.554538014010177e-06,-1.8877884940593503e-05,6.27322297077626e-05
-7.19764138921164e-05,8.42578083393164e-05,-6.241221512937045e-07,-2.4702530936338007e-05,6.0903428675374016e-05
-6.144735380075872e-05,7.54279171815142e-05,1.0735832489672248e-07,-2.425418460916262e-05,6.225767720025033e-05
-4.2260166082996875e-05,6.519138696603477e-05,-2.0863583358732285e-06,-1.928454548760783e-05,6.764118006685749e-05
-3.551653207978234e-05,4.982772225048393e-05,-4.213786269247066e-06,-1.2972855074622203e-05,7.078464113874361e-05
-4.297043778933585e-05,2.3666632841923274e-05,-5.3915209718979895e-06,-1.2222884834045544e-05,6.860035500722006e-05
-5.0337432185187936e-05,-1.1895568604813889e-05,-5.760125532106031e-06,-1.8632503270055167e-05,6.475493137259036e-05
-4.7811012336751446e-05,-4.458416151464917e-05,-5.05932439409662e-06,-2.4748633222770877e-05,6.099423626437783e-05
-3.9920469134813175e-05,-6.920379382790998e-05,-2.1253301838441985e-06,-2.8058762836735696e-05,5.812277959194034e-05
-3.323275450384244e-05,-7.652506610611454e-05,2.938356828963151e-06,-3.0353408874361776e-05,5.674268686561845e-05
-2.780983231787104e-05,-6.419652345357463e-05,3.080952637901646e-06,-3.8010854041203856e-05,5.6283592130057514e-05
-1.4275123248808086e-05,-5.003054684493691e-05,-6.732328074576799e-06,-5.0624414143385366e-05,5.801765655633062e-05
5.09572601004038e-06,-3.828938497463241e-05,-1.7703599951346405e-05,-5.914587018196471e-05,5.9509624406928197e-05
1.8080478184856474e-05,-1.5791967598488554e-05,-1.8179485778091475e-05,-5.902075645281002e-05,6.0587488405872136e-05
7.595472652610624e-06,2.2748892661184072e-05,-1.2868635167251341e-05,-5.8809273468796164e-05,6.320711690932512e-05
-1.1722512681444641e-05,6.290565943345428e-05,-1.231652368005598e-05,-5.9029942349297926e-05,6.337360537145287e-05
-1.518452882010024e-05,8.911790791898966e-05,-1.9229059034842066e-05,-5.374440297600813e-05,6.370148912537843e-05
-9.269043403037358e-06,9.502264583716169e-05,-2.32711299759103e-05,-4.664184234570712e-05,6.184035009937361e-05
3.288229436293477e-06,9.210972348228097e-05,-2.0667821445385925e-05,-3.86587307730224e-05,5.557841723202728e-05
1.8501246813684702e-05,9.533739648759365e-05,-1.3535853213397786e-05,-2.956289790745359e-05,5.452780533232726e-05
3.0344968763529323e-05,0.00010397045116405934,-4.120453922951128e-06,-1.8200791600975208e-05,5.996727486490272e-05
3.110181205556728e-05,0.00010804343037307262,2.91004175778653e-06,-3.9341980482276995e-06,6.473594839917496e-05
1.5790874385857023e-05,8.139575948007405e-05,9.23774132388644e-06,9.799923645914532e-06,6.450773071264848e-05
-8.696269105712418e-06,4.179044844931923e-05,1.5352547052316368e-05,2.407471947662998e-05,6.26343535259366e-05
-3.310613101348281e-05,1.8521095626056194e-05,2.2020489268470556e-05,3.404108792892657e-05,5.842756218044087e-05
-4.770204395754263e-05,1.3151530765753705e-05,2.7849036996485665e-05,3.5034976463066414e-05,5.533066359930672e-05
-4.7863424697425216e-05,1.9969795175711624e-05,2.7921305445488542e-05,3.001280674652662e-05,5.66729431739077e-05
-3.632461084634997e-05,2.9690747396671213e-05,2.378296085225884e-05,2.77071612799773e-05,6.07973852311261e-05
-2.3152688299887814e-05,3.495358396321535e-05,2.2544001694768667e-05,3.140570697723888e-05,6.24966633040458e-05
-1.7955859220819548e-05,3.599229603423737e-05,2.5587400159565732e-05,3.3225198421860114e-05,5.995838000671938e-05
-1.69107206602348e-05,3.338177702971734e-05,2.5755576643859968e-05,2.6110123144462705e-05,5.8390818594489247e-05
-9.801149644772522e-06,2.523546208976768e-05,1.9813034668914042e-05,1.1095994523202535e-05,5.800448707304895e-05
-3.83005090043298e-06,1.8730524971033446e-05,1.1286432709312066e-05,-3.443632976996014e-06,5.48189455003012e-05
-9.691273589851335e-06,2.2239326426642947e-05,4.943535259371856e-06,-1.1659129995678086e-05,4.9075824790634215e-05
-1.4214707334758714e-05,3.896697307936847e-05,3.5703289995581144e-06,-1.614265056559816e-05,4.7937941417330876e-05
-8.566521501052193e-06,5.5910146329551935e-05,3.027900675078854e-06,-2.4294753529829904e-05,5.094142034067772e-05
-5.733145826525288e-06,6.493549881270155e-05,-6.586887479897996e-07,-3.0014161893632263e-05,5.510254413820803e-05
-1.096546202461468e-05,6.628970731981099e-05,-3.776534867938608e-06,-2.3945807697600685e-05,5.9869049437111244e-05
-1.8545535567682236e-05,6.023364403517917e-05,-3.7085510484757833e-06,-1.623161369934678e-05,6.162907811813056e-05
-3.0454970328719355e-05,4.719671414932236e-05,-7.836059921828564e-06,-1.2658831110456958e-05,6.130746623966843e-05
-4.496934707276523e-05,2.8115588065702468e-05,-1.6033731299103238e-05,-1.0970608855132014e-05,6.21618382865563e-05
-5.5480337323388085e-05,7.085909601300955e-07,-1.6812560716061853e-05,-1.2890381185570732e-05,5.861258250661194e-05
-5.793447053292766e-05,-2.0851210138062015e-05,-1.1710009857779369e-05,-1.768958281900268e-05,5.0705224566627294e-05
-5.220333696343005e-05,-1.8607570382300764e-05,-6.224773187568644e-06,-2.4237811885541305e-05,4.77967805636581e-05
-4.592003097059205e-05,-1.1111957292087027e-06,-7.3570308813941665e-06,-2.7527521524461918e-05,5.033960042055696e-05
-3.7520403566304594e-05,7.34203786123544e-06,-8.939503459259868e-06,-2.9806044040014967e-05,5.241376129561104e-05
-2.786330514936708e-05,9.227197551808786e-06,-5.125218194734771e-06,-3.429439675528556e-05,5.251405309536494e-05
-2.8480619221227244e-05,1.9348643036209978e-05,-6.237365596462041e-06,-3.820885467575863e-05,5.0037040637107566e-05
-2.932483039330691e-05,3.596850001486018e-05,-9.919200238073245e-06,-3.936967914341949e-05,4.7851532144704834e-05
-2.3361633793683723e-05,4.748003993881866e-05,-1.1348662155796774e-05,-3.818759796558879e-05,4.709553104476072e-05
-1.4272424778027926e-05,4.665138840209693e-05,-1.0191960427619051e-05,-3.586877937777899e-05,5.1248189265606925e-05
-5.104633146402193e-06,3.698410000652075e-05,-1.0503838893782813e-05,-3.375834785401821e-05,5.783217784482986e-05
-1.3875082913727965e-06,2.4692377337487414e-05,-1.2103588233003393e-05,-3.294062116765417e-05,6.178486364660785e-05
-7.660008122911677e-06,1.8051134247798473e-05,-1.485981101723155e-05,-3.2675699912942946e-05,6.217885675141588e-05
-2.695600051083602e-05,1.957689346454572e-05,-1.6799807781353593e-05,-3.1893825507722795e-05,6.0783244407502934e-05
-5.232565672486089e-05,2.7301168302074075e-05,-1.48275694300537e-05,-2.8737687898683362e-05,5.7391251175431535e-05
-7.22508120816201e-05,3.5893706808565184e-05,-1.0528980965318624e-05,-2.4984396077343263e-05,5.252241317066364e-05
-7.971301238285378e-05,4.3946703954134136e-05,-6.56613019600627e-06,-2.1917197955190204e-05,5.2347157179610804e-05
-7.846217340556905e-05,5.219217200647108e-05,-4.6920681597839575e-06,-2.127470179402735e-05,5.646384306601249e-05
-6.892278179293498e-05,5.691282422048971e-05,-5.759494797530351e-06,-2.5013041522470303e-05,6.197729089763016e-05
-4.714943133876659e-05,5.59556829102803e-05,-7.842786544642877e-06,-3.014518370036967e-05,6.410967762349173e-05
-2.0379347915877588e-05,5.3307423513615504e-05,-6.865873729111627e-06,-3.161534550599754e-05,5.987175973132253e-05
-5.975902240606956e-06,5.135780884302221e-05,-5.5446325859520584e-06,-2.766760553640779e-05,5.5871907534310594e-05
-8.116910976241343e-06,4.57324567832984e-05,-8.3758977780235e-06,-2.177261012548115e-05,6.067827416700311e-05
-9.899140422930941e-06,3.381275382707827e-05,-1.0776258932310157e-05,-1.7522297639516182e-05,6.561516056535766e-05
-6.2677722780790646e-06,2.443886114633642e-05,-7.777680366416462e-06,-1.1982553587586153e-05,6.680801016045734e-05
-4.294137397664599e-06,2.327230504306499e-05,-5.769119070464512e-06,-6.028778443578631e-06,6.83067919453606e-05
-9.427421900909394e-06,2.3377086108666845e-05,-6.277531610976439e-06,-5.747093837271677e-06,7.113293395377696e-05
-1.237507694895612e-05,2.3272836187970825e-05,-1.0075973477796651e-06,-1.0309209756087512e-05,7.296362309716642e-05
-8.472315130347852e-06,1.870773485279642e-05,9.146160664386116e-06,-9.7320898930775e-06,6.888189818710089e-05
-6.298615062405588e-06,7.852785529394168e-06,8.633852303319145e-06,-4.83637859360897e-06,6.450078944908455e-05
-7.97795564722037e-06,1.1031882422685158e-05,3.0313246952573536e-06,-3.0288622383523034e-06,6.409092020476237e-05
-1.1055432878492866e-05,2.7315019906382076e-05,4.8100728236022405e-06,1.0857221468540956e-06,6.487470091087744e-05
-1.3172290891816374e-05,4.0288185118697584e-05,1.06518300526659e-05,1.7494897974756896e-06,6.63603495922871e-05
-2.1778070731670596e-05,4.677586184698157e-05,1.2243336641404312e-05,-4.958234057994559e-06,6.642541120527312e-05
-3.4326178138144314e-05,5.0348364311503246e-05,8.289490324386861e-06,-1.1636593626462854e-05,6.475673581007868e-05
-4.215274748275988e-05,5.088307079859078e-05,7.883097168814857e-06,-1.3117935850459617e-05,6.490267696790397e-05
-3.73942639271263e-05,4.346479181549512e-05,1.3638561540574301e-05,-9.548327398078982e-06,6.668802961939946e-05
-2.5950823328457773e-05,2.81005741271656e-05,2.0189227143418975e-05,-6.998252956691431e-06,6.639350613113493e-05
-1.4615716281696223e-05,1.0476178431417793e-05,2.2473950593848713e-05,-4.988307864550734e-06,6.387905887095258e-05
-6.413824394257972e-06,2.880619604184176e-06,2.3143127691582777e-05,-1.6025672948671854e-06,6.307935836957768e-05
-5.096704171592137e-06,9.397082067152951e-06,2.6808051188709214e-05,8.205449830711586e-07,6.81026722304523e-05
-1.271779001399409e-05,2.1534291590796784e-05,3.4242504625581205e-05,-1.3404828678176273e-06,7.663840369787067e-05
-2.8725869924528524e-05,2.1694335373467766e-05,4.154704947723076e-05,-5.508248705154983e-06,8.02756694611162e-05
-4.690166679210961e-05,9.513912004877056e-07,4.4467669795267284e-05,-5.8898949646390975e-06,7.620363612659276e-05
-6.0463426052592695e-05,-2.502785537217278e-05,4.139325756113976e-05,-2.212057552242186e-06,6.984549690969288e-05
-6.256269989535213e-05,-2.9550707040471025e-05,3.526754881022498e-05,1.501007091064821e-06,6.782104901503772e-05
-5.197826976655051e-05,-1.052494644682156e-05,3.166092574247159e-05,2.2320471089187777e-06,6.951855175429955e-05
-2.686693005671259e-05,1.3565309018304106e-05,2.9883893148507923e-05,1.9037698848478612e-06,6.941940227989107e-05
7.152839316404425e-06,2.9742728656856343e-05,2.4145010684151202e-05,2.988052074215375e-06,6.623442459385842e-05
3.5362460039323196e-05,3.419883069000207e-05,1.2632657671929337e-05,4.864782567892689e-06,6.349910836433992e-05
3.8762245821999386e-05,3.009551073773764e-05,1.9511096525093308e-06,6.855411356809782e-06,5.960576527286321e-05
2.3078473532223143e-05,2.3988472094060853e-05,2.3664598813866178e-07,1.038244317896897e-05,5.383524694480002e-05
9.355337169836275e-06,2.5232488042092882e-05,4.812801307707559e-06,1.111483379645506e-05,5.375870023272e-05
5.073284683021484e-06,3.6978526622988284e-05,7.406697477563284e-06,7.31002228349098e-06,5.616347698378377e-05
7.011803518253146e-06,5.688644523615949e-05,6.796213256166084e-06,2.8020945137541275e-06,5.109711491968483e-05
2.3598177278927324e-07,6.917308201082051e-05,6.917654445715016e-06,-4.11112341680564e-06,4.3363135773688555e-05
-2.5826328055700287e-05,7.522606028942391e-05,1.1937061572098173e-05,-1.0340894732507877e-05,4.601912587531842e-05
-5.771328505943529e-05,8.179766882676631e-05,1.8729760995483957e-05,-6.151159141154494e-06,6.137169111752883e-05
-8.654329576529562e-05,7.325259502977133e-05,1.851780507422518e-05,1.0513608685869258e-06,7.115150947356597e-05
-0.00011569896742003039,4.1920171497622505e-05,1.5597581295878626e-05,-2.5384190394106554e-06,6.98552539688535e-05
-0.00013450199912767857,-1.831135705288034e-06,1.697039078862872e-05,-8.325596354552545e-06,6.531382678076625e-05
-0.00011443043331382796,-4.305916445446201e-05,2.0661040252889507e-05,-9.312578185927123e-06,6.0149224736960605e-05
-6.180354830576107e-05,-8.411969611188397e-05,2.2504022126668133e-05,-9.641143151384313e-06,6.0174141253810376e-05
-1.6182024410227314e-05,-0.00011372625885996968,1.9321736544952728e-05,-1.1469583114376292e-05,6.502348696812987e-05
-6.687350264655834e-07,-0.00011551797797437757,1.4498212294711266e-05,-1.282141420233529e-05,7.029817788861692e-05
-1.5249373973347247e-05,-8.357111073564738e-05,1.4088424904912245e-05,-1.2556369256344624e-05,7.234155054902658e-05
-4.49350118287839e-05,-3.2515323255211115e-05,1.744510700518731e-05,-1.257945223187562e-05,7.139508670661598e-05
-6.47475098958239e-05,1.699649692454841e-05,1.8198334146291018e-05,-1.6796813724795356e-05,6.986076186876744e-05
-5.022051846026443e-05,6.254108302528039e-05,1.274191617994802e-05,-2.6571184207568876e-05,6.755172944394872e-05
-8.252187399193645e-06,0.00010393679986009374,4.218090452923207e-06,-3.717427171068266e-05,6.436469993786886e-05
2.8018985176458955e-05,0.00012751738540828228,8.347184916601691e-07,-4.4414042349671945e-05,6.222925730980933e-05
3.660230140667409e-05,0.00011184326285729185,4.392298080801993e-07,-4.915371391689405e-05,5.7494537031743675e-05
2.7609448807197623e-05,6.107677472755313e-05,-3.992429810750764e-06,-5.356665496947244e-05,4.9789465265348554e-05
1.9077811884926632e-05,1.3498747648554854e-05,-9.576336196914781e-06,-5.3955714975018054e-05,4.717551564681344e-05
1.6727575712138787e-05,6.962384759390261e-06,-9.44514340517344e-06,-5.1435523346299306e-05,5.5131724366219714e-05
1.3226000191934872e-05,3.259253207943402e-05,-6.806397777836537e-06,-5.200692612561397e-05,6.59883298794739e-05
2.2024059944669716e-06,5.089192563900724e-05,-8.515367881045677e-06,-5.692122795153409e-05,6.932674295967445e-05
-5.968339337414363e-06,4.793863990926184e-05,-1.2028918717987835e-05,-5.91771058680024e-05,6.505184865090996e-05
6.420581030397443e-06,4.939971404382959e-05,-1.1062043995480053e-05,-4.91452774440404e-05,5.827579298056662e-05
2.3841017537051812e-05,6.708374712616205e-05,-6.884281901875511e-06,-2.3805865566828288e-05,5.639396113110706e-05
1.665313720877748e-05,8.089550829026848e-05,1.5436663716172916e-06,5.1416332098597195e-06,5.3902851504972205e-05
-1.1233518307562917e-05,7.202615961432457e-05,1.4565413948730566e-05,2.963962106150575e-05,4.603884735843167e-05
-3.886719059664756e-05,5.5082800827221945e-05,1.9510373022058047e-05,5.060023249825463e-05,3.972896229242906e-05
-5.89015289733652e-05,5.814792893943377e-05,2.3010763470665552e-05,6.94093614583835e-05,3.804982407018542e-05
-5.40437686140649e-05,6.718068470945582e-05,3.0675637390231714e-05,8.77181300893426e-05,3.9976945117814466e-05
-2.623827094794251e-05,4.643354259314947e-05,3.599220508476719e-05,0.00010223075514659286,4.4780143070966005e-05
-1.554331902298145e-05,5.037165465182625e-06,3.9649599784752354e-05,0.00010901690257014707,4.880458800471388e-05
-2.967999353131745e-05,-3.1101641070563346e-05,3.871204171446152e-05,9.93534195004031e-05,4.684536543209106e-05
-4.460018681129441e-05,-2.8985570679651573e-05,3.735925201908685e-05,7.517609628848732e-05,4.0737693780101836e-05
-4.263776645530015e-05,1.141651864600135e-05,3.958148954552598e-05,5.010739550925791e-05,3.99321797885932e-05
-2.9786735467496328e-05,4.0424107282888144e-05,3.9688839024165645e-05,2.980485987791326e-05,4.515530599746853e-05
-2.090406087518204e-05,3.8580164982704446e-05,3.413260492379777e-05,1.0289011697750539e-05,5.170221265871078e-05
-2.367309934925288e-05,3.486533751129173e-05,2.399705772404559e-05,-6.882634352223249e-06,5.651516039506532e-05
-3.074868436669931e-05,5.708778553525917e-05,9.399404007126577e-06,-1.7137252143584192e-05,5.899736424908042e-05
-3.31817427650094e-05,8.79586732480675e-05,-5.465670255944133e-06,-2.6163921575061977e-05,6.147045496618375e-05
-3.069615922868252e-05,9.146149386651814e-05,-1.6136178601300344e-05,-3.9070204365998507e-05,6.001585643389262e-05
-2.987752486660611e-05,6.06986359343864e-05,-2.1981190002406947e-05,-5.2392439101822674e-05,5.2830127970082685e-05
-3.47901186614763e-05,3.166705209878273e-05,-2.4423052309430204e-05,-6.405877502402291e-05,4.691137291956693e-05
-4.4573171180672944e-05,3.3107538911281154e-05,-2.8229085728526115e-05,-7.333073153859004e-05,4.5139579015085474e-05
-5.405230331234634e-05,5.569206041400321e-05,-3.4381715522613376e-05,-7.861302583478391e-05,4.4648571929428726e-05
-5.3371630201581866e-05,7.986401033122092e-05,-3.762228152481839e-05,-7.957637717481703e-05,4.49890285381116e-05
-4.0067585359793156e-05,9.995702566811815e-05,-3.2051077141659334e-05,-7.288691267604008e-05,4.738961433758959e-05
-2.6640707801561803e-05,0.00011216537677682936,-2.0984203729312867e-05,-5.776184843853116e-05,5.367989433580078e-05
-3.582885256037116e-05,0.00010069002019008622,-1.1462143447715789e-05,-3.933985499315895e-05,5.955831511528231e-05
-6.971803668420762e-05,7.210417970782146e-05,-7.449382792401593e-06,-2.5809427825151943e-05,5.8375309890834615e-05
-9.40271420404315e-05,7.243262371048331e-05,-9.813658834900707e-06,-1.8982063920702785e-05,5.5171527492348105e-05
-6.868042692076415e-05,9.94379588519223e-05,-1.3396497706708033e-05,-1.3750106518273242e-05,5.6266027968376875e-05
-2.8235381250851788e-06,9.710084850667045e-05,-7.523609838244738e-06,-6.680247679469176e-07,6.08793598075863e-05
6.94489135639742e-05,3.572026253095828e-05,8.947288733907044e-06,1.6781208614702336e-05,6.50591027806513e-05
0.00010766363266156986,-2.873632729460951e-05,2.105339262925554e-05,2.198059155489318e-05,6.546393706230447e-05
9.420275455340743e-05,-4.471521970117465e-05,2.49781060119858e-05,1.72776617546333e-05,6.437791307689622e-05
5.211294046603143e-05,-3.985791408922523e-05,2.8757525797118433e-05,1.1295179319859017e-05,6.196056347107515e-05
1.3446545381157193e-05,-3.070487582590431e-05,3.196535908500664e-05,9.731536920298822e-06,6.0052418120903894e-05
-8.358991181012243e-06,-5.137425887369318e-06,3.5432622098596767e-05,8.72092459758278e-06,5.905093712499365e-05
-2.935727206931915e-05,1.8825467122951522e-05,3.348352765897289e-05,-1.4007491699885577e-06,5.5096985306590796e-05
-5.322253855410963e-05,7.880100383772515e-06,2.380389742029365e-05,-1.4789765373279806e-05,4.8639521992299706e-05
-7.337870192714036e-05,-1.5462906958418898e-05,1.895521563710645e-05,-1.7991847926168703e-05,4.839435132453218e-05
-8.085500303423032e-05,-2.3402719307341613e-05,1.9308758055558428e-05,-1.087106102204416e-05,5.567340485868044e-05
-8.582836744608358e-05,-2.1820167603436857e-05,1.761135717970319e-05,-2.894882300097379e-06,6.328120798571035e-05
-0.00010064104571938515,-9.918490832205862e-06,1.2815068657801021e-05,4.28126713813981e-06,6.675242184428498e-05
-0.00010649652540450916,6.848275916127022e-06,8.929996511142235e-06,6.970863523747539e-06,6.543724157381803e-05
-7.340677984757349e-05,-1.5062292959555634e-06,6.841541562607745e-06,4.421447556524072e-06,6.239626236492768e-05
-6.787607617297908e-06,-3.478184589766897e-05,5.151376626599813e-06,-1.7488943058197037e-06,5.7158205891028047e-05
5.275950752547942e-05,-5.922658965573646e-05,4.134089067520108e-06,-6.26455357632949e-06,5.189702642383054e-05
7.577499491162598e-05,-5.965804302832112e-05,2.165764271921944e-06,-9.383446922583971e-06,5.047744343755767e-05
6.0652873798971996e-05,-5.333656372386031e-05,-3.8051205137890065e-06,-2.097857213811949e-05,5.217897705733776e-05
2.280324770254083e-05,-5.497189340530895e-05,-1.5146301848290022e-05,-4.898110273643397e-05,5.20658832101617e-05
-2.1600802938337438e-05,-5.4795833420939744e-05,-2.9350527256610803e-05,-8.444732520729303e-05,4.985924169886857e-05
-5.602787132374942e-05,-4.0776147216092795e-05,-4.253713268553838e-05,-0.00010917980398517102,4.844942668569274e-05
-7.395527063636109e-05,-1.7740532712196e-05,-5.512126153917052e-05,-0.0001194001961266622,5.0447935791453347e-05
-7.59695831220597e-05,1.1168110631842865e-06,-6.56763295410201e-05,-0.00011794587771873921,5.5094958952395245e-05
-6.10957940807566e-05,9.012181180878542e-06,-6.538485467899591e-05,-0.00010743018356151879,5.917964881518856e-05
-2.9115681172697805e-05,1.7092363123083487e-05,-5.414131737779826e-05,-8.651171810925007e-05,6.389342161128297e-05
-5.226252142165322e-07,3.40918377332855e-05,-3.8997353840386495e-05,-5.241840335656889e-05,7.165875285863876e-05
4.430796138876758e-07,4.4972632167628035e-05,-2.0488463633228093e-05,-1.270628854399547e-05,7.916973117971793e-05
-3.2956726499833167e-05,4.676391836255789e-05,3.0222918212530203e-06,2.264632894366514e-05,8.16146275610663e-05
-7.845913205528632e-05,2.5286075469921343e-05,2.5551722501404583e-05,5.554389281314798e-05,7.601377728860825e-05
-0.00010769727668957785,-1.738588252919726e-05,4.813162377104163e-05,8.856211934471503e-05,6.535473221447319e-05
-0.00011682233161991462,-3.52319075318519e-05,6.76040435791947e-05,0.00010160627425648272,6.019745342200622e-05
-0.0001180980252684094,-1.9762022930081002e-05,7.190401811385527e-05,7.940228533698246e-05,5.933214197284542e-05
-0.00011073733912780881,6.242454219318461e-06,6.526459037559107e-05,3.786310844589025e-05,5.593050809693523e-05
-7.862909114919603e-05,3.053468026337214e-05,5.56362938368693e-05,1.0548174032010138e-06,5.3151674364926293e-05
-3.253304384998046e-05,4.630089097190648e-05,4.243382136337459e-05,-2.553253943915479e-05,5.213065378484316e-05
1.8781915400722937e-07,4.8128240450751036e-05,2.2786332920077257e-05,-5.227064320934005e-05,4.835808795178309e-05
1.7430680600227788e-05,4.403746424941346e-05,-9.769578355189878e-07,-7.648146856809035e-05,4.043837179779075e-05
2.3682358005316928e-05,5.1332113798707724e-05,-2.4509034119546413e-05,-9.246640547644347e-05,3.332926644361578e-05
1.5544435882475227e-05,6.843084702268243e-05,-4.23961209889967e-05,-9.150534606305882e-05,3.110619945800863e-05
3.1553224744129693e-07,9.227021655533463e-05,-5.022530967835337e-05,-6.7022061557509e-05,3.0676874303026125e-05
-1.7048281733877957e-05,0.00011646175698842853,-4.663559593609534e-05,-2.212441904703155e-05,3.088038647547364e-05
-3.055905472137965e-05,0.00012479124416131526,-3.354090586071834e-05,2.412065805401653e-05,3.326615842524916e-05
-3.3684864320093766e-05,0.00012030625657644123,-9.962873264157679e-06,5.3832725825486705e-05,4.142499528825283e-05
-3.313996785436757e-05,0.00012359554239083081,1.9198554582544602e-05,6.700976518914104e-05,5.089316618978046e-05
-4.904971137875691e-05,0.00012829250772483647,4.146950232097879e-05,8.031140896491706e-05,5.0634811486816034e-05
-7.571255991933867e-05,0.00011562462896108627,5.246806176728569e-05,0.00010250126797473058,4.328091017669067e-05
-8.358547347597778e-05,8.678426820551977e-05,6.122283230070025e-05,0.00011980564886471257,4.1304578189738095e-05
-6.023175592417829e-05,4.423023710842244e-05,7.716441905358806e-05,0.00011895496572833508,4.790896491613239e-05
-2.082100763800554e-05,-4.7067196646821685e-06,9.576820593792945e-05,0.00010304852912668139,5.51942503079772e-05
9.097783731704112e-06,-3.540764737408608e-05,0.00010818099690368399,8.552911458536983e-05,5.575500472332351e-05
8.302295100293122e-06,-4.331871241447516e-05,0.00010519105126149952,7.202252891147509e-05,5.312643406796269e-05
-1.164638979389565e-05,-3.136757368338294e-05,8.565845200791955e-05,6.322830449789762e-05,5.617229180643335e-05
-1.6124226021929644e-05,8.919942956708837e-06,6.015692270011641e-05,5.345081081031822e-05,6.958902667975053e-05
-4.2541109905869234e-06,4.37983799201902e-05,3.6024899600306526e-05,3.835220559267327e-05,7.969026773935184e-05
4.919697857985739e-06,7.471667049685493e-05,1.0606326213746797e-05,8.425866326433606e-06,7.371515675913543e-05
-4.5388569560600445e-06,0.00013350139488466084,-4.818448815058218e-06,-3.211719376849942e-05,6.325496360659599e-05
-2.1953183022560552e-05,0.00019274718943051994,-3.7574104680970777e-06,-5.722701098420657e-05,5.7537366956239566e-05
-2.911498086177744e-05,0.00019882898777723312,1.4460073316513444e-06,-5.661473551299423e-05,6.162829231470823e-05
-2.2064687072997913e-05,0.0001440539344912395,4.522050858213333e-06,-4.032087599625811e-05,6.884441972943023e-05
-1.8703265595831908e-05,7.230408664327115e-05,5.743645033362554e-06,-2.3052416509017348e-05,6.719918019371107e-05
-3.355471562827006e-05,2.1451367501867935e-05,7.480956810468342e-06,-2.1472544176504016e-05,6.228653364814818e-05
-5.644493649015203e-05,9.448388482269365e-06,7.437685326294741e-06,-3.9479400584241375e-05,6.920043233549222e-05
-7.605316932313144e-05,1.2153829629824031e-05,3.3646358588157455e-06,-6.194968591444194e-05,8.159238495863974e-05
-9.379756374983117e-05,6.524041964439675e-06,-7.46407840779284e-06,-7.203475252026692e-05,8.325669477926567e-05
-0.00011498729145387188,-1.526491359982174e-05,-1.5143031305342447e-05,-6.506922363769263e-05,7.696076499996707e-05
-0.0001214121948578395,-5.288421016302891e-05,-1.2563456039060839e-05,-5.123942901263945e-05,7.221238047350198e-05
-0.00010622484842315316,-8.084000000962988e-05,-6.546719760081032e-06,-4.013455691165291e-05,7.269385241670534e-05
-7.644429570063949e-05,-6.910104275448248e-05,-4.219875336275436e-06,-3.392614598851651e-05,7.425119838444516e-05
-4.097144119441509e-05,-1.402958787366515e-05,-5.098257588542765e-06,-2.8480970286182128e-05,7.48929160181433e-05
-3.763588665606221e-06,3.766010559047572e-05,-7.2688781074248254e-06,-1.963128670467995e-05,7.52207197365351e-05
1.4838757124380209e-05,3.7183421227382496e-05,-1.706715556792915e-05,-1.3756306543655228e-05,7.468670082744211e-05
-9.616176612325944e-06,-1.072269424184924e-05,-3.1280982511816546e-05,-1.921231159940362e-05,7.275246025528759e-05
-5.735401646234095e-05,-5.20863504789304e-05,-3.82736288884189e-05,-3.494746488286182e-05,7.280559657374397e-05
-8.029201853787526e-05,-5.864310514880344e-05,-3.4931086702272296e-05,-5.465370122692548e-05,7.302968151634559e-05
-5.115489329909906e-05,-4.390018875710666e-05,-3.3246251405216753e-05,-8.382014493690804e-05,7.237353565869853e-05
1.2492478163039777e-05,-2.6506701033213176e-05,-5.2138591854600236e-05,-0.00013277825200930238,7.364051998592913e-05
6.45101026748307e-05,-1.2345806680968963e-05,-9.593329014023766e-05,-0.00019801764574367553,7.573423499707133e-05
7.872057904023677e-05,1.1106959618700785e-06,-0.00013608198787551373,-0.0002490523038432002,7.684311276534572e-05
7.011365232756361e-05,2.041915649897419e-05,-0.00014823324454482645,-0.00025203340919688344,8.024074486456811e-05
5.5785232689231634e-05,3.223959356546402e-05,-0.0001347314682789147,-0.00020981540728826076,8.575579704483971e-05
4.0396935219177976e-05,3.284460035501979e-05,-0.00011018153600161895,-0.00014867605932522565,8.641090244054794e-05
2.0758041500812396e-05,4.906636240775697e-05,-8.306783274747431e-05,-7.53967251512222e-05,8.156121475622058e-05
